{
  "AcquisitionMatrixPE": 72,
  "AcquisitionNumber": 1,
  "AcquisitionTime": "17:22:31.330000",
  "BandwidthPerPixelPhaseEncode": 17.943,
  "BaseResolution": 96,
  "BodyPartExamined": "BRAIN",
  "CoilCombinationMethod": "Sum of Squares",
  "ConsistencyInfo": "N4_VE11C_LATEST_20160120",
  "ConversionSoftware": "dcm2niix",
  "ConversionSoftwareVersion": "v1.0.20211006",
  "DerivedVendorReportedEchoSpacing": 0.000552897,
  "DeviceSerialNumber": "166011",
  "EchoTime": 0.03,
  "EchoTrainLength": 58,
  "EffectiveEchoSpacing": 0.000580542,
  "FlipAngle": 62,
  "ImageOrientationPatientDICOM": [0.997987, 0.0613091, 0.0162327, -0.0599905, 0.995596, -0.0720356],
  "ImageType": [
    "ORIGINAL",
    "PRIMARY",
    "M",
    "ND",
    "MOSAIC"
],
  "ImagingFrequency": 123.259,
  "InPlanePhaseEncodingDirectionDICOM": "COL",
  "InstitutionAddress": "West 130th Street 610,NY,NYC,US,10025",
  "InstitutionName": "MBBI",
  "MRAcquisitionType": "2D",
  "MagneticFieldStrength": 3,
  "Manufacturer": "Siemens",
  "ManufacturersModelName": "Prisma",
  "Modality": "MR",
  "MultibandAccelerationFactor": 3,
  "PartialFourier": 0.75,
  "PatientPosition": "HFS",
  "PercentPhaseFOV": 100,
  "PercentSampling": 75,
  "PhaseEncodingDirection": "j-",
  "PhaseEncodingSteps": 58,
  "PhaseOversampling": 0.05,
  "PhaseResolution": 0.75,
  "PixelBandwidth": 2265,
  "ProcedureStepDescription": "White^Word_recognition",
  "ProtocolName": "func_vwfate_run15",
  "PulseSequenceDetails": "%SiemensSeq%\\ep2d_bold",
  "ReceiveCoilActiveElements": "HC1-7",
  "ReceiveCoilName": "HeadNeck_64",
  "ReconMatrixPE": 96,
  "RefLinesPE": 40,
  "RepetitionTime": 1.5,
  "SAR": 0.0418364,
  "ScanOptions": "PFP\\FS",
  "ScanningSequence": "EP",
  "SequenceName": "*epfid2d1_72",
  "SequenceVariant": "SK\\OSP",
  "SeriesDescription": "func_vwfate_run15",
  "SeriesNumber": 10,
  "ShimSetting": [-1131, -1356, 701, 709, -53, -48, -13, 4],
  "SliceThickness": 2,
  "SliceTiming": [1.0775, 0, 0.74, 0.0675, 0.8075, 0.135, 0.875, 0.2025, 0.9425, 0.27, 1.01, 0.405, 1.145, 0.4725, 1.2125, 0.54, 1.28, 0.6075, 1.3475, 0.6725, 1.4125, 0.3375, 1.0775, 0, 0.74, 0.0675, 0.8075, 0.135, 0.875, 0.2025, 0.9425, 0.27, 1.01, 0.405, 1.145, 0.4725, 1.2125, 0.54, 1.28, 0.6075, 1.3475, 0.6725, 1.4125, 0.3375, 1.0775, 0, 0.74, 0.0675, 0.8075, 0.135, 0.875, 0.2025, 0.9425, 0.27, 1.01, 0.405, 1.145, 0.4725, 1.2125, 0.54, 1.28, 0.6075, 1.3475, 0.6725, 1.4125, 0.3375],
  "SoftwareVersions": "syngo MR E11",
  "SpacingBetweenSlices": 2,
  "StationName": "AWP166011",
  "TaskName": "vwfate",
  "TotalReadoutTime": 0.0551515,
  "TxRefAmp": 214.028,
  "dcmmeta_affine": [
    [-1.9959735870361328, -0.11998108774423599, 0.04115527868270874, 100.94961547851562],
    [-0.1226181834936142, 1.9911925792694092, -0.14183363318443298, -60.2267951965332],
    [0.0324653685092926, 0.1440712809562683, 1.9945399761199951, -55.23643493652344],
    [0.0, 0.0, 0.0, 1.0]
],
  "dcmmeta_reorient_transform": [
    [0.0, -1.0, 0.0, 95.0],
    [1.0, 0.0, 0.0, 0.0],
    [0.0, 0.0, 1.0, 0.0],
    [0.0, 0.0, 0.0, 1.0]
],
  "dcmmeta_shape": [96, 96, 66, 164],
  "dcmmeta_slice_dim": 2,
  "dcmmeta_version": 0.6,
  "global": {
    "const": {
      "AcquisitionMatrix": [96, 0, 0, 72],
      "AngioFlag": "N",
      "BitsAllocated": 16,
      "BitsStored": 12,
      "BodyPartExamined": "BRAIN",
      "Columns": 864,
      "EchoNumbers": 1,
      "EchoTime": 30.0,
      "EchoTrainLength": 58,
      "FlipAngle": 62.0,
      "HighBit": 11,
      "ImageOrientationPatient": [0.99798682127951, 0.06130909007303, 0.01623268390715, -0.0599905433265, 0.99559630407282, -0.0720356441488],
      "ImagePositionPatient": [-809.93255146296, -940.63984376345, 1.3070117381782],
      "ImageType": [
        "ORIGINAL",
        "PRIMARY",
        "M",
        "ND",
        "MOSAIC"
],
      "ImagedNucleus": "1H",
      "ImagingFrequency": 123.259415,
      "InPlanePhaseEncodingDirection": "COL",
      "MRAcquisitionType": "2D",
      "MagneticFieldStrength": 3.0,
      "Manufacturer": "SIEMENS",
      "ManufacturerModelName": "Prisma",
      "Modality": "MR",
      "NumberOfAverages": 1.0,
      "NumberOfPhaseEncodingSteps": 58,
      "PercentPhaseFieldOfView": 100.0,
      "PercentSampling": 75.0,
      "PerformedProcedureStepStartTime": "165018.272000",
      "PhotometricInterpretation": "MONOCHROME2",
      "PixelBandwidth": 2265.0,
      "PixelRepresentation": 0,
      "PixelSpacing": [2.0, 2.0],
      "ProtocolName": "func_vwfate_run15",
      "RepetitionTime": 1500.0,
      "Rows": 864,
      "SAR": 0.04183638934379,
      "SamplesPerPixel": 1,
      "ScanOptions": [
        "PFP",
        "FS"
],
      "ScanningSequence": "EP",
      "SequenceName": "*epfid2d1_72",
      "SequenceVariant": [
        "SK",
        "OSP"
],
      "SeriesDescription": "func_vwfate_run15",
      "SeriesNumber": 10,
      "SeriesTime": "172313.299000",
      "SliceLocation": -48.737238792968,
      "SliceThickness": 2.0,
      "SmallestImagePixelValue": 0,
      "SoftwareVersions": "syngo MR E11",
      "SpacingBetweenSlices": 2.0000000214904,
      "SpecificCharacterSet": "ISO_IR 100",
      "StudyID": "3",
      "StudyTime": "165018.224000",
      "TransmitCoilName": "Body",
      "VariableFlipAngleFlag": "N",
      "WindowCenterWidthExplanation": "Algo1",
      "dBdt": 0.0},
    "slices": {}
  },
  "time": {
    "samples": {
      "AcquisitionNumber": [1, 2, 3, 4, 5, 6, 7, 8, 9, 10, 11, 12, 13, 14, 15, 16, 17, 18, 19, 20, 21, 22, 23, 24, 25, 26, 27, 28, 29, 30, 31, 32, 33, 34, 35, 36, 37, 38, 39, 40, 41, 42, 43, 44, 45, 46, 47, 48, 49, 50, 51, 52, 53, 54, 55, 56, 57, 58, 59, 60, 61, 62, 63, 64, 65, 66, 67, 68, 69, 70, 71, 72, 73, 74, 75, 76, 77, 78, 79, 80, 81, 82, 83, 84, 85, 86, 87, 88, 89, 90, 91, 92, 93, 94, 95, 96, 97, 98, 99, 100, 101, 102, 103, 104, 105, 106, 107, 108, 109, 110, 111, 112, 113, 114, 115, 116, 117, 118, 119, 120, 121, 122, 123, 124, 125, 126, 127, 128, 129, 130, 131, 132, 133, 134, 135, 136, 137, 138, 139, 140, 141, 142, 143, 144, 145, 146, 147, 148, 149, 150, 151, 152, 153, 154, 155, 156, 157, 158, 159, 160, 161, 162, 163, 164],
      "AcquisitionTime": ["172231.330000", "172232.830000", "172234.330000", "172235.830000", "172237.330000", "172238.830000", "172240.330000", "172241.830000", "172243.330000", "172244.830000", "172246.330000", "172247.830000", "172249.330000", "172250.830000", "172252.330000", "172253.830000", "172255.330000", "172256.830000", "172258.330000", "172259.830000", "172301.330000", "172302.830000", "172304.330000", "172305.830000", "172307.330000", "172308.830000", "172310.330000", "172311.830000", "172313.330000", "172314.830000", "172316.330000", "172317.830000", "172319.330000", "172320.830000", "172322.330000", "172323.830000", "172325.330000", "172326.830000", "172328.330000", "172329.830000", "172331.330000", "172332.830000", "172334.330000", "172335.830000", "172337.330000", "172338.830000", "172340.330000", "172341.830000", "172343.330000", "172344.830000", "172346.330000", "172347.830000", "172349.330000", "172350.830000", "172352.330000", "172353.830000", "172355.330000", "172356.830000", "172358.330000", "172359.830000", "172401.330000", "172402.830000", "172404.330000", "172405.830000", "172407.330000", "172408.830000", "172410.330000", "172411.830000", "172413.330000", "172414.830000", "172416.330000", "172417.830000", "172419.330000", "172420.830000", "172422.330000", "172423.830000", "172425.330000", "172426.830000", "172428.330000", "172429.830000", "172431.330000", "172432.830000", "172434.330000", "172435.830000", "172437.330000", "172438.830000", "172440.330000", "172441.830000", "172443.330000", "172444.830000", "172446.330000", "172447.830000", "172449.330000", "172450.830000", "172452.330000", "172453.830000", "172455.330000", "172456.830000", "172458.330000", "172459.830000", "172501.330000", "172502.830000", "172504.330000", "172505.830000", "172507.330000", "172508.830000", "172510.330000", "172511.830000", "172513.330000", "172514.830000", "172516.330000", "172517.830000", "172519.330000", "172520.830000", "172522.330000", "172523.830000", "172525.330000", "172526.830000", "172528.330000", "172529.830000", "172531.330000", "172532.830000", "172534.330000", "172535.830000", "172537.330000", "172538.830000", "172540.330000", "172541.830000", "172543.330000", "172544.830000", "172546.330000", "172547.830000", "172549.330000", "172550.830000", "172552.330000", "172553.830000", "172555.330000", "172556.830000", "172558.330000", "172559.830000", "172601.330000", "172602.830000", "172604.330000", "172605.830000", "172607.330000", "172608.830000", "172610.330000", "172611.830000", "172613.330000", "172614.830000", "172616.330000", "172617.830000", "172619.330000", "172620.830000", "172622.330000", "172623.830000", "172625.330000", "172626.830000", "172628.330000", "172629.830000", "172631.330000", "172632.830000", "172634.330000", "172635.830000"],
      "ContentTime": ["172313.303000", "172313.307000", "172313.310000", "172313.313000", "172313.316000", "172313.319000", "172313.322000", "172313.325000", "172313.328000", "172313.332000", "172313.334000", "172313.337000", "172313.341000", "172313.344000", "172313.347000", "172313.350000", "172313.353000", "172313.356000", "172313.359000", "172313.362000", "172313.377000", "172313.380000", "172313.383000", "172313.386000", "172313.389000", "172313.392000", "172313.395000", "172313.398000", "172353.298000", "172353.301000", "172353.304000", "172353.307000", "172353.310000", "172353.313000", "172353.316000", "172353.319000", "172353.322000", "172353.325000", "172353.328000", "172353.331000", "172353.334000", "172353.337000", "172353.340000", "172353.343000", "172353.346000", "172353.353000", "172353.357000", "172353.359000", "172353.362000", "172353.365000", "172353.368000", "172353.371000", "172353.374000", "172353.377000", "172353.380000", "172433.298000", "172433.301000", "172433.304000", "172433.307000", "172433.310000", "172433.313000", "172433.316000", "172433.319000", "172433.322000", "172433.325000", "172433.328000", "172433.332000", "172433.335000", "172433.337000", "172433.340000", "172433.344000", "172433.347000", "172433.349000", "172433.352000", "172433.361000", "172433.364000", "172433.367000", "172433.370000", "172433.374000", "172433.376000", "172433.379000", "172513.298000", "172513.301000", "172513.304000", "172513.307000", "172513.310000", "172513.313000", "172513.330000", "172513.334000", "172513.337000", "172513.340000", "172513.343000", "172513.346000", "172513.349000", "172513.352000", "172513.355000", "172513.358000", "172513.361000", "172513.364000", "172513.367000", "172513.370000", "172513.373000", "172513.376000", "172513.379000", "172513.382000", "172513.385000", "172513.388000", "172513.391000", "172553.298000", "172553.301000", "172553.304000", "172553.307000", "172553.310000", "172553.313000", "172553.316000", "172553.319000", "172553.322000", "172553.325000", "172553.328000", "172553.331000", "172553.334000", "172553.337000", "172553.340000", "172553.343000", "172553.346000", "172553.349000", "172553.352000", "172553.355000", "172553.358000", "172553.361000", "172553.364000", "172553.367000", "172553.370000", "172553.373000", "172553.376000", "172633.298000", "172633.301000", "172633.304000", "172633.307000", "172633.310000", "172633.313000", "172633.316000", "172633.319000", "172633.322000", "172633.325000", "172633.328000", "172633.331000", "172633.334000", "172633.337000", "172633.340000", "172633.344000", "172633.347000", "172633.350000", "172633.352000", "172633.356000", "172633.358000", "172633.361000", "172633.364000", "172633.367000", "172633.370000", "172633.373000", "172636.551000", "172636.554000", "172636.557000"],
      "InstanceCreationTime": ["172313.303000", "172313.307000", "172313.310000", "172313.313000", "172313.316000", "172313.319000", "172313.322000", "172313.325000", "172313.328000", "172313.332000", "172313.334000", "172313.337000", "172313.341000", "172313.344000", "172313.347000", "172313.350000", "172313.353000", "172313.356000", "172313.359000", "172313.362000", "172313.377000", "172313.380000", "172313.383000", "172313.386000", "172313.389000", "172313.392000", "172313.395000", "172313.398000", "172353.298000", "172353.301000", "172353.304000", "172353.307000", "172353.310000", "172353.313000", "172353.316000", "172353.319000", "172353.322000", "172353.325000", "172353.328000", "172353.331000", "172353.334000", "172353.337000", "172353.340000", "172353.343000", "172353.346000", "172353.353000", "172353.357000", "172353.359000", "172353.362000", "172353.365000", "172353.368000", "172353.371000", "172353.374000", "172353.377000", "172353.380000", "172433.298000", "172433.301000", "172433.304000", "172433.307000", "172433.310000", "172433.313000", "172433.316000", "172433.319000", "172433.322000", "172433.325000", "172433.328000", "172433.332000", "172433.335000", "172433.337000", "172433.340000", "172433.344000", "172433.347000", "172433.349000", "172433.352000", "172433.361000", "172433.364000", "172433.367000", "172433.370000", "172433.374000", "172433.376000", "172433.379000", "172513.298000", "172513.301000", "172513.304000", "172513.307000", "172513.310000", "172513.313000", "172513.330000", "172513.334000", "172513.337000", "172513.340000", "172513.343000", "172513.346000", "172513.349000", "172513.352000", "172513.355000", "172513.358000", "172513.361000", "172513.364000", "172513.367000", "172513.370000", "172513.373000", "172513.376000", "172513.379000", "172513.382000", "172513.385000", "172513.388000", "172513.391000", "172553.298000", "172553.301000", "172553.304000", "172553.307000", "172553.310000", "172553.313000", "172553.316000", "172553.319000", "172553.322000", "172553.325000", "172553.328000", "172553.331000", "172553.334000", "172553.337000", "172553.340000", "172553.343000", "172553.346000", "172553.349000", "172553.352000", "172553.355000", "172553.358000", "172553.361000", "172553.364000", "172553.367000", "172553.370000", "172553.373000", "172553.376000", "172633.298000", "172633.301000", "172633.304000", "172633.307000", "172633.310000", "172633.313000", "172633.316000", "172633.319000", "172633.322000", "172633.325000", "172633.328000", "172633.331000", "172633.334000", "172633.337000", "172633.340000", "172633.344000", "172633.347000", "172633.350000", "172633.352000", "172633.356000", "172633.358000", "172633.361000", "172633.364000", "172633.367000", "172633.370000", "172633.373000", "172636.551000", "172636.554000", "172636.557000"],
      "InstanceNumber": [1, 2, 3, 4, 5, 6, 7, 8, 9, 10, 11, 12, 13, 14, 15, 16, 17, 18, 19, 20, 21, 22, 23, 24, 25, 26, 27, 28, 29, 30, 31, 32, 33, 34, 35, 36, 37, 38, 39, 40, 41, 42, 43, 44, 45, 46, 47, 48, 49, 50, 51, 52, 53, 54, 55, 56, 57, 58, 59, 60, 61, 62, 63, 64, 65, 66, 67, 68, 69, 70, 71, 72, 73, 74, 75, 76, 77, 78, 79, 80, 81, 82, 83, 84, 85, 86, 87, 88, 89, 90, 91, 92, 93, 94, 95, 96, 97, 98, 99, 100, 101, 102, 103, 104, 105, 106, 107, 108, 109, 110, 111, 112, 113, 114, 115, 116, 117, 118, 119, 120, 121, 122, 123, 124, 125, 126, 127, 128, 129, 130, 131, 132, 133, 134, 135, 136, 137, 138, 139, 140, 141, 142, 143, 144, 145, 146, 147, 148, 149, 150, 151, 152, 153, 154, 155, 156, 157, 158, 159, 160, 161, 162, 163, 164],
      "LargestImagePixelValue": [2864, 2940, 3149, 2751, 3056, 3200, 3014, 2974, 2943, 2966, 2808, 2893, 2858, 2947, 3034, 2970, 2966, 2862, 2961, 2970, 2982, 3023, 2724, 2639, 2876, 2915, 2948, 2956, 2984, 3042, 2995, 3003, 3011, 3028, 3004, 2970, 2770, 2828, 3023, 3030, 2979, 2794, 2696, 2648, 2580, 2688, 2688, 2738, 2737, 2694, 2720, 2699, 2598, 2730, 2619, 2876, 2820, 2834, 2775, 2820, 2741, 2831, 2947, 2837, 2781, 2722, 2821, 2251, 2740, 2266, 2477, 2406, 2354, 2408, 2457, 2463, 2436, 2459, 2462, 2461, 2453, 2476, 2426, 2437, 2460, 2465, 2443, 2437, 2448, 2442, 2430, 2437, 2442, 2498, 2497, 2492, 2557, 2586, 2540, 2551, 2634, 2519, 2529, 2499, 2510, 2519, 2467, 2456, 2440, 2533, 2473, 2431, 2413, 2388, 2445, 2411, 2465, 2452, 2416, 2566, 2401, 2427, 2403, 2294, 2551, 2518, 2543, 2533, 2381, 2483, 2478, 2526, 2533, 2520, 2593, 2464, 2526, 2502, 2446, 2542, 2620, 2572, 2551, 2524, 2569, 2580, 2563, 2534, 2529, 2513, 2590, 2550, 2526, 2531, 2288, 2744, 2638, 2590, 2508, 2615, 2579, 2546, 2558, 2586],
      "WindowCenter": [724.0, 712.0, 709.0, 718.0, 720.0, 731.0, 727.0, 726.0, 712.0, 728.0, 725.0, 721.0, 724.0, 728.0, 728.0, 729.0, 730.0, 730.0, 731.0, 731.0, 731.0, 729.0, 693.0, 717.0, 728.0, 729.0, 729.0, 729.0, 729.0, 729.0, 728.0, 728.0, 729.0, 729.0, 729.0, 727.0, 726.0, 726.0, 726.0, 726.0, 693.0, 713.0, 714.0, 713.0, 711.0, 711.0, 711.0, 711.0, 713.0, 714.0, 714.0, 714.0, 712.0, 712.0, 711.0, 713.0, 713.0, 714.0, 713.0, 714.0, 713.0, 713.0, 714.0, 712.0, 712.0, 712.0, 713.0, 670.0, 685.0, 682.0, 698.0, 697.0, 697.0, 697.0, 698.0, 698.0, 699.0, 699.0, 699.0, 699.0, 699.0, 698.0, 697.0, 697.0, 698.0, 698.0, 697.0, 697.0, 695.0, 696.0, 696.0, 695.0, 693.0, 695.0, 695.0, 695.0, 695.0, 695.0, 695.0, 695.0, 696.0, 697.0, 698.0, 699.0, 699.0, 699.0, 699.0, 699.0, 697.0, 694.0, 699.0, 697.0, 697.0, 696.0, 696.0, 696.0, 697.0, 697.0, 697.0, 699.0, 698.0, 698.0, 697.0, 689.0, 680.0, 696.0, 700.0, 700.0, 700.0, 700.0, 699.0, 698.0, 698.0, 699.0, 701.0, 699.0, 700.0, 700.0, 700.0, 701.0, 691.0, 702.0, 701.0, 702.0, 702.0, 700.0, 700.0, 699.0, 700.0, 700.0, 699.0, 700.0, 699.0, 699.0, 690.0, 696.0, 699.0, 698.0, 694.0, 700.0, 697.0, 697.0, 697.0, 698.0],
      "WindowWidth": [1575.0, 1542.0, 1534.0, 1559.0, 1565.0, 1597.0, 1584.0, 1582.0, 1545.0, 1586.0, 1580.0, 1567.0, 1577.0, 1586.0, 1586.0, 1590.0, 1592.0, 1593.0, 1595.0, 1596.0, 1596.0, 1589.0, 1493.0, 1554.0, 1586.0, 1588.0, 1588.0, 1589.0, 1590.0, 1590.0, 1586.0, 1587.0, 1589.0, 1589.0, 1589.0, 1585.0, 1580.0, 1580.0, 1582.0, 1582.0, 1494.0, 1544.0, 1548.0, 1543.0, 1539.0, 1539.0, 1539.0, 1539.0, 1544.0, 1546.0, 1546.0, 1545.0, 1541.0, 1542.0, 1539.0, 1545.0, 1544.0, 1546.0, 1545.0, 1547.0, 1545.0, 1545.0, 1545.0, 1542.0, 1540.0, 1542.0, 1543.0, 1433.0, 1467.0, 1461.0, 1502.0, 1497.0, 1498.0, 1499.0, 1502.0, 1502.0, 1504.0, 1505.0, 1504.0, 1504.0, 1503.0, 1501.0, 1499.0, 1499.0, 1501.0, 1501.0, 1499.0, 1499.0, 1493.0, 1497.0, 1496.0, 1494.0, 1489.0, 1494.0, 1494.0, 1493.0, 1492.0, 1493.0, 1493.0, 1493.0, 1496.0, 1498.0, 1501.0, 1503.0, 1503.0, 1504.0, 1503.0, 1503.0, 1498.0, 1491.0, 1503.0, 1499.0, 1497.0, 1496.0, 1497.0, 1496.0, 1497.0, 1499.0, 1500.0, 1504.0, 1500.0, 1500.0, 1499.0, 1478.0, 1459.0, 1499.0, 1507.0, 1508.0, 1506.0, 1507.0, 1503.0, 1502.0, 1502.0, 1504.0, 1508.0, 1505.0, 1506.0, 1508.0, 1506.0, 1509.0, 1482.0, 1514.0, 1510.0, 1512.0, 1512.0, 1508.0, 1506.0, 1505.0, 1507.0, 1506.0, 1504.0, 1506.0, 1504.0, 1504.0, 1481.0, 1495.0, 1503.0, 1502.0, 1491.0, 1507.0, 1499.0, 1499.0, 1500.0, 1501.0]
    },
    "slices": {}
  }
}