{
  "AcquisitionMatrixPE": 72,
  "AcquisitionNumber": 1,
  "AcquisitionTime": "17:41:23.420000",
  "BandwidthPerPixelPhaseEncode": 17.943,
  "BaseResolution": 96,
  "BodyPartExamined": "BRAIN",
  "CoilCombinationMethod": "Sum of Squares",
  "ConsistencyInfo": "N4_VE11C_LATEST_20160120",
  "ConversionSoftware": "dcm2niix",
  "ConversionSoftwareVersion": "v1.0.20211006",
  "DerivedVendorReportedEchoSpacing": 0.000552897,
  "DeviceSerialNumber": "166011",
  "EchoTime": 0.03,
  "EchoTrainLength": 58,
  "EffectiveEchoSpacing": 0.000580542,
  "FlipAngle": 62,
  "ImageOrientationPatientDICOM": [0.997987, 0.0613091, 0.0162327, -0.0599905, 0.995596, -0.0720356],
  "ImageType": [
    "ORIGINAL",
    "PRIMARY",
    "M",
    "ND",
    "MOSAIC"
],
  "ImagingFrequency": 123.259,
  "InPlanePhaseEncodingDirectionDICOM": "COL",
  "InstitutionAddress": "West 130th Street 610,NY,NYC,US,10025",
  "InstitutionName": "MBBI",
  "MRAcquisitionType": "2D",
  "MagneticFieldStrength": 3,
  "Manufacturer": "Siemens",
  "ManufacturersModelName": "Prisma",
  "Modality": "MR",
  "MultibandAccelerationFactor": 3,
  "PartialFourier": 0.75,
  "PatientPosition": "HFS",
  "PercentPhaseFOV": 100,
  "PercentSampling": 75,
  "PhaseEncodingDirection": "j-",
  "PhaseEncodingSteps": 58,
  "PhaseOversampling": 0.05,
  "PhaseResolution": 0.75,
  "PixelBandwidth": 2265,
  "ProcedureStepDescription": "White^Word_recognition",
  "ProtocolName": "func_language_run3",
  "PulseSequenceDetails": "%SiemensSeq%\\ep2d_bold",
  "ReceiveCoilActiveElements": "HC1-7",
  "ReceiveCoilName": "HeadNeck_64",
  "ReconMatrixPE": 96,
  "RefLinesPE": 40,
  "RepetitionTime": 1.5,
  "SAR": 0.0420128,
  "ScanOptions": "PFP\\FS",
  "ScanningSequence": "EP",
  "SequenceName": "*epfid2d1_72",
  "SequenceVariant": "SK\\OSP",
  "SeriesDescription": "func_language_run3",
  "SeriesNumber": 13,
  "ShimSetting": [-1131, -1356, 701, 709, -53, -48, -13, 4],
  "SliceThickness": 2,
  "SliceTiming": [1.0775, 0, 0.74, 0.0675, 0.8075, 0.135, 0.875, 0.2025, 0.9425, 0.27, 1.01, 0.405, 1.145, 0.47, 1.21, 0.5375, 1.2775, 0.605, 1.345, 0.6725, 1.4125, 0.3375, 1.0775, 0, 0.74, 0.0675, 0.8075, 0.135, 0.875, 0.2025, 0.9425, 0.27, 1.01, 0.405, 1.145, 0.47, 1.21, 0.5375, 1.2775, 0.605, 1.345, 0.6725, 1.4125, 0.3375, 1.0775, 0, 0.74, 0.0675, 0.8075, 0.135, 0.875, 0.2025, 0.9425, 0.27, 1.01, 0.405, 1.145, 0.47, 1.21, 0.5375, 1.2775, 0.605, 1.345, 0.6725, 1.4125, 0.3375],
  "SoftwareVersions": "syngo MR E11",
  "SpacingBetweenSlices": 2,
  "StationName": "AWP166011",
  "TaskName": "langLoc",
  "TotalReadoutTime": 0.0551515,
  "TxRefAmp": 214.028,
  "dcmmeta_affine": [
    [-1.9959735870361328, -0.11998108774423599, 0.04115527868270874, 100.94961547851562],
    [-0.1226181834936142, 1.9911925792694092, -0.14183363318443298, -60.2267951965332],
    [0.0324653685092926, 0.1440712809562683, 1.9945399761199951, -55.23643493652344],
    [0.0, 0.0, 0.0, 1.0]
],
  "dcmmeta_reorient_transform": [
    [0.0, -1.0, 0.0, 95.0],
    [1.0, 0.0, 0.0, 0.0],
    [0.0, 0.0, 1.0, 0.0],
    [0.0, 0.0, 0.0, 1.0]
],
  "dcmmeta_shape": [96, 96, 66, 239],
  "dcmmeta_slice_dim": 2,
  "dcmmeta_version": 0.6,
  "global": {
    "const": {
      "AcquisitionMatrix": [96, 0, 0, 72],
      "AngioFlag": "N",
      "BitsAllocated": 16,
      "BitsStored": 12,
      "BodyPartExamined": "BRAIN",
      "Columns": 864,
      "EchoNumbers": 1,
      "EchoTime": 30.0,
      "EchoTrainLength": 58,
      "FlipAngle": 62.0,
      "HighBit": 11,
      "ImageOrientationPatient": [0.99798682127951, 0.06130909007303, 0.01623268390715, -0.0599905433265, 0.99559630407282, -0.0720356441488],
      "ImagePositionPatient": [-809.93255146296, -940.63984376345, 1.3070117381782],
      "ImageType": [
        "ORIGINAL",
        "PRIMARY",
        "M",
        "ND",
        "MOSAIC"
],
      "ImagedNucleus": "1H",
      "ImagingFrequency": 123.259439,
      "InPlanePhaseEncodingDirection": "COL",
      "MRAcquisitionType": "2D",
      "MagneticFieldStrength": 3.0,
      "Manufacturer": "SIEMENS",
      "ManufacturerModelName": "Prisma",
      "Modality": "MR",
      "NumberOfAverages": 1.0,
      "NumberOfPhaseEncodingSteps": 58,
      "PercentPhaseFieldOfView": 100.0,
      "PercentSampling": 75.0,
      "PerformedProcedureStepStartTime": "165018.272000",
      "PhotometricInterpretation": "MONOCHROME2",
      "PixelBandwidth": 2265.0,
      "PixelRepresentation": 0,
      "PixelSpacing": [2.0, 2.0],
      "ProtocolName": "func_language_run3",
      "RepetitionTime": 1500.0,
      "Rows": 864,
      "SAR": 0.04201281534909,
      "SamplesPerPixel": 1,
      "ScanOptions": [
        "PFP",
        "FS"
],
      "ScanningSequence": "EP",
      "SequenceName": "*epfid2d1_72",
      "SequenceVariant": [
        "SK",
        "OSP"
],
      "SeriesDescription": "func_language_run3",
      "SeriesNumber": 13,
      "SeriesTime": "174153.299000",
      "SliceLocation": -48.737238792968,
      "SliceThickness": 2.0,
      "SmallestImagePixelValue": 0,
      "SoftwareVersions": "syngo MR E11",
      "SpacingBetweenSlices": 2.0000000214904,
      "SpecificCharacterSet": "ISO_IR 100",
      "StudyID": "3",
      "StudyTime": "165018.224000",
      "TransmitCoilName": "Body",
      "VariableFlipAngleFlag": "N",
      "WindowCenterWidthExplanation": "Algo1",
      "dBdt": 0.0},
    "slices": {}
  },
  "time": {
    "samples": {
      "AcquisitionNumber": [1, 2, 3, 4, 5, 6, 7, 8, 9, 10, 11, 12, 13, 14, 15, 16, 17, 18, 19, 20, 21, 22, 23, 24, 25, 26, 27, 28, 29, 30, 31, 32, 33, 34, 35, 36, 37, 38, 39, 40, 41, 42, 43, 44, 45, 46, 47, 48, 49, 50, 51, 52, 53, 54, 55, 56, 57, 58, 59, 60, 61, 62, 63, 64, 65, 66, 67, 68, 69, 70, 71, 72, 73, 74, 75, 76, 77, 78, 79, 80, 81, 82, 83, 84, 85, 86, 87, 88, 89, 90, 91, 92, 93, 94, 95, 96, 97, 98, 99, 100, 101, 102, 103, 104, 105, 106, 107, 108, 109, 110, 111, 112, 113, 114, 115, 116, 117, 118, 119, 120, 121, 122, 123, 124, 125, 126, 127, 128, 129, 130, 131, 132, 133, 134, 135, 136, 137, 138, 139, 140, 141, 142, 143, 144, 145, 146, 147, 148, 149, 150, 151, 152, 153, 154, 155, 156, 157, 158, 159, 160, 161, 162, 163, 164, 165, 166, 167, 168, 169, 170, 171, 172, 173, 174, 175, 176, 177, 178, 179, 180, 181, 182, 183, 184, 185, 186, 187, 188, 189, 190, 191, 192, 193, 194, 195, 196, 197, 198, 199, 200, 201, 202, 203, 204, 205, 206, 207, 208, 209, 210, 211, 212, 213, 214, 215, 216, 217, 218, 219, 220, 221, 222, 223, 224, 225, 226, 227, 228, 229, 230, 231, 232, 233, 234, 235, 236, 237, 238, 239],
      "AcquisitionTime": ["174123.420000", "174124.920000", "174126.420000", "174127.920000", "174129.420000", "174130.920000", "174132.420000", "174133.920000", "174135.420000", "174136.920000", "174138.420000", "174139.920000", "174141.420000", "174142.920000", "174144.420000", "174145.920000", "174147.420000", "174148.920000", "174150.420000", "174151.920000", "174153.420000", "174154.920000", "174156.420000", "174157.920000", "174159.420000", "174200.920000", "174202.420000", "174203.920000", "174205.420000", "174206.920000", "174208.420000", "174209.920000", "174211.420000", "174212.920000", "174214.420000", "174215.920000", "174217.420000", "174218.920000", "174220.420000", "174221.920000", "174223.420000", "174224.920000", "174226.420000", "174227.920000", "174229.420000", "174230.920000", "174232.420000", "174233.920000", "174235.420000", "174236.920000", "174238.420000", "174239.920000", "174241.420000", "174242.920000", "174244.420000", "174245.920000", "174247.420000", "174248.920000", "174250.420000", "174251.920000", "174253.420000", "174254.920000", "174256.420000", "174257.920000", "174259.420000", "174300.920000", "174302.420000", "174303.920000", "174305.420000", "174306.920000", "174308.420000", "174309.920000", "174311.420000", "174312.920000", "174314.420000", "174315.920000", "174317.420000", "174318.920000", "174320.420000", "174321.920000", "174323.420000", "174324.920000", "174326.420000", "174327.920000", "174329.420000", "174330.920000", "174332.420000", "174333.920000", "174335.420000", "174336.920000", "174338.420000", "174339.920000", "174341.420000", "174342.920000", "174344.420000", "174345.920000", "174347.420000", "174348.920000", "174350.420000", "174351.920000", "174353.420000", "174354.920000", "174356.420000", "174357.920000", "174359.420000", "174400.920000", "174402.420000", "174403.920000", "174405.420000", "174406.920000", "174408.420000", "174409.920000", "174411.420000", "174412.920000", "174414.420000", "174415.920000", "174417.420000", "174418.920000", "174420.420000", "174421.920000", "174423.420000", "174424.920000", "174426.420000", "174427.920000", "174429.420000", "174430.920000", "174432.420000", "174433.920000", "174435.420000", "174436.920000", "174438.420000", "174439.920000", "174441.420000", "174442.920000", "174444.420000", "174445.920000", "174447.420000", "174448.920000", "174450.420000", "174451.920000", "174453.420000", "174454.920000", "174456.420000", "174457.920000", "174459.420000", "174500.920000", "174502.420000", "174503.920000", "174505.420000", "174506.920000", "174508.420000", "174509.920000", "174511.420000", "174512.920000", "174514.420000", "174515.920000", "174517.420000", "174518.920000", "174520.420000", "174521.920000", "174523.420000", "174524.920000", "174526.420000", "174527.920000", "174529.420000", "174530.920000", "174532.420000", "174533.920000", "174535.420000", "174536.920000", "174538.420000", "174539.920000", "174541.420000", "174542.920000", "174544.420000", "174545.920000", "174547.420000", "174548.920000", "174550.420000", "174551.920000", "174553.420000", "174554.920000", "174556.420000", "174557.920000", "174559.420000", "174600.920000", "174602.420000", "174603.920000", "174605.420000", "174606.920000", "174608.420000", "174609.920000", "174611.420000", "174612.920000", "174614.420000", "174615.920000", "174617.420000", "174618.920000", "174620.420000", "174621.920000", "174623.420000", "174624.920000", "174626.420000", "174627.920000", "174629.420000", "174630.920000", "174632.420000", "174633.920000", "174635.420000", "174636.920000", "174638.420000", "174639.920000", "174641.420000", "174642.920000", "174644.420000", "174645.920000", "174647.420000", "174648.920000", "174650.420000", "174651.920000", "174653.420000", "174654.920000", "174656.420000", "174657.920000", "174659.420000", "174700.920000", "174702.420000", "174703.920000", "174705.420000", "174706.920000", "174708.420000", "174709.920000", "174711.420000", "174712.920000", "174714.420000", "174715.920000", "174717.420000", "174718.920000", "174720.420000"],
      "ContentTime": ["174153.303000", "174153.307000", "174153.310000", "174153.313000", "174153.316000", "174153.319000", "174153.322000", "174153.335000", "174153.338000", "174153.341000", "174153.350000", "174153.354000", "174153.357000", "174153.360000", "174153.366000", "174153.369000", "174153.372000", "174153.375000", "174153.378000", "174153.381000", "174233.298000", "174233.301000", "174233.305000", "174233.308000", "174233.311000", "174233.314000", "174233.317000", "174233.321000", "174233.324000", "174233.327000", "174233.339000", "174233.342000", "174233.345000", "174233.348000", "174233.351000", "174233.354000", "174233.357000", "174233.360000", "174233.363000", "174233.366000", "174233.369000", "174233.372000", "174233.375000", "174233.378000", "174233.381000", "174233.384000", "174313.298000", "174313.301000", "174313.304000", "174313.307000", "174313.318000", "174313.321000", "174313.324000", "174313.327000", "174313.330000", "174313.333000", "174313.336000", "174313.339000", "174313.342000", "174313.345000", "174313.348000", "174313.351000", "174313.354000", "174313.357000", "174313.360000", "174313.363000", "174313.366000", "174313.371000", "174313.374000", "174313.377000", "174313.380000", "174313.383000", "174313.386000", "174353.298000", "174353.301000", "174353.304000", "174353.307000", "174353.310000", "174353.314000", "174353.317000", "174353.320000", "174353.323000", "174353.326000", "174353.329000", "174353.332000", "174353.334000", "174353.338000", "174353.341000", "174353.344000", "174353.346000", "174353.350000", "174353.352000", "174353.355000", "174353.358000", "174353.361000", "174353.364000", "174353.367000", "174353.370000", "174353.373000", "174353.377000", "174433.298000", "174433.301000", "174433.304000", "174433.307000", "174433.317000", "174433.320000", "174433.323000", "174433.326000", "174433.329000", "174433.332000", "174433.335000", "174433.338000", "174433.341000", "174433.344000", "174433.347000", "174433.350000", "174433.353000", "174433.356000", "174433.359000", "174433.362000", "174433.365000", "174433.368000", "174433.371000", "174433.374000", "174433.395000", "174433.398000", "174513.298000", "174513.301000", "174513.304000", "174513.307000", "174513.310000", "174513.313000", "174513.316000", "174513.319000", "174513.322000", "174513.325000", "174513.328000", "174513.331000", "174513.334000", "174513.337000", "174513.341000", "174513.343000", "174513.346000", "174513.349000", "174513.353000", "174513.356000", "174513.358000", "174513.361000", "174513.365000", "174513.368000", "174513.371000", "174513.374000", "174513.377000", "174553.297000", "174553.300000", "174553.303000", "174553.306000", "174553.309000", "174553.313000", "174553.315000", "174553.318000", "174553.321000", "174553.325000", "174553.328000", "174553.331000", "174553.334000", "174553.337000", "174553.340000", "174553.343000", "174553.346000", "174553.349000", "174553.352000", "174553.355000", "174553.358000", "174553.361000", "174553.364000", "174553.367000", "174553.370000", "174553.373000", "174553.376000", "174633.298000", "174633.301000", "174633.304000", "174633.307000", "174633.310000", "174633.313000", "174633.317000", "174633.320000", "174633.323000", "174633.326000", "174633.329000", "174633.332000", "174633.335000", "174633.338000", "174633.341000", "174633.344000", "174633.347000", "174633.350000", "174633.353000", "174633.356000", "174633.359000", "174633.362000", "174633.365000", "174633.368000", "174633.371000", "174633.374000", "174713.298000", "174713.301000", "174713.304000", "174713.307000", "174713.310000", "174713.313000", "174713.317000", "174713.319000", "174713.322000", "174713.325000", "174713.329000", "174713.332000", "174713.335000", "174713.338000", "174713.341000", "174713.344000", "174713.347000", "174713.350000", "174713.353000", "174713.356000", "174713.359000", "174713.362000", "174713.365000", "174713.368000", "174713.371000", "174713.374000", "174713.377000", "174721.480000", "174721.483000", "174721.486000", "174721.489000", "174721.492000", "174721.495000"],
      "InstanceCreationTime": ["174153.303000", "174153.307000", "174153.310000", "174153.313000", "174153.316000", "174153.319000", "174153.322000", "174153.335000", "174153.338000", "174153.341000", "174153.350000", "174153.354000", "174153.357000", "174153.360000", "174153.366000", "174153.369000", "174153.372000", "174153.375000", "174153.378000", "174153.381000", "174233.298000", "174233.301000", "174233.305000", "174233.308000", "174233.311000", "174233.314000", "174233.317000", "174233.321000", "174233.324000", "174233.327000", "174233.339000", "174233.342000", "174233.345000", "174233.348000", "174233.351000", "174233.354000", "174233.357000", "174233.360000", "174233.363000", "174233.366000", "174233.369000", "174233.372000", "174233.375000", "174233.378000", "174233.381000", "174233.384000", "174313.298000", "174313.301000", "174313.304000", "174313.307000", "174313.318000", "174313.321000", "174313.324000", "174313.327000", "174313.330000", "174313.333000", "174313.336000", "174313.339000", "174313.342000", "174313.345000", "174313.348000", "174313.351000", "174313.354000", "174313.357000", "174313.360000", "174313.363000", "174313.366000", "174313.371000", "174313.374000", "174313.377000", "174313.380000", "174313.383000", "174313.386000", "174353.298000", "174353.301000", "174353.304000", "174353.307000", "174353.310000", "174353.314000", "174353.317000", "174353.320000", "174353.323000", "174353.326000", "174353.329000", "174353.332000", "174353.334000", "174353.338000", "174353.341000", "174353.344000", "174353.346000", "174353.350000", "174353.352000", "174353.355000", "174353.358000", "174353.361000", "174353.364000", "174353.367000", "174353.370000", "174353.373000", "174353.377000", "174433.298000", "174433.301000", "174433.304000", "174433.307000", "174433.317000", "174433.320000", "174433.323000", "174433.326000", "174433.329000", "174433.332000", "174433.335000", "174433.338000", "174433.341000", "174433.344000", "174433.347000", "174433.350000", "174433.353000", "174433.356000", "174433.359000", "174433.362000", "174433.365000", "174433.368000", "174433.371000", "174433.374000", "174433.395000", "174433.398000", "174513.298000", "174513.301000", "174513.304000", "174513.307000", "174513.310000", "174513.313000", "174513.316000", "174513.319000", "174513.322000", "174513.325000", "174513.328000", "174513.331000", "174513.334000", "174513.337000", "174513.341000", "174513.343000", "174513.346000", "174513.349000", "174513.353000", "174513.356000", "174513.358000", "174513.361000", "174513.365000", "174513.368000", "174513.371000", "174513.374000", "174513.377000", "174553.297000", "174553.300000", "174553.303000", "174553.306000", "174553.309000", "174553.313000", "174553.315000", "174553.318000", "174553.321000", "174553.325000", "174553.328000", "174553.331000", "174553.334000", "174553.337000", "174553.340000", "174553.343000", "174553.346000", "174553.349000", "174553.352000", "174553.355000", "174553.358000", "174553.361000", "174553.364000", "174553.367000", "174553.370000", "174553.373000", "174553.376000", "174633.298000", "174633.301000", "174633.304000", "174633.307000", "174633.310000", "174633.313000", "174633.317000", "174633.320000", "174633.323000", "174633.326000", "174633.329000", "174633.332000", "174633.335000", "174633.338000", "174633.341000", "174633.344000", "174633.347000", "174633.350000", "174633.353000", "174633.356000", "174633.359000", "174633.362000", "174633.365000", "174633.368000", "174633.371000", "174633.374000", "174713.298000", "174713.301000", "174713.304000", "174713.307000", "174713.310000", "174713.313000", "174713.317000", "174713.319000", "174713.322000", "174713.325000", "174713.329000", "174713.332000", "174713.335000", "174713.338000", "174713.341000", "174713.344000", "174713.347000", "174713.350000", "174713.353000", "174713.356000", "174713.359000", "174713.362000", "174713.365000", "174713.368000", "174713.371000", "174713.374000", "174713.377000", "174721.480000", "174721.483000", "174721.486000", "174721.489000", "174721.492000", "174721.495000"],
      "InstanceNumber": [1, 2, 3, 4, 5, 6, 7, 8, 9, 10, 11, 12, 13, 14, 15, 16, 17, 18, 19, 20, 21, 22, 23, 24, 25, 26, 27, 28, 29, 30, 31, 32, 33, 34, 35, 36, 37, 38, 39, 40, 41, 42, 43, 44, 45, 46, 47, 48, 49, 50, 51, 52, 53, 54, 55, 56, 57, 58, 59, 60, 61, 62, 63, 64, 65, 66, 67, 68, 69, 70, 71, 72, 73, 74, 75, 76, 77, 78, 79, 80, 81, 82, 83, 84, 85, 86, 87, 88, 89, 90, 91, 92, 93, 94, 95, 96, 97, 98, 99, 100, 101, 102, 103, 104, 105, 106, 107, 108, 109, 110, 111, 112, 113, 114, 115, 116, 117, 118, 119, 120, 121, 122, 123, 124, 125, 126, 127, 128, 129, 130, 131, 132, 133, 134, 135, 136, 137, 138, 139, 140, 141, 142, 143, 144, 145, 146, 147, 148, 149, 150, 151, 152, 153, 154, 155, 156, 157, 158, 159, 160, 161, 162, 163, 164, 165, 166, 167, 168, 169, 170, 171, 172, 173, 174, 175, 176, 177, 178, 179, 180, 181, 182, 183, 184, 185, 186, 187, 188, 189, 190, 191, 192, 193, 194, 195, 196, 197, 198, 199, 200, 201, 202, 203, 204, 205, 206, 207, 208, 209, 210, 211, 212, 213, 214, 215, 216, 217, 218, 219, 220, 221, 222, 223, 224, 225, 226, 227, 228, 229, 230, 231, 232, 233, 234, 235, 236, 237, 238, 239],
      "LargestImagePixelValue": [2612, 2496, 2666, 2564, 2273, 2322, 2290, 2401, 2378, 2326, 2228, 2460, 2353, 2387, 2372, 2361, 2370, 2311, 2372, 2357, 2369, 2360, 2363, 2358, 2329, 2372, 2243, 2262, 2262, 2288, 2296, 2301, 2272, 2263, 2277, 2314, 2297, 2318, 2433, 2982, 2675, 2624, 2296, 2488, 2341, 2277, 2315, 2314, 2289, 2461, 2176, 2688, 2575, 2541, 2187, 2586, 2432, 2422, 2398, 2517, 2524, 2372, 2432, 2169, 2493, 2342, 2314, 2311, 2332, 2404, 2438, 2420, 2484, 2435, 2424, 2300, 2380, 2442, 2466, 2475, 2477, 2416, 2424, 2416, 2447, 2422, 2455, 2443, 2201, 2994, 2544, 2447, 2486, 2499, 2440, 2441, 2368, 2384, 2351, 2286, 2252, 2293, 2270, 2382, 2314, 2378, 2332, 2362, 2336, 2349, 2417, 2376, 2419, 2385, 2452, 2371, 2411, 2316, 2546, 2804, 2531, 2527, 2471, 2364, 2377, 2373, 2369, 2428, 2376, 2374, 2389, 2397, 2347, 2299, 2265, 2508, 2487, 2375, 2390, 2407, 2364, 2282, 2529, 2406, 2299, 2306, 2294, 2292, 2300, 2347, 2271, 2357, 2241, 2200, 2580, 2378, 2322, 2584, 2523, 2543, 2530, 2514, 2523, 2535, 2510, 2376, 2323, 2311, 2506, 2514, 2403, 2514, 2494, 2449, 2435, 2440, 2426, 2477, 2416, 2408, 2730, 2591, 3100, 2600, 2360, 2435, 2401, 2443, 2368, 2462, 2358, 2370, 2425, 2413, 2394, 2468, 2431, 2478, 2411, 2409, 2446, 2487, 2451, 2469, 2440, 2545, 2439, 2570, 2513, 2524, 2518, 2438, 2382, 2599, 2580, 2530, 2491, 2485, 2477, 2507, 2476, 2505, 2470, 2471, 2416, 2460, 2470, 2458, 2462, 2512, 2470, 2443, 2352, 2214, 2620, 2663, 2425, 2583, 2554],
      "WindowCenter": [687.0, 696.0, 688.0, 680.0, 694.0, 692.0, 689.0, 689.0, 688.0, 689.0, 689.0, 692.0, 695.0, 697.0, 697.0, 696.0, 696.0, 696.0, 698.0, 697.0, 696.0, 695.0, 694.0, 695.0, 694.0, 695.0, 696.0, 696.0, 697.0, 697.0, 697.0, 696.0, 695.0, 695.0, 695.0, 696.0, 696.0, 679.0, 680.0, 699.0, 698.0, 696.0, 691.0, 693.0, 692.0, 691.0, 692.0, 692.0, 691.0, 683.0, 682.0, 693.0, 693.0, 689.0, 678.0, 688.0, 699.0, 695.0, 694.0, 694.0, 694.0, 694.0, 693.0, 681.0, 683.0, 690.0, 688.0, 687.0, 689.0, 689.0, 692.0, 690.0, 693.0, 692.0, 692.0, 691.0, 690.0, 692.0, 693.0, 693.0, 693.0, 693.0, 693.0, 694.0, 695.0, 695.0, 695.0, 694.0, 686.0, 701.0, 690.0, 697.0, 694.0, 694.0, 693.0, 691.0, 692.0, 691.0, 693.0, 687.0, 691.0, 690.0, 690.0, 690.0, 689.0, 690.0, 689.0, 690.0, 690.0, 690.0, 691.0, 692.0, 693.0, 693.0, 694.0, 694.0, 694.0, 682.0, 671.0, 702.0, 701.0, 701.0, 693.0, 693.0, 693.0, 693.0, 693.0, 693.0, 692.0, 693.0, 693.0, 695.0, 683.0, 689.0, 690.0, 692.0, 692.0, 690.0, 689.0, 685.0, 687.0, 687.0, 684.0, 687.0, 685.0, 686.0, 687.0, 689.0, 689.0, 690.0, 691.0, 693.0, 672.0, 668.0, 683.0, 692.0, 689.0, 688.0, 687.0, 688.0, 688.0, 688.0, 688.0, 688.0, 686.0, 666.0, 671.0, 680.0, 693.0, 690.0, 689.0, 688.0, 686.0, 688.0, 689.0, 690.0, 690.0, 691.0, 690.0, 673.0, 687.0, 696.0, 709.0, 704.0, 701.0, 701.0, 700.0, 700.0, 700.0, 701.0, 700.0, 698.0, 698.0, 698.0, 698.0, 699.0, 700.0, 702.0, 702.0, 702.0, 702.0, 702.0, 702.0, 703.0, 704.0, 703.0, 703.0, 704.0, 704.0, 703.0, 702.0, 700.0, 697.0, 701.0, 700.0, 700.0, 698.0, 697.0, 697.0, 697.0, 697.0, 697.0, 697.0, 697.0, 697.0, 698.0, 699.0, 699.0, 700.0, 702.0, 701.0, 700.0, 700.0, 682.0, 675.0, 697.0, 700.0, 702.0, 701.0],
      "WindowWidth": [1475.0, 1498.0, 1477.0, 1457.0, 1493.0, 1487.0, 1479.0, 1476.0, 1476.0, 1477.0, 1477.0, 1487.0, 1494.0, 1498.0, 1498.0, 1497.0, 1495.0, 1496.0, 1500.0, 1498.0, 1496.0, 1493.0, 1491.0, 1493.0, 1492.0, 1494.0, 1496.0, 1495.0, 1498.0, 1499.0, 1498.0, 1496.0, 1494.0, 1493.0, 1493.0, 1496.0, 1496.0, 1454.0, 1457.0, 1504.0, 1501.0, 1496.0, 1484.0, 1488.0, 1485.0, 1484.0, 1487.0, 1486.0, 1485.0, 1463.0, 1459.0, 1488.0, 1488.0, 1479.0, 1452.0, 1480.0, 1507.0, 1494.0, 1490.0, 1492.0, 1492.0, 1492.0, 1489.0, 1459.0, 1465.0, 1480.0, 1475.0, 1472.0, 1479.0, 1479.0, 1487.0, 1481.0, 1489.0, 1487.0, 1485.0, 1483.0, 1480.0, 1486.0, 1488.0, 1488.0, 1488.0, 1489.0, 1490.0, 1491.0, 1493.0, 1494.0, 1493.0, 1492.0, 1472.0, 1511.0, 1482.0, 1500.0, 1490.0, 1490.0, 1490.0, 1484.0, 1485.0, 1483.0, 1490.0, 1473.0, 1482.0, 1480.0, 1480.0, 1480.0, 1479.0, 1480.0, 1479.0, 1479.0, 1480.0, 1481.0, 1484.0, 1485.0, 1487.0, 1488.0, 1490.0, 1490.0, 1491.0, 1461.0, 1434.0, 1517.0, 1511.0, 1510.0, 1490.0, 1488.0, 1488.0, 1488.0, 1487.0, 1487.0, 1486.0, 1487.0, 1488.0, 1492.0, 1463.0, 1477.0, 1482.0, 1486.0, 1485.0, 1480.0, 1476.0, 1468.0, 1474.0, 1472.0, 1466.0, 1474.0, 1468.0, 1472.0, 1474.0, 1477.0, 1479.0, 1481.0, 1483.0, 1488.0, 1437.0, 1427.0, 1463.0, 1486.0, 1477.0, 1474.0, 1472.0, 1474.0, 1475.0, 1474.0, 1475.0, 1475.0, 1471.0, 1421.0, 1435.0, 1457.0, 1489.0, 1482.0, 1478.0, 1475.0, 1470.0, 1475.0, 1478.0, 1479.0, 1481.0, 1484.0, 1481.0, 1441.0, 1474.0, 1499.0, 1533.0, 1517.0, 1510.0, 1510.0, 1508.0, 1507.0, 1507.0, 1510.0, 1507.0, 1502.0, 1502.0, 1501.0, 1503.0, 1506.0, 1508.0, 1512.0, 1511.0, 1512.0, 1512.0, 1512.0, 1513.0, 1514.0, 1517.0, 1515.0, 1514.0, 1519.0, 1519.0, 1515.0, 1512.0, 1506.0, 1500.0, 1509.0, 1507.0, 1506.0, 1502.0, 1498.0, 1498.0, 1499.0, 1500.0, 1500.0, 1499.0, 1498.0, 1499.0, 1502.0, 1505.0, 1505.0, 1507.0, 1511.0, 1509.0, 1507.0, 1507.0, 1461.0, 1444.0, 1502.0, 1507.0, 1513.0, 1509.0]
    },
    "slices": {}
  }
}