{
  "AcquisitionMatrixPE": 70,
  "AcquisitionNumber": 1,
  "AcquisitionTime": "14:40:20.782500",
  "BaseResolution": 70,
  "BodyPartExamined": "BRAIN",
  "CoilCombinationMethod": "Sum of Squares",
  "ConsistencyInfo": "N4_VE11C_LATEST_20160120",
  "ConversionSoftware": "dcm2niix",
  "ConversionSoftwareVersion": "v1.0.20211006",
  "DeviceSerialNumber": "166011",
  "EchoNumber": 2,
  "EchoTime": 0.00738,
  "EchoTime1": 0.00492,
  "EchoTime2": 0.00738,
  "FlipAngle": 60,
  "ImageOrientationPatientDICOM": [
    0.997223,
    0.0236042,
    0.0706338,
    -0.00887669,
    0.979355,
    -0.201955
  ],
  "ImageType": [
    "ORIGINAL",
    "PRIMARY",
    "P",
    "ND",
    "PHASE"
  ],
  "ImagingFrequency": 123.259,
  "InPlanePhaseEncodingDirectionDICOM": "ROW",
  "InstitutionAddress": "West 130th Street 610,NY,NYC,US,10025",
  "InstitutionName": "MBBI",
  "IntendedFor": [
    "ses-1/func/sub-151_ses-1_task-catLoc_run-01_bold.nii.gz",
    "ses-1/func/sub-151_ses-1_task-catLoc_run-02_bold.nii.gz",
    "ses-1/func/sub-151_ses-1_task-vwfate_run-01_bold.nii.gz",
    "ses-1/func/sub-151_ses-1_task-vwfate_run-02_bold.nii.gz",
    "ses-1/func/sub-151_ses-1_task-vwfate_run-03_bold.nii.gz",
    "ses-1/func/sub-151_ses-1_task-vwfate_run-04_bold.nii.gz",
    "ses-1/func/sub-151_ses-1_task-vwfate_run-05_bold.nii.gz",
    "ses-1/func/sub-151_ses-1_task-vwfate_run-06_bold.nii.gz"
  ],
  "MRAcquisitionType": "2D",
  "MagneticFieldStrength": 3,
  "Manufacturer": "Siemens",
  "ManufacturersModelName": "Prisma",
  "MatrixCoilMode": "SENSE",
  "Modality": "MR",
  "PartialFourier": 1,
  "PatientPosition": "HFS",
  "PercentPhaseFOV": 100,
  "PercentSampling": 100,
  "PhaseEncodingDirection": "i",
  "PhaseEncodingSteps": 70,
  "PhaseResolution": 1,
  "PixelBandwidth": 595,
  "ProcedureStepDescription": "White^Word_recognition",
  "ProtocolName": "fmap_gre_field_mapping",
  "PulseSequenceDetails": "%SiemensSeq%\\gre_field_mapping",
  "ReceiveCoilActiveElements": "HC1-7",
  "ReceiveCoilName": "HeadNeck_64",
  "ReconMatrixPE": 70,
  "RepetitionTime": 0.52,
  "SAR": 0.095315,
  "ScanningSequence": "GR",
  "SequenceName": "*fm2d2r",
  "SequenceVariant": "SP",
  "SeriesDescription": "fmap_gre_field_mapping",
  "SeriesNumber": 17,
  "ShimSetting": [
    -1144,
    -1319,
    648,
    405,
    -61,
    -46,
    -54,
    -1
  ],
  "SliceThickness": 3,
  "SliceTiming": [
    0.26562,
    0,
    0.28125,
    0.01562,
    0.29688,
    0.03125,
    0.29688,
    0.04688,
    0.3125,
    0.0625,
    0.32812,
    0.0625,
    0.34375,
    0.07812,
    0.35938,
    0.09375,
    0.35938,
    0.10938,
    0.375,
    0.125,
    0.39062,
    0.125,
    0.40625,
    0.14062,
    0.42188,
    0.15625,
    0.42188,
    0.17188,
    0.4375,
    0.17188,
    0.45312,
    0.1875,
    0.46875,
    0.20312,
    0.48438,
    0.21875,
    0.48438,
    0.23438,
    0.5,
    0.23438,
    0.51562,
    0.25
  ],
  "SoftwareVersions": "syngo MR E11",
  "SpacingBetweenSlices": 3,
  "StationName": "AWP166011",
  "TxRefAmp": 242.786,
  "dcmmeta_affine": [
    [
      -2.991668939590454,
      -0.026630083099007607,
      0.22182750701904297,
      109.23919677734375
    ],
    [
      -0.07081259042024612,
      2.938063859939575,
      -0.6023015975952148,
      -63.93777084350586
    ],
    [
      0.21190142631530762,
      0.605864405632019,
      2.930530548095703,
      -93.37859344482422
    ],
    [
      0.0,
      0.0,
      0.0,
      1.0
    ]
  ],
  "dcmmeta_reorient_transform": [
    [
      0.0,
      -1.0,
      0.0,
      69.0
    ],
    [
      1.0,
      0.0,
      0.0,
      0.0
    ],
    [
      0.0,
      0.0,
      -1.0,
      41.0
    ],
    [
      0.0,
      0.0,
      0.0,
      1.0
    ]
  ],
  "dcmmeta_shape": [
    70,
    70,
    42
  ],
  "dcmmeta_slice_dim": 2,
  "dcmmeta_version": 0.6,
  "global": {
    "const": {
      "AcquisitionMatrix": [
        0,
        70,
        70,
        0
      ],
      "AcquisitionNumber": 1,
      "AngioFlag": "N",
      "BitsAllocated": 16,
      "BitsStored": 12,
      "BodyPartExamined": "BRAIN",
      "Columns": 70,
      "EchoNumbers": 2,
      "EchoTime": 7.38,
      "EchoTrainLength": 0,
      "FlipAngle": 60.0,
      "HighBit": 11,
      "ImageOrientationPatient": [
        0.99722299774212,
        0.02360419784157,
        0.07063380648436,
        -0.0088766942272,
        0.97935461499451,
        -0.2019548028361
      ],
      "ImageType": [
        "ORIGINAL",
        "PRIMARY",
        "P",
        "ND"
      ],
      "ImagedNucleus": "1H",
      "ImagingFrequency": 123.259424,
      "InPlanePhaseEncodingDirection": "ROW",
      "MRAcquisitionType": "2D",
      "MagneticFieldStrength": 3.0,
      "Manufacturer": "SIEMENS",
      "ManufacturerModelName": "Prisma",
      "Modality": "MR",
      "NumberOfAverages": 1.0,
      "NumberOfPhaseEncodingSteps": 70,
      "PercentPhaseFieldOfView": 100.0,
      "PercentSampling": 100.0,
      "PerformedProcedureStepStartTime": "132525.019000",
      "PhotometricInterpretation": "MONOCHROME2",
      "PixelBandwidth": 595.0,
      "PixelRepresentation": 0,
      "PixelSpacing": [
        3.0,
        3.0
      ],
      "ProtocolName": "fmap_gre_field_mapping",
      "RepetitionTime": 520.0,
      "RescaleIntercept": -4096.0,
      "RescaleSlope": 2.0,
      "RescaleType": "US",
      "Rows": 70,
      "SAR": 0.0953150426962,
      "SamplesPerPixel": 1,
      "ScanningSequence": "GR",
      "SequenceName": "*fm2d2r",
      "SequenceVariant": "SP",
      "SeriesDescription": "fmap_gre_field_mapping",
      "SeriesNumber": 17,
      "SeriesTime": "144133.377000",
      "SliceThickness": 3.0,
      "SoftwareVersions": "syngo MR E11",
      "SpacingBetweenSlices": 3.0,
      "SpecificCharacterSet": "ISO_IR 100",
      "StudyID": "1",
      "StudyTime": "132524.946000",
      "TransmitCoilName": "Body",
      "VariableFlipAngleFlag": "N",
      "WindowCenterWidthExplanation": "Algo1",
      "dBdt": 0.0
    },
    "slices": {
      "AcquisitionTime": [
        "144020.782500",
        "144020.522500",
        "144020.795000",
        "144020.535000",
        "144020.807500",
        "144020.547500",
        "144020.820000",
        "144020.560000",
        "144020.832500",
        "144020.572500",
        "144020.845000",
        "144020.585000",
        "144020.857500",
        "144020.597500",
        "144020.870000",
        "144020.610000",
        "144020.882500",
        "144020.622500",
        "144020.895000",
        "144020.635000",
        "144020.907500",
        "144020.647500",
        "144020.917500",
        "144020.657500",
        "144020.930000",
        "144020.670000",
        "144020.942500",
        "144020.682500",
        "144020.955000",
        "144020.695000",
        "144020.967500",
        "144020.707500",
        "144020.980000",
        "144020.720000",
        "144020.992500",
        "144020.732500",
        "144021.005000",
        "144020.745000",
        "144021.017500",
        "144020.757500",
        "144021.030000",
        "144020.770000"
      ],
      "ContentTime": [
        "144133.458000",
        "144133.382000",
        "144133.460000",
        "144133.384000",
        "144133.462000",
        "144133.386000",
        "144133.465000",
        "144133.388000",
        "144133.467000",
        "144133.390000",
        "144133.469000",
        "144133.392000",
        "144133.471000",
        "144133.395000",
        "144133.473000",
        "144133.397000",
        "144133.475000",
        "144133.399000",
        "144133.477000",
        "144133.401000",
        "144133.479000",
        "144133.403000",
        "144133.481000",
        "144133.405000",
        "144133.483000",
        "144133.407000",
        "144133.485000",
        "144133.409000",
        "144133.487000",
        "144133.411000",
        "144133.489000",
        "144133.413000",
        "144133.492000",
        "144133.415000",
        "144133.494000",
        "144133.450000",
        "144133.496000",
        "144133.452000",
        "144133.498000",
        "144133.454000",
        "144133.500000",
        "144133.456000"
      ],
      "CsaImage.ICE_Dims": [
        "X_2_1_1_1_1_1_22_1_1_1_1_110",
        "X_2_1_1_1_1_1_1_1_1_2_1_110",
        "X_2_1_1_1_1_1_23_1_1_3_1_110",
        "X_2_1_1_1_1_1_2_1_1_4_1_110",
        "X_2_1_1_1_1_1_24_1_1_5_1_110",
        "X_2_1_1_1_1_1_3_1_1_6_1_110",
        "X_2_1_1_1_1_1_25_1_1_7_1_110",
        "X_2_1_1_1_1_1_4_1_1_8_1_110",
        "X_2_1_1_1_1_1_26_1_1_9_1_110",
        "X_2_1_1_1_1_1_5_1_1_10_1_110",
        "X_2_1_1_1_1_1_27_1_1_11_1_110",
        "X_2_1_1_1_1_1_6_1_1_12_1_110",
        "X_2_1_1_1_1_1_28_1_1_13_1_110",
        "X_2_1_1_1_1_1_7_1_1_14_1_110",
        "X_2_1_1_1_1_1_29_1_1_15_1_110",
        "X_2_1_1_1_1_1_8_1_1_16_1_110",
        "X_2_1_1_1_1_1_30_1_1_17_1_110",
        "X_2_1_1_1_1_1_9_1_1_18_1_110",
        "X_2_1_1_1_1_1_31_1_1_19_1_110",
        "X_2_1_1_1_1_1_10_1_1_20_1_110",
        "X_2_1_1_1_1_1_32_1_1_21_1_110",
        "X_2_1_1_1_1_1_11_1_1_22_1_110",
        "X_2_1_1_1_1_1_33_1_1_23_1_110",
        "X_2_1_1_1_1_1_12_1_1_24_1_110",
        "X_2_1_1_1_1_1_34_1_1_25_1_110",
        "X_2_1_1_1_1_1_13_1_1_26_1_110",
        "X_2_1_1_1_1_1_35_1_1_27_1_110",
        "X_2_1_1_1_1_1_14_1_1_28_1_110",
        "X_2_1_1_1_1_1_36_1_1_29_1_110",
        "X_2_1_1_1_1_1_15_1_1_30_1_110",
        "X_2_1_1_1_1_1_37_1_1_31_1_110",
        "X_2_1_1_1_1_1_16_1_1_32_1_110",
        "X_2_1_1_1_1_1_38_1_1_33_1_110",
        "X_2_1_1_1_1_1_17_1_1_34_1_110",
        "X_2_1_1_1_1_1_39_1_1_35_1_110",
        "X_2_1_1_1_1_1_18_1_1_36_1_110",
        "X_2_1_1_1_1_1_40_1_1_37_1_110",
        "X_2_1_1_1_1_1_19_1_1_38_1_110",
        "X_2_1_1_1_1_1_41_1_1_39_1_110",
        "X_2_1_1_1_1_1_20_1_1_40_1_110",
        "X_2_1_1_1_1_1_42_1_1_41_1_110",
        "X_2_1_1_1_1_1_21_1_1_42_1_110"
      ],
      "CsaImage.ProtocolSliceNumber": [
        0,
        1,
        2,
        3,
        4,
        5,
        6,
        7,
        8,
        9,
        10,
        11,
        12,
        13,
        14,
        15,
        16,
        17,
        18,
        19,
        20,
        21,
        22,
        23,
        24,
        25,
        26,
        27,
        28,
        29,
        30,
        31,
        32,
        33,
        34,
        35,
        36,
        37,
        38,
        39,
        40,
        41
      ],
      "CsaImage.SlicePosition_PCS": [
        [
          -107.40171687,
          -138.78860732,
          -51.57406546
        ],
        [
          -107.62354438,
          -138.18630477,
          -48.64353492
        ],
        [
          -107.84537213,
          -137.58400604,
          -45.71300055
        ],
        [
          -108.06719963,
          -136.98170539,
          -42.78246619
        ],
        [
          -108.28902714,
          -136.37940284,
          -39.85193183
        ],
        [
          -108.51085465,
          -135.7771022,
          -36.92140128
        ],
        [
          -108.73268215,
          -135.17480155,
          -33.99086692
        ],
        [
          -108.95451014,
          -134.57250091,
          -31.06033255
        ],
        [
          -109.17633765,
          -133.97020027,
          -28.12979819
        ],
        [
          -109.39816515,
          -133.36789962,
          -25.19926764
        ],
        [
          -109.61999266,
          -132.76559898,
          -22.26873328
        ],
        [
          -109.84182017,
          -132.16329643,
          -19.33819892
        ],
        [
          -110.06364767,
          -131.56099578,
          -16.40766646
        ],
        [
          -110.28547566,
          -130.95869514,
          -13.4771321
        ],
        [
          -110.50730316,
          -130.35639449,
          -10.54659964
        ],
        [
          -110.72913067,
          -129.75409385,
          -7.61606528
        ],
        [
          -110.95095818,
          -129.15179321,
          -4.68553283
        ],
        [
          -111.17278569,
          -128.54949256,
          -1.75499942
        ],
        [
          -111.39461319,
          -127.94719001,
          1.17553399
        ],
        [
          -111.6164407,
          -127.34488937,
          4.1060674
        ],
        [
          -111.83826868,
          -126.74258872,
          7.03660129
        ],
        [
          -112.06009619,
          -126.14028808,
          9.9671347
        ],
        [
          -112.2819237,
          -125.53798744,
          12.89766811
        ],
        [
          -112.5037512,
          -124.93568679,
          15.82820152
        ],
        [
          -112.72557871,
          -124.33338615,
          18.75873492
        ],
        [
          -112.94740622,
          -123.7310836,
          21.68926833
        ],
        [
          -113.16923373,
          -123.12878295,
          24.61980222
        ],
        [
          -113.39106123,
          -122.52648231,
          27.55033563
        ],
        [
          -113.61288874,
          -121.92418166,
          30.48086808
        ],
        [
          -113.8347172,
          -121.32188102,
          33.41140245
        ],
        [
          -114.05654471,
          -120.71957942,
          36.3419349
        ],
        [
          -114.27837221,
          -120.11727878,
          39.27246927
        ],
        [
          -114.50019972,
          -119.51497814,
          42.20300172
        ],
        [
          -114.72202723,
          -118.91267749,
          45.13353608
        ],
        [
          -114.94385474,
          -118.31037589,
          48.06406854
        ],
        [
          -115.16568224,
          -117.70807525,
          50.9946029
        ],
        [
          -115.38750975,
          -117.10577461,
          53.92513726
        ],
        [
          -115.60933726,
          -116.50347301,
          56.85566781
        ],
        [
          -115.83116476,
          -115.90117236,
          59.78620218
        ],
        [
          -116.05299227,
          -115.29887172,
          62.71673654
        ],
        [
          -116.27481978,
          -114.69657108,
          65.6472709
        ],
        [
          -116.49664728,
          -114.09426948,
          68.57780145
        ]
      ],
      "CsaImage.TimeAfterStart": [
        0.7825,
        0.5225,
        0.795,
        0.535,
        0.8075,
        0.5475,
        0.82,
        0.56,
        0.8325,
        0.5725,
        0.845,
        0.585,
        0.8575,
        0.5975,
        0.87,
        0.61,
        0.8825,
        0.6225,
        0.895,
        0.635,
        0.9075,
        0.6475,
        0.9175,
        0.6575,
        0.93,
        0.67,
        0.9425,
        0.6825,
        0.955,
        0.695,
        0.9675,
        0.7075,
        0.98,
        0.72,
        0.9925,
        0.7325,
        1.005,
        0.745,
        1.0175,
        0.7575,
        1.03,
        0.77
      ],
      "ImagePositionPatient": [
        [
          -107.40171687433,
          -138.78860732411,
          -51.574065463639
        ],
        [
          -107.62354438135,
          -138.18630477284,
          -48.643534915544
        ],
        [
          -107.84537212679,
          -137.58400603627,
          -45.713000552751
        ],
        [
          -108.06719963381,
          -136.98170539234,
          -42.782466189958
        ],
        [
          -108.28902714083,
          -136.37940284107,
          -39.851931827165
        ],
        [
          -108.51085464785,
          -135.77710219715,
          -36.921401279069
        ],
        [
          -108.73268215486,
          -135.17480155323,
          -33.990866916276
        ],
        [
          -108.95451013872,
          -134.57250090931,
          -31.060332553483
        ],
        [
          -109.17633764574,
          -133.97020026539,
          -28.12979819069
        ],
        [
          -109.39816515276,
          -133.36789962147,
          -25.199267642594
        ],
        [
          -109.61999265978,
          -132.76559897755,
          -22.268733279801
        ],
        [
          -109.8418201668,
          -132.16329642628,
          -19.338198917008
        ],
        [
          -110.06364767382,
          -131.56099578236,
          -16.407666461564
        ],
        [
          -110.28547565767,
          -130.95869513844,
          -13.477132098771
        ],
        [
          -110.50730316469,
          -130.35639449452,
          -10.546599643327
        ],
        [
          -110.72913067171,
          -129.7540938506,
          -7.6160652805338
        ],
        [
          -110.95095817873,
          -129.15179320668,
          -4.6855328250895
        ],
        [
          -111.17278568575,
          -128.54949256275,
          -1.7549994159708
        ],
        [
          -111.39461319277,
          -127.94719001148,
          1.1755339931478
        ],
        [
          -111.61644069979,
          -127.34488936756,
          4.1060674022665
        ],
        [
          -111.83826868364,
          -126.74258872364,
          7.0366012882223
        ],
        [
          -112.06009619066,
          -126.14028807972,
          9.967134697341
        ],
        [
          -112.28192369768,
          -125.5379874358,
          12.89766810646
        ],
        [
          -112.5037512047,
          -124.93568679188,
          15.828201515578
        ],
        [
          -112.72557871172,
          -124.33338614796,
          18.758734924697
        ],
        [
          -112.94740621874,
          -123.73108359669,
          21.689268333816
        ],
        [
          -113.16923372576,
          -123.12878295277,
          24.619802219771
        ],
        [
          -113.39106123278,
          -122.52648230885,
          27.55033562889
        ],
        [
          -113.6128887398,
          -121.92418166493,
          30.480868084334
        ],
        [
          -113.83471720049,
          -121.32188102101,
          33.411402447127
        ],
        [
          -114.05654470751,
          -120.71957942341,
          36.341934902572
        ],
        [
          -114.27837221453,
          -120.11727877949,
          39.272469265365
        ],
        [
          -114.50019972155,
          -119.51497813557,
          42.203001720809
        ],
        [
          -114.72202722856,
          -118.91267749165,
          45.133536083602
        ],
        [
          -114.94385473558,
          -118.31037589405,
          48.064068539046
        ],
        [
          -115.1656822426,
          -117.70807525013,
          50.994602901839
        ],
        [
          -115.38750974962,
          -117.10577460621,
          53.925137264632
        ],
        [
          -115.60933725664,
          -116.50347300862,
          56.855667812728
        ],
        [
          -115.83116476366,
          -115.9011723647,
          59.786202175521
        ],
        [
          -116.05299227068,
          -115.29887172077,
          62.716736538314
        ],
        [
          -116.2748197777,
          -114.69657107685,
          65.647270901107
        ],
        [
          -116.49664728472,
          -114.09426947926,
          68.577801449203
        ]
      ],
      "InstanceCreationTime": [
        "144133.458000",
        "144133.382000",
        "144133.460000",
        "144133.384000",
        "144133.462000",
        "144133.386000",
        "144133.465000",
        "144133.388000",
        "144133.467000",
        "144133.390000",
        "144133.469000",
        "144133.392000",
        "144133.471000",
        "144133.395000",
        "144133.473000",
        "144133.397000",
        "144133.475000",
        "144133.399000",
        "144133.477000",
        "144133.401000",
        "144133.479000",
        "144133.403000",
        "144133.481000",
        "144133.405000",
        "144133.483000",
        "144133.407000",
        "144133.485000",
        "144133.409000",
        "144133.487000",
        "144133.411000",
        "144133.489000",
        "144133.413000",
        "144133.492000",
        "144133.415000",
        "144133.494000",
        "144133.450000",
        "144133.496000",
        "144133.452000",
        "144133.498000",
        "144133.454000",
        "144133.500000",
        "144133.456000"
      ],
      "InstanceNumber": [
        1,
        2,
        3,
        4,
        5,
        6,
        7,
        8,
        9,
        10,
        11,
        12,
        13,
        14,
        15,
        16,
        17,
        18,
        19,
        20,
        21,
        22,
        23,
        24,
        25,
        26,
        27,
        28,
        29,
        30,
        31,
        32,
        33,
        34,
        35,
        36,
        37,
        38,
        39,
        40,
        41,
        42
      ],
      "LargestImagePixelValue": [
        4088,
        4090,
        4094,
        4088,
        4087,
        4093,
        4088,
        4092,
        4090,
        4090,
        4087,
        4089,
        4090,
        4060,
        4094,
        4060,
        4094,
        4069,
        4093,
        4087,
        4071,
        4013,
        4036,
        4045,
        4078,
        4057,
        4082,
        4063,
        4060,
        4085,
        4087,
        4095,
        4079,
        4095,
        4068,
        4090,
        4083,
        4087,
        4093,
        4093,
        4095,
        4091
      ],
      "SliceLocation": [
        -70.30245601266,
        -67.302458496085,
        -64.30245800138,
        -61.302457141373,
        -58.302455898432,
        -55.30245876479,
        -52.302457904782,
        -49.302457009516,
        -46.302456149508,
        -43.302459015866,
        -40.302458155858,
        -37.302456912918,
        -34.302457916093,
        -31.302457020826,
        -28.302458024002,
        -25.302457163994,
        -22.302458167169,
        -19.302458238752,
        -16.302457927403,
        -13.302457998987,
        -10.302457569516,
        -7.3024576410999,
        -4.3024577126835,
        -1.3024577842671,
        1.6975421441493,
        4.6975424554983,
        7.6975428497104,
        10.697542778127,
        13.697541774952,
        16.697542705477,
        19.697541893768,
        22.697542753776,
        25.697541750601,
        28.697542610608,
        31.6975417989,
        34.697542658908,
        37.697543518915,
        40.697540844024,
        43.697541704032,
        46.697542564039,
        49.697543424047,
        52.697540749156
      ],
      "SmallestImagePixelValue": [
        4,
        3,
        0,
        0,
        15,
        1,
        4,
        1,
        6,
        4,
        0,
        7,
        17,
        8,
        0,
        16,
        0,
        0,
        9,
        10,
        6,
        9,
        4,
        11,
        34,
        44,
        24,
        8,
        63,
        12,
        29,
        0,
        33,
        7,
        6,
        25,
        1,
        0,
        1,
        0,
        0,
        4
      ],
      "WindowCenter": [
        -448.0,
        -388.0,
        -356.0,
        -306.0,
        -274.0,
        -300.0,
        -260.0,
        -204.0,
        -152.0,
        -166.0,
        -236.0,
        -256.0,
        -216.0,
        -136.0,
        -56.0,
        -30.0,
        -14.0,
        -22.0,
        -14.0,
        -34.0,
        -50.0,
        -68.0,
        -152.0,
        -48.0,
        -162.0,
        -148.0,
        -126.0,
        -114.0,
        -144.0,
        -166.0,
        -212.0,
        -266.0,
        -290.0,
        -262.0,
        -312.0,
        -332.0,
        -388.0,
        -278.0,
        -160.0,
        -250.0,
        -276.0,
        -390.0
      ],
      "WindowWidth": [
        5884.0,
        5906.0,
        5814.0,
        5762.0,
        5830.0,
        5900.0,
        5780.0,
        5638.0,
        5678.0,
        5540.0,
        5458.0,
        5530.0,
        5522.0,
        5474.0,
        5560.0,
        5596.0,
        5570.0,
        5548.0,
        5544.0,
        5534.0,
        5390.0,
        5318.0,
        4674.0,
        5170.0,
        4494.0,
        4478.0,
        4464.0,
        4442.0,
        4468.0,
        4476.0,
        4498.0,
        4534.0,
        4560.0,
        4564.0,
        4632.0,
        4670.0,
        4740.0,
        5444.0,
        5798.0,
        5718.0,
        5824.0,
        5908.0
      ]
    }
  }
}