{
  "AcquisitionMatrixPE": 70,
  "AcquisitionNumber": 1,
  "AcquisitionTime": "17:54:17.807500",
  "BaseResolution": 70,
  "BodyPartExamined": "BRAIN",
  "CoilCombinationMethod": "Sum of Squares",
  "ConsistencyInfo": "N4_VE11C_LATEST_20160120",
  "ConversionSoftware": "dcm2niix",
  "ConversionSoftwareVersion": "v1.0.20211006",
  "DeviceSerialNumber": "166011",
  "EchoNumber": 2,
  "EchoTime": 0.00738,
  "EchoTime1": 0.00492,
  "EchoTime2": 0.00738,
  "FlipAngle": 60,
  "ImageOrientationPatientDICOM": [0.999819, 0.0170844, -0.00834184, -0.0141356, 0.961407, 0.274768],
  "ImageType": [
    "ORIGINAL",
    "PRIMARY",
    "P",
    "ND",
    "PHASE"
],
  "ImagingFrequency": 123.259,
  "InPlanePhaseEncodingDirectionDICOM": "ROW",
  "InstitutionAddress": "West 130th Street 610,NY,NYC,US,10025",
  "InstitutionName": "MBBI",
  "MRAcquisitionType": "2D",
  "MagneticFieldStrength": 3,
  "Manufacturer": "Siemens",
  "ManufacturersModelName": "Prisma",
  "MatrixCoilMode": "SENSE",
  "Modality": "MR",
  "MultibandAccelerationFactor": 2,
  "PartialFourier": 1,
  "PatientPosition": "HFS",
  "PercentPhaseFOV": 100,
  "PercentSampling": 100,
  "PhaseEncodingDirection": "i",
  "PhaseEncodingSteps": 70,
  "PhaseResolution": 1,
  "PixelBandwidth": 595,
  "ProcedureStepDescription": "White^Word_recognition",
  "ProtocolName": "fmap_gre_field_mapping",
  "PulseSequenceDetails": "%SiemensSeq%\\gre_field_mapping",
  "ReceiveCoilActiveElements": "HC1-7",
  "ReceiveCoilName": "HeadNeck_64",
  "ReconMatrixPE": 70,
  "RepetitionTime": 0.52,
  "SAR": 0.0853461,
  "ScanningSequence": "GR",
  "SequenceName": "*fm2d2r",
  "SequenceVariant": "SP",
  "SeriesDescription": "fmap_gre_field_mapping",
  "SeriesNumber": 15,
  "ShimSetting": [-1154, -1420, 783, 773, -125, -223, 114, -2],
  "SliceThickness": 3,
  "SliceTiming": [0.26562, 0, 0.26562, 0.01562, 0.28125, 0.03125, 0.29688, 0.03125, 0.3125, 0.04688, 0.32812, 0.0625, 0.32812, 0.07812, 0.34375, 0.07812, 0.35938, 0.09375, 0.375, 0.10938, 0.39062, 0.125, 0.39062, 0.14062, 0.40625, 0.14062, 0.42188, 0.15625, 0.4375, 0.17188, 0.45312, 0.1875, 0.45312, 0.20312, 0.46875, 0.20312, 0.48438, 0.21875, 0.5, 0.23438, 0.51562, 0.25],
  "SoftwareVersions": "syngo MR E11",
  "SpacingBetweenSlices": 3,
  "StationName": "AWP166011",
  "TxRefAmp": 214.325,
  "dcmmeta_affine": [
    [-2.999457836151123, -0.042406659573316574, -0.038142502307891846, 107.25390625],
    [-0.051253244280815125, 2.8842198848724365, 0.8237991333007812, -89.60945129394531],
    [-0.02502552419900894, -0.8243041634559631, 2.8844223022460938, -7.434527397155762],
    [0.0, 0.0, 0.0, 1.0]
],
  "dcmmeta_reorient_transform": [
    [0.0, -1.0, 0.0, 69.0],
    [1.0, 0.0, 0.0, 0.0],
    [0.0, 0.0, -1.0, 41.0],
    [0.0, 0.0, 0.0, 1.0]
],
  "dcmmeta_shape": [70, 70, 42],
  "dcmmeta_slice_dim": 2,
  "dcmmeta_version": 0.6,
  "global": {
    "const": {
      "AcquisitionMatrix": [0, 70, 70, 0],
      "AcquisitionNumber": 1,
      "AngioFlag": "N",
      "BitsAllocated": 16,
      "BitsStored": 12,
      "BodyPartExamined": "BRAIN",
      "Columns": 70,
      "EchoNumbers": 2,
      "EchoTime": 7.38,
      "EchoTrainLength": 0,
      "FlipAngle": 60.0,
      "HighBit": 11,
      "ImageOrientationPatient": [0.99981925189461, 0.0170844146132, -0.008341841417, -0.0141355529745, 0.96140662934673, 0.27476804615943],
      "ImageType": [
        "ORIGINAL",
        "PRIMARY",
        "P",
        "ND"
],
      "ImagedNucleus": "1H",
      "ImagingFrequency": 123.259429,
      "InPlanePhaseEncodingDirection": "ROW",
      "MRAcquisitionType": "2D",
      "MagneticFieldStrength": 3.0,
      "Manufacturer": "SIEMENS",
      "ManufacturerModelName": "Prisma",
      "Modality": "MR",
      "NumberOfAverages": 1.0,
      "NumberOfPhaseEncodingSteps": 70,
      "PercentPhaseFieldOfView": 100.0,
      "PercentSampling": 100.0,
      "PerformedProcedureStepStartTime": "164859.005000",
      "PhotometricInterpretation": "MONOCHROME2",
      "PixelBandwidth": 595.0,
      "PixelRepresentation": 0,
      "PixelSpacing": [3.0, 3.0],
      "ProtocolName": "fmap_gre_field_mapping",
      "RepetitionTime": 520.0,
      "RescaleIntercept": -4096.0,
      "RescaleSlope": 2.0,
      "RescaleType": "US",
      "Rows": 70,
      "SAR": 0.08534614780371,
      "SamplesPerPixel": 1,
      "ScanningSequence": "GR",
      "SequenceName": "*fm2d2r",
      "SequenceVariant": "SP",
      "SeriesDescription": "fmap_gre_field_mapping",
      "SeriesNumber": 15,
      "SeriesTime": "175530.214000",
      "SliceThickness": 3.0,
      "SoftwareVersions": "syngo MR E11",
      "SpacingBetweenSlices": 3.0,
      "SpecificCharacterSet": "ISO_IR 100",
      "StudyID": "2",
      "StudyTime": "164858.928000",
      "TransmitCoilName": "Body",
      "VariableFlipAngleFlag": "N",
      "WindowCenterWidthExplanation": "Algo1",
      "dBdt": 0.0},
    "slices": {
      "AcquisitionTime": ["175417.807500", "175417.547500", "175417.820000", "175417.560000", "175417.832500", "175417.572500", "175417.845000", "175417.585000", "175417.857500", "175417.597500", "175417.870000", "175417.610000", "175417.880000", "175417.620000", "175417.892500", "175417.632500", "175417.905000", "175417.645000", "175417.917500", "175417.657500", "175417.930000", "175417.670000", "175417.942500", "175417.682500", "175417.955000", "175417.695000", "175417.967500", "175417.707500", "175417.980000", "175417.720000", "175417.992500", "175417.732500", "175418.005000", "175417.745000", "175418.017500", "175417.757500", "175418.030000", "175417.770000", "175418.042500", "175417.782500", "175418.055000", "175417.795000"],
      "ContentTime": ["175530.277000", "175530.222000", "175530.279000", "175530.224000", "175530.281000", "175530.227000", "175530.283000", "175530.229000", "175530.285000", "175530.231000", "175530.288000", "175530.233000", "175530.290000", "175530.235000", "175530.292000", "175530.247000", "175530.294000", "175530.249000", "175530.296000", "175530.251000", "175530.298000", "175530.253000", "175530.300000", "175530.255000", "175530.303000", "175530.258000", "175530.305000", "175530.260000", "175530.307000", "175530.262000", "175530.309000", "175530.264000", "175530.311000", "175530.266000", "175530.313000", "175530.268000", "175530.315000", "175530.271000", "175530.317000", "175530.273000", "175530.319000", "175530.275000"],
      "CsaImage.ICE_Dims": [
        "X_2_1_1_1_1_1_22_1_1_1_1_206",
        "X_2_1_1_1_1_1_1_1_1_2_1_206",
        "X_2_1_1_1_1_1_23_1_1_3_1_206",
        "X_2_1_1_1_1_1_2_1_1_4_1_206",
        "X_2_1_1_1_1_1_24_1_1_5_1_206",
        "X_2_1_1_1_1_1_3_1_1_6_1_206",
        "X_2_1_1_1_1_1_25_1_1_7_1_206",
        "X_2_1_1_1_1_1_4_1_1_8_1_206",
        "X_2_1_1_1_1_1_26_1_1_9_1_206",
        "X_2_1_1_1_1_1_5_1_1_10_1_206",
        "X_2_1_1_1_1_1_27_1_1_11_1_206",
        "X_2_1_1_1_1_1_6_1_1_12_1_206",
        "X_2_1_1_1_1_1_28_1_1_13_1_206",
        "X_2_1_1_1_1_1_7_1_1_14_1_206",
        "X_2_1_1_1_1_1_29_1_1_15_1_206",
        "X_2_1_1_1_1_1_8_1_1_16_1_206",
        "X_2_1_1_1_1_1_30_1_1_17_1_206",
        "X_2_1_1_1_1_1_9_1_1_18_1_206",
        "X_2_1_1_1_1_1_31_1_1_19_1_206",
        "X_2_1_1_1_1_1_10_1_1_20_1_206",
        "X_2_1_1_1_1_1_32_1_1_21_1_206",
        "X_2_1_1_1_1_1_11_1_1_22_1_206",
        "X_2_1_1_1_1_1_33_1_1_23_1_206",
        "X_2_1_1_1_1_1_12_1_1_24_1_206",
        "X_2_1_1_1_1_1_34_1_1_25_1_206",
        "X_2_1_1_1_1_1_13_1_1_26_1_206",
        "X_2_1_1_1_1_1_35_1_1_27_1_206",
        "X_2_1_1_1_1_1_14_1_1_28_1_206",
        "X_2_1_1_1_1_1_36_1_1_29_1_206",
        "X_2_1_1_1_1_1_15_1_1_30_1_206",
        "X_2_1_1_1_1_1_37_1_1_31_1_206",
        "X_2_1_1_1_1_1_16_1_1_32_1_206",
        "X_2_1_1_1_1_1_38_1_1_33_1_206",
        "X_2_1_1_1_1_1_17_1_1_34_1_206",
        "X_2_1_1_1_1_1_39_1_1_35_1_206",
        "X_2_1_1_1_1_1_18_1_1_36_1_206",
        "X_2_1_1_1_1_1_40_1_1_37_1_206",
        "X_2_1_1_1_1_1_19_1_1_38_1_206",
        "X_2_1_1_1_1_1_41_1_1_39_1_206",
        "X_2_1_1_1_1_1_20_1_1_40_1_206",
        "X_2_1_1_1_1_1_42_1_1_41_1_206",
        "X_2_1_1_1_1_1_21_1_1_42_1_206"
],
      "CsaImage.ProtocolSliceNumber": [0, 1, 2, 3, 4, 5, 6, 7, 8, 9, 10, 11, 12, 13, 14, 15, 16, 17, 18, 19, 20, 21, 22, 23, 24, 25, 26, 27, 28, 29, 30, 31, 32, 33, 34, 35, 36, 37, 38, 39, 40, 41],
      "CsaImage.SlicePosition_PCS": [
        [-104.32784468, -109.4016329, -64.31154349],
        [-104.28970224, -110.22543394, -61.42711737],
        [-104.2515598, -111.04923593, -58.54269698],
        [-104.2134173, -111.87303697, -55.65827277],
        [-104.17527485, -112.69683801, -52.77385047],
        [-104.13713241, -113.52064001, -49.88942626],
        [-104.09898997, -114.34444105, -47.00500395],
        [-104.06084747, -115.16824209, -44.12058165],
        [-104.02270502, -115.99204408, -41.23615744],
        [-103.98456255, -116.81584512, -38.35173419],
        [-103.94642011, -117.63964616, -35.46731141],
        [-103.90827763, -118.46344816, -32.58288863],
        [-103.87013516, -119.28725015, -29.69846537],
        [-103.83199272, -120.11105119, -26.81404236],
        [-103.79385025, -120.93485223, -23.92961934],
        [-103.7557078, -121.75865327, -21.04519608],
        [-103.71756533, -122.58245431, -18.1607733],
        [-103.67942287, -123.40625726, -15.27635005],
        [-103.64128042, -124.2300583, -12.39192679],
        [-103.60313796, -125.05385934, -9.50750449],
        [-103.56499549, -125.87766038, -6.62308028],
        [-103.52685304, -126.70146143, -3.73865798],
        [-103.48871058, -127.52526247, -0.85423567],
        [-103.45056812, -128.34906541, 2.03018854],
        [-103.41242566, -129.17286645, 4.91461084],
        [-103.3742832, -129.9966675, 7.79903314],
        [-103.33614074, -130.82046854, 10.68345926],
        [-103.29799827, -131.64426958, 13.56788156],
        [-103.25985581, -132.46807252, 16.45230386],
        [-103.22171337, -133.29187357, 19.33672616],
        [-103.1835709, -134.11567461, 22.22114847],
        [-103.14542842, -134.93947755, 25.10557458],
        [-103.10728598, -135.76327669, 27.98999688],
        [-103.06914351, -136.58707964, 30.87441919],
        [-103.03100107, -137.41087877, 33.75884149],
        [-102.99285859, -138.23468172, 36.64326761],
        [-102.95471615, -139.05848085, 39.52768991],
        [-102.91657365, -139.8822838, 42.41211221],
        [-102.87843121, -140.70608675, 45.29653451],
        [-102.84028876, -141.52988588, 48.18095682],
        [-102.80214632, -142.35368883, 51.06537912],
        [-102.76400382, -143.17748796, 53.94980142]
],
      "CsaImage.TimeAfterStart": [0.7825, 0.5225, 0.795, 0.535, 0.8075, 0.5475, 0.82, 0.56, 0.8325, 0.5725, 0.845, 0.585, 0.855, 0.595, 0.8675, 0.6075, 0.88, 0.62, 0.8925, 0.6325, 0.905, 0.645, 0.9175, 0.6575, 0.93, 0.67, 0.9425, 0.6825, 0.955, 0.695, 0.9675, 0.7075, 0.98, 0.72, 0.9925, 0.7325, 1.005, 0.745, 1.0175, 0.7575, 1.03, 0.77],
      "ImagePositionPatient": [
        [-104.32784468343, -109.40163289613, -64.311543490139],
        [-104.28970224073, -110.22543393678, -61.427117373196],
        [-104.25155979803, -111.0492359311, -58.542696978299],
        [-104.21341729572, -111.87303697175, -55.658272768704],
        [-104.17527485302, -112.6968380124, -52.773850466458],
        [-104.13713241031, -113.52064000672, -49.889426256863],
        [-104.09898996761, -114.34444104737, -47.005003954617],
        [-104.0608474653, -115.16824208802, -44.120581652371],
        [-104.0227050226, -115.99204408235, -41.236157442776],
        [-103.98456255009, -116.81584512299, -38.351734186856],
        [-103.94642010739, -117.63964616364, -35.467311407773],
        [-103.90827763488, -118.46344815797, -32.582888628689],
        [-103.87013516238, -119.28725015229, -29.698465372769],
        [-103.83199271968, -120.11105119294, -26.814042355267],
        [-103.79385024717, -120.93485223359, -23.929619337765],
        [-103.75570780447, -121.75865327424, -21.045196081845],
        [-103.71756533196, -122.58245431489, -18.160773302762],
        [-103.67942287436, -123.40625726289, -15.276350046841],
        [-103.64128041675, -124.23005830354, -12.391926790921],
        [-103.60313795915, -125.05385934419, -9.5075044886747],
        [-103.56499549409, -125.87766038484, -6.6230802790799],
        [-103.52685303649, -126.70146142549, -3.7386579768338],
        [-103.48871057609, -127.52526246613, -0.8542356745877],
        [-103.45056811755, -128.34906541413, 2.030188535007],
        [-103.41242565622, -129.17286645478, 4.9146108372531],
        [-103.37428319862, -129.99666749543, 7.7990331394992],
        [-103.33614074102, -130.82046853608, 10.683459256443],
        [-103.29799826851, -131.64426957673, 13.567881558689],
        [-103.25985581091, -132.46807252473, 16.452303860935],
        [-103.2217133682, -133.29187356538, 19.336726163181],
        [-103.1835708957, -134.11567460603, 22.221148465427],
        [-103.14542842319, -134.93947755403, 25.10557458237],
        [-103.10728598049, -135.76327668733, 27.989996884616],
        [-103.06914350798, -136.58707963532, 30.874419186862],
        [-103.03100106528, -137.41087876862, 33.758841489109],
        [-102.99285859277, -138.23468171662, 36.643267606052],
        [-102.95471615007, -139.05848084992, 39.527689908298],
        [-102.91657364776, -139.88228379792, 42.412112210544],
        [-102.87843120506, -140.70608674592, 45.29653451279],
        [-102.84028876236, -141.52988587922, 48.180956815036],
        [-102.80214631965, -142.35368882722, 51.065379117282],
        [-102.76400381735, -143.17748796052, 53.949801419528]
],
      "InstanceCreationTime": ["175530.277000", "175530.222000", "175530.279000", "175530.224000", "175530.281000", "175530.227000", "175530.283000", "175530.229000", "175530.285000", "175530.231000", "175530.288000", "175530.233000", "175530.290000", "175530.235000", "175530.292000", "175530.247000", "175530.294000", "175530.249000", "175530.296000", "175530.251000", "175530.298000", "175530.253000", "175530.300000", "175530.255000", "175530.303000", "175530.258000", "175530.305000", "175530.260000", "175530.307000", "175530.262000", "175530.309000", "175530.264000", "175530.311000", "175530.266000", "175530.313000", "175530.268000", "175530.315000", "175530.271000", "175530.317000", "175530.273000", "175530.319000", "175530.275000"],
      "InstanceNumber": [1, 2, 3, 4, 5, 6, 7, 8, 9, 10, 11, 12, 13, 14, 15, 16, 17, 18, 19, 20, 21, 22, 23, 24, 25, 26, 27, 28, 29, 30, 31, 32, 33, 34, 35, 36, 37, 38, 39, 40, 41, 42],
      "LargestImagePixelValue": [4079, 4095, 4093, 4093, 4093, 4093, 4094, 4079, 4094, 4092, 4088, 4095, 4083, 4092, 4095, 4091, 4091, 4076, 4083, 4093, 4089, 4077, 4089, 4093, 4084, 4055, 4080, 4091, 4074, 4091, 4087, 4093, 4094, 4089, 4094, 4094, 4091, 4090, 4093, 4093, 4092, 4094],
      "SliceLocation": [-33.118600579409, -30.118597741974, -27.118600144261, -24.118599139936, -21.118599970235, -18.118598704788, -15.118599535087, -12.118600364629, -9.1185990991818, -6.1185990121688, -3.1185993840014, -0.1185994935756, 2.8814008553168, 5.8814007127176, 8.8814005704973, 11.881400657131, 14.881400285678, 17.88140089626, 20.881400983084, 23.881400152974, 26.881401156826, 29.881400326716, 32.881399496642, 35.881401024169, 38.881400194107, 41.881399363997, 44.881402201621, 47.8814013717, 50.881401065349, 53.88140023505, 56.88139940513, 59.881402766702, 62.881401412644, 65.881401106482, 68.881399752424, 71.881403113996, 74.881401759938, 77.881401454155, 80.881401147615, 83.881399793557, 86.881399487016, 89.881398133716],
      "SmallestImagePixelValue": [1, 0, 0, 6, 0, 0, 10, 0, 16, 1, 3, 9, 0, 20, 8, 7, 19, 13, 7, 3, 87, 1, 57, 26, 9, 1, 1, 2, 41, 4, 0, 3, 2, 0, 6, 1, 2, 0, 2, 0, 0, 2],
      "WindowCenter": [-282.0, -232.0, -238.0, -156.0, -110.0, -96.0, -176.0, -218.0, -316.0, -342.0, -182.0, -202.0, -284.0, -262.0, -276.0, -272.0, -236.0, -110.0, -214.0, -224.0, -204.0, -90.0, -68.0, -220.0, -246.0, -252.0, -106.0, -126.0, -142.0, -144.0, -152.0, -168.0, -172.0, -184.0, -208.0, -262.0, -218.0, -212.0, -202.0, -220.0, -284.0, -346.0],
      "WindowWidth": [5830.0, 5920.0, 5976.0, 6004.0, 5896.0, 5862.0, 5662.0, 5458.0, 4730.0, 4722.0, 5432.0, 5188.0, 4634.0, 4604.0, 4614.0, 4608.0, 4574.0, 4966.0, 4538.0, 4552.0, 4524.0, 4850.0, 5016.0, 4526.0, 4548.0, 4588.0, 5316.0, 5340.0, 5264.0, 5354.0, 5438.0, 5428.0, 5464.0, 5592.0, 5666.0, 5882.0, 6024.0, 6182.0, 6252.0, 6282.0, 6390.0, 6432.0]
    }
  }
}