{
  "AcquisitionMatrixPE": 72,
  "AcquisitionNumber": 1,
  "AcquisitionTime": "13:53:5.690000",
  "BandwidthPerPixelPhaseEncode": 17.943,
  "BaseResolution": 96,
  "BodyPartExamined": "BRAIN",
  "CoilCombinationMethod": "Sum of Squares",
  "ConsistencyInfo": "N4_VE11C_LATEST_20160120",
  "ConversionSoftware": "dcm2niix",
  "ConversionSoftwareVersion": "v1.0.20211006",
  "DerivedVendorReportedEchoSpacing": 0.000552897,
  "DeviceSerialNumber": "166011",
  "EchoTime": 0.03,
  "EchoTrainLength": 58,
  "EffectiveEchoSpacing": 0.000580542,
  "FlipAngle": 62,
  "ImageOrientationPatientDICOM": [0.999319, -0.0275329, -0.0245803, 0.0235503, 0.988445, -0.149736],
  "ImageType": [
    "ORIGINAL",
    "PRIMARY",
    "M",
    "ND",
    "MOSAIC"
],
  "ImagingFrequency": 123.259,
  "InPlanePhaseEncodingDirectionDICOM": "COL",
  "InstitutionAddress": "West 130th Street 610,NY,NYC,US,10025",
  "InstitutionName": "MBBI",
  "MRAcquisitionType": "2D",
  "MagneticFieldStrength": 3,
  "Manufacturer": "Siemens",
  "ManufacturersModelName": "Prisma",
  "Modality": "MR",
  "MultibandAccelerationFactor": 3,
  "PartialFourier": 0.75,
  "PatientPosition": "HFS",
  "PercentPhaseFOV": 100,
  "PercentSampling": 75,
  "PhaseEncodingDirection": "j-",
  "PhaseEncodingSteps": 58,
  "PhaseOversampling": 0.05,
  "PhaseResolution": 0.75,
  "PixelBandwidth": 2265,
  "ProcedureStepDescription": "White^Word_recognition",
  "ProtocolName": "func_vwfate_run2",
  "PulseSequenceDetails": "%SiemensSeq%\\ep2d_bold",
  "ReceiveCoilActiveElements": "HC1-7",
  "ReceiveCoilName": "HeadNeck_64",
  "ReconMatrixPE": 96,
  "RefLinesPE": 40,
  "RepetitionTime": 1.5,
  "SAR": 0.0538797,
  "ScanOptions": "PFP\\FS",
  "ScanningSequence": "EP",
  "SequenceName": "*epfid2d1_72",
  "SequenceVariant": "SK\\OSP",
  "SeriesDescription": "func_vwfate_run2",
  "SeriesNumber": 9,
  "ShimSetting": [-1178, -1361, 705, 561, -97, 88, 66, -20],
  "SliceThickness": 2,
  "SliceTiming": [1.0775, 0, 0.74, 0.0675, 0.8075, 0.135, 0.875, 0.2025, 0.9425, 0.27, 1.01, 0.405, 1.145, 0.4725, 1.2125, 0.54, 1.28, 0.6075, 1.3475, 0.6725, 1.4125, 0.3375, 1.0775, 0, 0.74, 0.0675, 0.8075, 0.135, 0.875, 0.2025, 0.9425, 0.27, 1.01, 0.405, 1.145, 0.4725, 1.2125, 0.54, 1.28, 0.6075, 1.3475, 0.6725, 1.4125, 0.3375, 1.0775, 0, 0.74, 0.0675, 0.8075, 0.135, 0.875, 0.2025, 0.9425, 0.27, 1.01, 0.405, 1.145, 0.4725, 1.2125, 0.54, 1.28, 0.6075, 1.3475, 0.6725, 1.4125, 0.3375],
  "SoftwareVersions": "syngo MR E11",
  "SpacingBetweenSlices": 2,
  "StationName": "AWP166011",
  "TaskName": "vwfate",
  "TotalReadoutTime": 0.0551515,
  "TxRefAmp": 229.68,
  "dcmmeta_affine": [
    [-1.998637318611145, 0.047100502997636795, -0.05683791637420654, 98.64234924316406],
    [0.055065788328647614, 1.9768909215927124, -0.2981104850769043, -72.34800720214844],
    [-0.04916060343384743, 0.29947224259376526, 1.976840853691101, -62.37535858154297],
    [0.0, 0.0, 0.0, 1.0]
],
  "dcmmeta_reorient_transform": [
    [0.0, -1.0, 0.0, 95.0],
    [1.0, 0.0, 0.0, 0.0],
    [0.0, 0.0, 1.0, 0.0],
    [0.0, 0.0, 0.0, 1.0]
],
  "dcmmeta_shape": [96, 96, 66, 164],
  "dcmmeta_slice_dim": 2,
  "dcmmeta_version": 0.6,
  "global": {
    "const": {
      "AcquisitionMatrix": [96, 0, 0, 72],
      "AngioFlag": "N",
      "BitsAllocated": 16,
      "BitsStored": 12,
      "BodyPartExamined": "BRAIN",
      "Columns": 864,
      "EchoNumbers": 1,
      "EchoTime": 30.0,
      "EchoTrainLength": 58,
      "FlipAngle": 62.0,
      "HighBit": 11,
      "ImageOrientationPatient": [0.99931864211347, -0.0275328942652, -0.0245803022329, 0.02355025189587, 0.98844548535231, -0.1497361283134],
      "ImagePositionPatient": [-888.68020603341, -853.43750122122, 99.949525844286],
      "ImageType": [
        "ORIGINAL",
        "PRIMARY",
        "M",
        "ND",
        "MOSAIC"
],
      "ImagedNucleus": "1H",
      "ImagingFrequency": 123.259441,
      "InPlanePhaseEncodingDirection": "COL",
      "MRAcquisitionType": "2D",
      "MagneticFieldStrength": 3.0,
      "Manufacturer": "SIEMENS",
      "ManufacturerModelName": "Prisma",
      "Modality": "MR",
      "NumberOfAverages": 1.0,
      "NumberOfPhaseEncodingSteps": 58,
      "PercentPhaseFieldOfView": 100.0,
      "PercentSampling": 75.0,
      "PerformedProcedureStepStartTime": "132627.271000",
      "PhotometricInterpretation": "MONOCHROME2",
      "PixelBandwidth": 2265.0,
      "PixelRepresentation": 0,
      "PixelSpacing": [2.0, 2.0],
      "ProtocolName": "func_vwfate_run2",
      "RepetitionTime": 1500.0,
      "Rows": 864,
      "SAR": 0.05387972095378,
      "SamplesPerPixel": 1,
      "ScanOptions": [
        "PFP",
        "FS"
],
      "ScanningSequence": "EP",
      "SequenceName": "*epfid2d1_72",
      "SequenceVariant": [
        "SK",
        "OSP"
],
      "SeriesDescription": "func_vwfate_run2",
      "SeriesNumber": 9,
      "SeriesTime": "135344.882000",
      "SliceLocation": -53.672539077964,
      "SliceThickness": 2.0,
      "SmallestImagePixelValue": 0,
      "SoftwareVersions": "syngo MR E11",
      "SpacingBetweenSlices": 2.0000000408602,
      "SpecificCharacterSet": "ISO_IR 100",
      "StudyID": "1",
      "StudyTime": "132627.168000",
      "TransmitCoilName": "Body",
      "VariableFlipAngleFlag": "N",
      "WindowCenterWidthExplanation": "Algo1",
      "dBdt": 0.0},
    "slices": {}
  },
  "time": {
    "samples": {
      "AcquisitionNumber": [1, 2, 3, 4, 5, 6, 7, 8, 9, 10, 11, 12, 13, 14, 15, 16, 17, 18, 19, 20, 21, 22, 23, 24, 25, 26, 27, 28, 29, 30, 31, 32, 33, 34, 35, 36, 37, 38, 39, 40, 41, 42, 43, 44, 45, 46, 47, 48, 49, 50, 51, 52, 53, 54, 55, 56, 57, 58, 59, 60, 61, 62, 63, 64, 65, 66, 67, 68, 69, 70, 71, 72, 73, 74, 75, 76, 77, 78, 79, 80, 81, 82, 83, 84, 85, 86, 87, 88, 89, 90, 91, 92, 93, 94, 95, 96, 97, 98, 99, 100, 101, 102, 103, 104, 105, 106, 107, 108, 109, 110, 111, 112, 113, 114, 115, 116, 117, 118, 119, 120, 121, 122, 123, 124, 125, 126, 127, 128, 129, 130, 131, 132, 133, 134, 135, 136, 137, 138, 139, 140, 141, 142, 143, 144, 145, 146, 147, 148, 149, 150, 151, 152, 153, 154, 155, 156, 157, 158, 159, 160, 161, 162, 163, 164],
      "AcquisitionTime": ["135305.690000", "135307.190000", "135308.690000", "135310.190000", "135311.690000", "135313.190000", "135314.690000", "135316.190000", "135317.690000", "135319.190000", "135320.690000", "135322.190000", "135323.690000", "135325.190000", "135326.690000", "135328.190000", "135329.690000", "135331.190000", "135332.690000", "135334.190000", "135335.690000", "135337.190000", "135338.690000", "135340.190000", "135341.690000", "135343.190000", "135344.690000", "135346.190000", "135347.690000", "135349.190000", "135350.690000", "135352.190000", "135353.690000", "135355.190000", "135356.690000", "135358.190000", "135359.690000", "135401.190000", "135402.690000", "135404.190000", "135405.690000", "135407.190000", "135408.690000", "135410.190000", "135411.690000", "135413.190000", "135414.690000", "135416.190000", "135417.690000", "135419.190000", "135420.690000", "135422.190000", "135423.690000", "135425.190000", "135426.690000", "135428.190000", "135429.690000", "135431.190000", "135432.690000", "135434.190000", "135435.690000", "135437.190000", "135438.690000", "135440.190000", "135441.690000", "135443.190000", "135444.690000", "135446.190000", "135447.690000", "135449.190000", "135450.690000", "135452.190000", "135453.690000", "135455.190000", "135456.690000", "135458.190000", "135459.690000", "135501.190000", "135502.690000", "135504.190000", "135505.690000", "135507.190000", "135508.690000", "135510.190000", "135511.690000", "135513.190000", "135514.690000", "135516.190000", "135517.690000", "135519.190000", "135520.690000", "135522.190000", "135523.690000", "135525.190000", "135526.690000", "135528.190000", "135529.690000", "135531.190000", "135532.690000", "135534.190000", "135535.690000", "135537.190000", "135538.690000", "135540.190000", "135541.690000", "135543.190000", "135544.690000", "135546.190000", "135547.690000", "135549.190000", "135550.690000", "135552.190000", "135553.690000", "135555.190000", "135556.690000", "135558.190000", "135559.690000", "135601.190000", "135602.690000", "135604.190000", "135605.690000", "135607.190000", "135608.690000", "135610.190000", "135611.690000", "135613.190000", "135614.690000", "135616.190000", "135617.690000", "135619.190000", "135620.690000", "135622.190000", "135623.690000", "135625.190000", "135626.690000", "135628.190000", "135629.690000", "135631.190000", "135632.690000", "135634.190000", "135635.690000", "135637.190000", "135638.690000", "135640.190000", "135641.690000", "135643.190000", "135644.690000", "135646.190000", "135647.690000", "135649.190000", "135650.690000", "135652.190000", "135653.690000", "135655.190000", "135656.690000", "135658.190000", "135659.690000", "135701.190000", "135702.690000", "135704.190000", "135705.690000", "135707.190000", "135708.690000", "135710.190000"],
      "ContentTime": ["135344.886000", "135344.890000", "135344.893000", "135344.896000", "135344.899000", "135344.915000", "135344.918000", "135344.925000", "135344.928000", "135344.931000", "135344.934000", "135344.937000", "135344.944000", "135344.947000", "135344.951000", "135344.954000", "135344.957000", "135344.960000", "135344.963000", "135344.966000", "135344.969000", "135344.972000", "135344.975000", "135344.979000", "135344.982000", "135344.985000", "135424.881000", "135424.885000", "135424.888000", "135424.891000", "135424.894000", "135424.898000", "135424.919000", "135424.922000", "135424.925000", "135424.928000", "135424.931000", "135424.934000", "135424.937000", "135424.940000", "135424.943000", "135424.946000", "135424.950000", "135424.953000", "135424.959000", "135424.962000", "135424.965000", "135424.968000", "135424.971000", "135424.974000", "135424.977000", "135424.980000", "135504.881000", "135504.884000", "135504.888000", "135504.891000", "135504.894000", "135504.897000", "135504.900000", "135504.903000", "135504.906000", "135504.909000", "135504.912000", "135504.915000", "135504.918000", "135504.921000", "135504.924000", "135504.927000", "135504.930000", "135504.933000", "135504.937000", "135504.940000", "135504.943000", "135504.946000", "135504.949000", "135504.952000", "135504.955000", "135504.958000", "135504.961000", "135544.881000", "135544.884000", "135544.887000", "135544.890000", "135544.893000", "135544.897000", "135544.900000", "135544.903000", "135544.906000", "135544.909000", "135544.912000", "135544.915000", "135544.918000", "135544.921000", "135544.924000", "135544.927000", "135544.930000", "135544.933000", "135544.936000", "135544.939000", "135544.943000", "135544.946000", "135544.949000", "135544.952000", "135544.955000", "135544.958000", "135544.961000", "135624.882000", "135624.886000", "135624.889000", "135624.893000", "135624.896000", "135624.899000", "135624.919000", "135624.922000", "135624.925000", "135624.928000", "135624.931000", "135624.934000", "135624.938000", "135624.941000", "135624.944000", "135624.947000", "135624.950000", "135624.953000", "135624.956000", "135624.959000", "135624.962000", "135624.971000", "135624.974000", "135624.977000", "135624.980000", "135624.983000", "135704.880000", "135704.883000", "135704.886000", "135704.889000", "135704.892000", "135704.895000", "135704.898000", "135704.901000", "135704.904000", "135704.907000", "135704.910000", "135704.913000", "135704.916000", "135704.920000", "135704.923000", "135704.926000", "135704.929000", "135704.932000", "135704.935000", "135704.938000", "135704.941000", "135704.944000", "135704.947000", "135704.950000", "135704.953000", "135704.956000", "135704.959000", "135711.393000", "135711.396000", "135711.399000", "135711.402000", "135711.406000"],
      "InstanceCreationTime": ["135344.886000", "135344.890000", "135344.893000", "135344.896000", "135344.899000", "135344.915000", "135344.918000", "135344.925000", "135344.928000", "135344.931000", "135344.934000", "135344.937000", "135344.944000", "135344.947000", "135344.951000", "135344.954000", "135344.957000", "135344.960000", "135344.963000", "135344.966000", "135344.969000", "135344.972000", "135344.975000", "135344.979000", "135344.982000", "135344.985000", "135424.881000", "135424.885000", "135424.888000", "135424.891000", "135424.894000", "135424.898000", "135424.919000", "135424.922000", "135424.925000", "135424.928000", "135424.931000", "135424.934000", "135424.937000", "135424.940000", "135424.943000", "135424.946000", "135424.950000", "135424.953000", "135424.959000", "135424.962000", "135424.965000", "135424.968000", "135424.971000", "135424.974000", "135424.977000", "135424.980000", "135504.881000", "135504.884000", "135504.888000", "135504.891000", "135504.894000", "135504.897000", "135504.900000", "135504.903000", "135504.906000", "135504.909000", "135504.912000", "135504.915000", "135504.918000", "135504.921000", "135504.924000", "135504.927000", "135504.930000", "135504.933000", "135504.937000", "135504.940000", "135504.943000", "135504.946000", "135504.949000", "135504.952000", "135504.955000", "135504.958000", "135504.961000", "135544.881000", "135544.884000", "135544.887000", "135544.890000", "135544.893000", "135544.897000", "135544.900000", "135544.903000", "135544.906000", "135544.909000", "135544.912000", "135544.915000", "135544.918000", "135544.921000", "135544.924000", "135544.927000", "135544.930000", "135544.933000", "135544.936000", "135544.939000", "135544.943000", "135544.946000", "135544.949000", "135544.952000", "135544.955000", "135544.958000", "135544.961000", "135624.882000", "135624.886000", "135624.889000", "135624.893000", "135624.896000", "135624.899000", "135624.919000", "135624.922000", "135624.925000", "135624.928000", "135624.931000", "135624.934000", "135624.938000", "135624.941000", "135624.944000", "135624.947000", "135624.950000", "135624.953000", "135624.956000", "135624.959000", "135624.962000", "135624.971000", "135624.974000", "135624.977000", "135624.980000", "135624.983000", "135704.880000", "135704.883000", "135704.886000", "135704.889000", "135704.892000", "135704.895000", "135704.898000", "135704.901000", "135704.904000", "135704.907000", "135704.910000", "135704.913000", "135704.916000", "135704.920000", "135704.923000", "135704.926000", "135704.929000", "135704.932000", "135704.935000", "135704.938000", "135704.941000", "135704.944000", "135704.947000", "135704.950000", "135704.953000", "135704.956000", "135704.959000", "135711.393000", "135711.396000", "135711.399000", "135711.402000", "135711.406000"],
      "InstanceNumber": [1, 2, 3, 4, 5, 6, 7, 8, 9, 10, 11, 12, 13, 14, 15, 16, 17, 18, 19, 20, 21, 22, 23, 24, 25, 26, 27, 28, 29, 30, 31, 32, 33, 34, 35, 36, 37, 38, 39, 40, 41, 42, 43, 44, 45, 46, 47, 48, 49, 50, 51, 52, 53, 54, 55, 56, 57, 58, 59, 60, 61, 62, 63, 64, 65, 66, 67, 68, 69, 70, 71, 72, 73, 74, 75, 76, 77, 78, 79, 80, 81, 82, 83, 84, 85, 86, 87, 88, 89, 90, 91, 92, 93, 94, 95, 96, 97, 98, 99, 100, 101, 102, 103, 104, 105, 106, 107, 108, 109, 110, 111, 112, 113, 114, 115, 116, 117, 118, 119, 120, 121, 122, 123, 124, 125, 126, 127, 128, 129, 130, 131, 132, 133, 134, 135, 136, 137, 138, 139, 140, 141, 142, 143, 144, 145, 146, 147, 148, 149, 150, 151, 152, 153, 154, 155, 156, 157, 158, 159, 160, 161, 162, 163, 164],
      "LargestImagePixelValue": [3730, 3650, 3597, 3578, 3573, 3541, 3563, 3553, 3577, 3564, 3565, 3544, 3539, 3546, 3547, 3540, 3545, 3522, 3539, 3562, 3544, 3573, 3540, 3566, 3520, 3544, 3487, 3557, 3501, 3545, 3503, 3526, 3521, 3492, 3513, 3464, 3513, 3438, 3511, 3489, 3502, 3509, 3499, 3492, 3535, 3499, 3487, 3513, 3463, 3501, 3478, 3505, 3502, 3475, 3500, 3477, 3496, 3486, 3482, 3439, 3468, 3445, 3466, 3490, 3502, 3448, 3492, 3434, 3467, 3382, 3457, 3384, 3488, 3436, 3523, 3416, 3525, 3471, 3466, 3466, 3448, 3477, 3447, 3466, 3414, 3476, 3402, 3492, 3437, 3489, 3475, 3536, 3470, 3513, 3466, 3505, 3495, 3434, 3501, 3411, 3485, 3436, 3497, 3480, 3516, 3474, 3468, 3491, 3385, 3477, 3382, 3400, 3373, 3458, 3396, 3424, 3388, 3457, 3391, 3470, 3427, 3436, 3432, 3383, 3472, 3421, 3502, 3441, 3486, 3436, 3478, 3468, 3458, 3441, 3489, 3425, 3492, 3429, 3488, 3360, 3377, 3442, 3455, 3343, 3406, 3402, 3376, 3401, 3393, 3437, 3408, 3400, 3383, 3381, 3347, 3370, 3373, 3344, 3352, 3326, 3323, 3354, 3389, 3416],
      "WindowCenter": [797.0, 794.0, 793.0, 792.0, 792.0, 791.0, 792.0, 792.0, 792.0, 791.0, 792.0, 792.0, 792.0, 791.0, 791.0, 792.0, 791.0, 792.0, 792.0, 791.0, 791.0, 792.0, 791.0, 793.0, 793.0, 794.0, 793.0, 794.0, 793.0, 793.0, 793.0, 794.0, 794.0, 793.0, 793.0, 793.0, 793.0, 793.0, 793.0, 793.0, 793.0, 794.0, 794.0, 795.0, 795.0, 794.0, 794.0, 794.0, 793.0, 794.0, 794.0, 794.0, 794.0, 794.0, 793.0, 792.0, 792.0, 793.0, 793.0, 793.0, 793.0, 793.0, 793.0, 793.0, 793.0, 792.0, 793.0, 793.0, 793.0, 793.0, 793.0, 792.0, 793.0, 792.0, 793.0, 793.0, 793.0, 793.0, 793.0, 793.0, 794.0, 793.0, 793.0, 793.0, 793.0, 793.0, 793.0, 793.0, 793.0, 793.0, 794.0, 794.0, 794.0, 794.0, 794.0, 793.0, 793.0, 792.0, 792.0, 791.0, 792.0, 791.0, 792.0, 793.0, 793.0, 792.0, 791.0, 791.0, 791.0, 791.0, 791.0, 790.0, 791.0, 791.0, 791.0, 791.0, 791.0, 791.0, 791.0, 791.0, 791.0, 791.0, 791.0, 790.0, 791.0, 792.0, 793.0, 793.0, 793.0, 792.0, 792.0, 793.0, 792.0, 793.0, 793.0, 793.0, 792.0, 791.0, 791.0, 789.0, 789.0, 790.0, 790.0, 789.0, 789.0, 789.0, 789.0, 790.0, 790.0, 790.0, 789.0, 789.0, 789.0, 789.0, 789.0, 790.0, 789.0, 790.0, 790.0, 790.0, 790.0, 791.0, 791.0, 791.0],
      "WindowWidth": [1736.0, 1726.0, 1722.0, 1720.0, 1720.0, 1718.0, 1719.0, 1719.0, 1719.0, 1718.0, 1719.0, 1719.0, 1718.0, 1718.0, 1718.0, 1719.0, 1718.0, 1719.0, 1719.0, 1718.0, 1719.0, 1719.0, 1718.0, 1721.0, 1723.0, 1725.0, 1724.0, 1724.0, 1721.0, 1724.0, 1724.0, 1725.0, 1725.0, 1724.0, 1723.0, 1723.0, 1722.0, 1721.0, 1721.0, 1722.0, 1723.0, 1726.0, 1727.0, 1727.0, 1727.0, 1726.0, 1725.0, 1726.0, 1723.0, 1726.0, 1725.0, 1726.0, 1726.0, 1726.0, 1723.0, 1721.0, 1721.0, 1722.0, 1723.0, 1723.0, 1723.0, 1723.0, 1722.0, 1721.0, 1722.0, 1721.0, 1722.0, 1721.0, 1722.0, 1722.0, 1723.0, 1720.0, 1722.0, 1721.0, 1723.0, 1721.0, 1723.0, 1724.0, 1724.0, 1723.0, 1724.0, 1723.0, 1721.0, 1723.0, 1723.0, 1724.0, 1722.0, 1723.0, 1722.0, 1723.0, 1724.0, 1725.0, 1724.0, 1726.0, 1724.0, 1722.0, 1722.0, 1718.0, 1720.0, 1718.0, 1719.0, 1717.0, 1720.0, 1722.0, 1722.0, 1719.0, 1718.0, 1717.0, 1717.0, 1717.0, 1716.0, 1714.0, 1716.0, 1716.0, 1717.0, 1717.0, 1717.0, 1718.0, 1716.0, 1716.0, 1717.0, 1717.0, 1717.0, 1715.0, 1717.0, 1719.0, 1722.0, 1722.0, 1722.0, 1720.0, 1720.0, 1721.0, 1720.0, 1722.0, 1722.0, 1721.0, 1719.0, 1715.0, 1716.0, 1712.0, 1711.0, 1713.0, 1713.0, 1711.0, 1711.0, 1712.0, 1712.0, 1714.0, 1714.0, 1714.0, 1711.0, 1711.0, 1711.0, 1712.0, 1712.0, 1714.0, 1712.0, 1713.0, 1713.0, 1714.0, 1715.0, 1716.0, 1716.0, 1715.0]
    },
    "slices": {}
  }
}