{
  "AcquisitionMatrixPE": 72,
  "AcquisitionNumber": 1,
  "AcquisitionTime": "13:47:34.572500",
  "BandwidthPerPixelPhaseEncode": 17.943,
  "BaseResolution": 96,
  "BodyPartExamined": "BRAIN",
  "CoilCombinationMethod": "Sum of Squares",
  "ConsistencyInfo": "N4_VE11C_LATEST_20160120",
  "ConversionSoftware": "dcm2niix",
  "ConversionSoftwareVersion": "v1.0.20211006",
  "DerivedVendorReportedEchoSpacing": 0.000552897,
  "DeviceSerialNumber": "166011",
  "EchoTime": 0.03,
  "EchoTrainLength": 58,
  "EffectiveEchoSpacing": 0.000580542,
  "FlipAngle": 62,
  "ImageOrientationPatientDICOM": [0.999319, -0.0275329, -0.0245803, 0.0235503, 0.988445, -0.149736],
  "ImageType": [
    "ORIGINAL",
    "PRIMARY",
    "M",
    "ND",
    "MOSAIC"
],
  "ImagingFrequency": 123.259,
  "InPlanePhaseEncodingDirectionDICOM": "COL",
  "InstitutionAddress": "West 130th Street 610,NY,NYC,US,10025",
  "InstitutionName": "MBBI",
  "MRAcquisitionType": "2D",
  "MagneticFieldStrength": 3,
  "Manufacturer": "Siemens",
  "ManufacturersModelName": "Prisma",
  "Modality": "MR",
  "MultibandAccelerationFactor": 3,
  "PartialFourier": 0.75,
  "PatientPosition": "HFS",
  "PercentPhaseFOV": 100,
  "PercentSampling": 75,
  "PhaseEncodingDirection": "j-",
  "PhaseEncodingSteps": 58,
  "PhaseOversampling": 0.05,
  "PhaseResolution": 0.75,
  "PixelBandwidth": 2265,
  "ProcedureStepDescription": "White^Word_recognition",
  "ProtocolName": "func_vwfate_run1",
  "PulseSequenceDetails": "%SiemensSeq%\\ep2d_bold",
  "ReceiveCoilActiveElements": "HC1-7",
  "ReceiveCoilName": "HeadNeck_64",
  "ReconMatrixPE": 96,
  "RefLinesPE": 40,
  "RepetitionTime": 1.5,
  "SAR": 0.0538797,
  "ScanOptions": "PFP\\FS",
  "ScanningSequence": "EP",
  "SequenceName": "*epfid2d1_72",
  "SequenceVariant": "SK\\OSP",
  "SeriesDescription": "func_vwfate_run1",
  "SeriesNumber": 8,
  "ShimSetting": [-1178, -1361, 705, 561, -97, 88, 66, -20],
  "SliceThickness": 2,
  "SliceTiming": [1.0775, 0, 0.74, 0.0675, 0.8075, 0.135, 0.875, 0.2025, 0.9425, 0.27, 1.01, 0.4025, 1.1425, 0.47, 1.21, 0.5375, 1.2775, 0.605, 1.345, 0.6725, 1.4125, 0.3375, 1.0775, 0, 0.74, 0.0675, 0.8075, 0.135, 0.875, 0.2025, 0.9425, 0.27, 1.01, 0.4025, 1.1425, 0.47, 1.21, 0.5375, 1.2775, 0.605, 1.345, 0.6725, 1.4125, 0.3375, 1.0775, 0, 0.74, 0.0675, 0.8075, 0.135, 0.875, 0.2025, 0.9425, 0.27, 1.01, 0.4025, 1.1425, 0.47, 1.21, 0.5375, 1.2775, 0.605, 1.345, 0.6725, 1.4125, 0.3375],
  "SoftwareVersions": "syngo MR E11",
  "SpacingBetweenSlices": 2,
  "StationName": "AWP166011",
  "TaskName": "vwfate",
  "TotalReadoutTime": 0.0551515,
  "TxRefAmp": 229.68,
  "dcmmeta_affine": [
    [-1.998637318611145, 0.047100502997636795, -0.05683791637420654, 98.64234924316406],
    [0.055065788328647614, 1.9768909215927124, -0.2981104850769043, -72.34800720214844],
    [-0.04916060343384743, 0.29947224259376526, 1.976840853691101, -62.37535858154297],
    [0.0, 0.0, 0.0, 1.0]
],
  "dcmmeta_reorient_transform": [
    [0.0, -1.0, 0.0, 95.0],
    [1.0, 0.0, 0.0, 0.0],
    [0.0, 0.0, 1.0, 0.0],
    [0.0, 0.0, 0.0, 1.0]
],
  "dcmmeta_shape": [96, 96, 66, 164],
  "dcmmeta_slice_dim": 2,
  "dcmmeta_version": 0.6,
  "global": {
    "const": {
      "AcquisitionMatrix": [96, 0, 0, 72],
      "AngioFlag": "N",
      "BitsAllocated": 16,
      "BitsStored": 12,
      "BodyPartExamined": "BRAIN",
      "Columns": 864,
      "EchoNumbers": 1,
      "EchoTime": 30.0,
      "EchoTrainLength": 58,
      "FlipAngle": 62.0,
      "HighBit": 11,
      "ImageOrientationPatient": [0.99931864211347, -0.0275328942652, -0.0245803022329, 0.02355025189587, 0.98844548535231, -0.1497361283134],
      "ImagePositionPatient": [-888.68020603341, -853.43750122122, 99.949525844286],
      "ImageType": [
        "ORIGINAL",
        "PRIMARY",
        "M",
        "ND",
        "MOSAIC"
],
      "ImagedNucleus": "1H",
      "ImagingFrequency": 123.259436,
      "InPlanePhaseEncodingDirection": "COL",
      "MRAcquisitionType": "2D",
      "MagneticFieldStrength": 3.0,
      "Manufacturer": "SIEMENS",
      "ManufacturerModelName": "Prisma",
      "Modality": "MR",
      "NumberOfAverages": 1.0,
      "NumberOfPhaseEncodingSteps": 58,
      "PercentPhaseFieldOfView": 100.0,
      "PercentSampling": 75.0,
      "PerformedProcedureStepStartTime": "132627.271000",
      "PhotometricInterpretation": "MONOCHROME2",
      "PixelBandwidth": 2265.0,
      "PixelRepresentation": 0,
      "PixelSpacing": [2.0, 2.0],
      "ProtocolName": "func_vwfate_run1",
      "RepetitionTime": 1500.0,
      "Rows": 864,
      "SAR": 0.05387972095378,
      "SamplesPerPixel": 1,
      "ScanOptions": [
        "PFP",
        "FS"
],
      "ScanningSequence": "EP",
      "SequenceName": "*epfid2d1_72",
      "SequenceVariant": [
        "SK",
        "OSP"
],
      "SeriesDescription": "func_vwfate_run1",
      "SeriesNumber": 8,
      "SeriesTime": "134822.239000",
      "SliceLocation": -53.672539077964,
      "SliceThickness": 2.0,
      "SmallestImagePixelValue": 0,
      "SoftwareVersions": "syngo MR E11",
      "SpacingBetweenSlices": 2.0000000408602,
      "SpecificCharacterSet": "ISO_IR 100",
      "StudyID": "1",
      "StudyTime": "132627.168000",
      "TransmitCoilName": "Body",
      "VariableFlipAngleFlag": "N",
      "WindowCenterWidthExplanation": "Algo1",
      "dBdt": 0.0},
    "slices": {}
  },
  "time": {
    "samples": {
      "AcquisitionNumber": [1, 2, 3, 4, 5, 6, 7, 8, 9, 10, 11, 12, 13, 14, 15, 16, 17, 18, 19, 20, 21, 22, 23, 24, 25, 26, 27, 28, 29, 30, 31, 32, 33, 34, 35, 36, 37, 38, 39, 40, 41, 42, 43, 44, 45, 46, 47, 48, 49, 50, 51, 52, 53, 54, 55, 56, 57, 58, 59, 60, 61, 62, 63, 64, 65, 66, 67, 68, 69, 70, 71, 72, 73, 74, 75, 76, 77, 78, 79, 80, 81, 82, 83, 84, 85, 86, 87, 88, 89, 90, 91, 92, 93, 94, 95, 96, 97, 98, 99, 100, 101, 102, 103, 104, 105, 106, 107, 108, 109, 110, 111, 112, 113, 114, 115, 116, 117, 118, 119, 120, 121, 122, 123, 124, 125, 126, 127, 128, 129, 130, 131, 132, 133, 134, 135, 136, 137, 138, 139, 140, 141, 142, 143, 144, 145, 146, 147, 148, 149, 150, 151, 152, 153, 154, 155, 156, 157, 158, 159, 160, 161, 162, 163, 164],
      "AcquisitionTime": ["134734.572500", "134736.072500", "134737.572500", "134739.072500", "134740.572500", "134742.072500", "134743.572500", "134745.072500", "134746.572500", "134748.072500", "134749.572500", "134751.072500", "134752.572500", "134754.072500", "134755.572500", "134757.072500", "134758.572500", "134800.072500", "134801.572500", "134803.072500", "134804.572500", "134806.072500", "134807.572500", "134809.072500", "134810.572500", "134812.072500", "134813.572500", "134815.072500", "134816.572500", "134818.072500", "134819.572500", "134821.072500", "134822.572500", "134824.072500", "134825.572500", "134827.072500", "134828.572500", "134830.072500", "134831.572500", "134833.072500", "134834.572500", "134836.072500", "134837.572500", "134839.072500", "134840.572500", "134842.072500", "134843.572500", "134845.072500", "134846.572500", "134848.072500", "134849.572500", "134851.072500", "134852.572500", "134854.072500", "134855.572500", "134857.072500", "134858.572500", "134900.072500", "134901.572500", "134903.072500", "134904.572500", "134906.072500", "134907.572500", "134909.072500", "134910.572500", "134912.072500", "134913.572500", "134915.072500", "134916.572500", "134918.072500", "134919.572500", "134921.072500", "134922.572500", "134924.072500", "134925.572500", "134927.072500", "134928.572500", "134930.072500", "134931.572500", "134933.072500", "134934.572500", "134936.072500", "134937.572500", "134939.072500", "134940.572500", "134942.072500", "134943.572500", "134945.072500", "134946.572500", "134948.072500", "134949.572500", "134951.072500", "134952.572500", "134954.072500", "134955.572500", "134957.072500", "134958.572500", "135000.072500", "135001.572500", "135003.072500", "135004.572500", "135006.072500", "135007.572500", "135009.072500", "135010.572500", "135012.072500", "135013.572500", "135015.072500", "135016.572500", "135018.072500", "135019.572500", "135021.072500", "135022.572500", "135024.072500", "135025.572500", "135027.072500", "135028.572500", "135030.072500", "135031.572500", "135033.072500", "135034.572500", "135036.072500", "135037.572500", "135039.072500", "135040.572500", "135042.072500", "135043.572500", "135045.072500", "135046.572500", "135048.072500", "135049.572500", "135051.072500", "135052.572500", "135054.072500", "135055.572500", "135057.072500", "135058.572500", "135100.072500", "135101.572500", "135103.072500", "135104.572500", "135106.072500", "135107.572500", "135109.072500", "135110.572500", "135112.072500", "135113.572500", "135115.072500", "135116.572500", "135118.072500", "135119.572500", "135121.072500", "135122.572500", "135124.072500", "135125.572500", "135127.072500", "135128.572500", "135130.072500", "135131.572500", "135133.072500", "135134.572500", "135136.072500", "135137.572500", "135139.072500"],
      "ContentTime": ["134822.243000", "134822.247000", "134822.250000", "134822.253000", "134822.256000", "134822.259000", "134822.262000", "134822.265000", "134822.268000", "134822.271000", "134822.279000", "134822.282000", "134822.285000", "134822.288000", "134822.291000", "134822.295000", "134822.298000", "134822.301000", "134822.304000", "134822.307000", "134822.310000", "134822.313000", "134822.316000", "134822.320000", "134822.326000", "134822.329000", "134822.332000", "134822.335000", "134822.338000", "134822.341000", "134822.344000", "134902.237000", "134902.240000", "134902.243000", "134902.246000", "134902.249000", "134902.253000", "134902.256000", "134902.259000", "134902.262000", "134902.265000", "134902.268000", "134902.271000", "134902.274000", "134902.277000", "134902.286000", "134902.289000", "134902.292000", "134902.295000", "134902.298000", "134902.301000", "134902.304000", "134902.307000", "134902.310000", "134902.313000", "134902.316000", "134902.319000", "134902.322000", "134942.237000", "134942.240000", "134942.244000", "134942.247000", "134942.250000", "134942.253000", "134942.256000", "134942.259000", "134942.262000", "134942.265000", "134942.268000", "134942.271000", "134942.274000", "134942.277000", "134942.280000", "134942.283000", "134942.286000", "134942.289000", "134942.292000", "134942.295000", "134942.298000", "134942.301000", "134942.304000", "134942.307000", "134942.310000", "134942.313000", "134942.316000", "135022.237000", "135022.241000", "135022.244000", "135022.247000", "135022.250000", "135022.253000", "135022.256000", "135022.260000", "135022.263000", "135022.266000", "135022.269000", "135022.272000", "135022.275000", "135022.278000", "135022.281000", "135022.284000", "135022.287000", "135022.290000", "135022.293000", "135022.296000", "135022.299000", "135022.302000", "135022.305000", "135022.309000", "135022.312000", "135022.315000", "135102.237000", "135102.240000", "135102.243000", "135102.247000", "135102.250000", "135102.253000", "135102.256000", "135102.259000", "135102.262000", "135102.265000", "135102.268000", "135102.271000", "135102.274000", "135102.277000", "135102.280000", "135102.283000", "135102.286000", "135102.289000", "135102.292000", "135102.295000", "135102.299000", "135102.302000", "135102.305000", "135102.308000", "135102.311000", "135102.314000", "135102.317000", "135140.681000", "135140.684000", "135140.688000", "135140.691000", "135140.694000", "135140.697000", "135140.700000", "135140.703000", "135140.707000", "135140.710000", "135140.714000", "135140.717000", "135140.721000", "135140.724000", "135140.727000", "135140.730000", "135140.734000", "135140.737000", "135140.740000", "135140.743000", "135140.763000", "135140.767000", "135140.770000", "135140.773000", "135140.776000", "135140.780000"],
      "InstanceCreationTime": ["134822.243000", "134822.247000", "134822.250000", "134822.253000", "134822.256000", "134822.259000", "134822.262000", "134822.265000", "134822.268000", "134822.271000", "134822.279000", "134822.282000", "134822.285000", "134822.288000", "134822.291000", "134822.295000", "134822.298000", "134822.301000", "134822.304000", "134822.307000", "134822.310000", "134822.313000", "134822.316000", "134822.320000", "134822.326000", "134822.329000", "134822.332000", "134822.335000", "134822.338000", "134822.341000", "134822.344000", "134902.237000", "134902.240000", "134902.243000", "134902.246000", "134902.249000", "134902.253000", "134902.256000", "134902.259000", "134902.262000", "134902.265000", "134902.268000", "134902.271000", "134902.274000", "134902.277000", "134902.286000", "134902.289000", "134902.292000", "134902.295000", "134902.298000", "134902.301000", "134902.304000", "134902.307000", "134902.310000", "134902.313000", "134902.316000", "134902.319000", "134902.322000", "134942.237000", "134942.240000", "134942.244000", "134942.247000", "134942.250000", "134942.253000", "134942.256000", "134942.259000", "134942.262000", "134942.265000", "134942.268000", "134942.271000", "134942.274000", "134942.277000", "134942.280000", "134942.283000", "134942.286000", "134942.289000", "134942.292000", "134942.295000", "134942.298000", "134942.301000", "134942.304000", "134942.307000", "134942.310000", "134942.313000", "134942.316000", "135022.237000", "135022.241000", "135022.244000", "135022.247000", "135022.250000", "135022.253000", "135022.256000", "135022.260000", "135022.263000", "135022.266000", "135022.269000", "135022.272000", "135022.275000", "135022.278000", "135022.281000", "135022.284000", "135022.287000", "135022.290000", "135022.293000", "135022.296000", "135022.299000", "135022.302000", "135022.305000", "135022.309000", "135022.312000", "135022.315000", "135102.237000", "135102.240000", "135102.243000", "135102.247000", "135102.250000", "135102.253000", "135102.256000", "135102.259000", "135102.262000", "135102.265000", "135102.268000", "135102.271000", "135102.274000", "135102.277000", "135102.280000", "135102.283000", "135102.286000", "135102.289000", "135102.292000", "135102.295000", "135102.299000", "135102.302000", "135102.305000", "135102.308000", "135102.311000", "135102.314000", "135102.317000", "135140.681000", "135140.684000", "135140.688000", "135140.691000", "135140.694000", "135140.697000", "135140.700000", "135140.703000", "135140.707000", "135140.710000", "135140.714000", "135140.717000", "135140.721000", "135140.724000", "135140.727000", "135140.730000", "135140.734000", "135140.737000", "135140.740000", "135140.743000", "135140.763000", "135140.767000", "135140.770000", "135140.773000", "135140.776000", "135140.780000"],
      "InstanceNumber": [1, 2, 3, 4, 5, 6, 7, 8, 9, 10, 11, 12, 13, 14, 15, 16, 17, 18, 19, 20, 21, 22, 23, 24, 25, 26, 27, 28, 29, 30, 31, 32, 33, 34, 35, 36, 37, 38, 39, 40, 41, 42, 43, 44, 45, 46, 47, 48, 49, 50, 51, 52, 53, 54, 55, 56, 57, 58, 59, 60, 61, 62, 63, 64, 65, 66, 67, 68, 69, 70, 71, 72, 73, 74, 75, 76, 77, 78, 79, 80, 81, 82, 83, 84, 85, 86, 87, 88, 89, 90, 91, 92, 93, 94, 95, 96, 97, 98, 99, 100, 101, 102, 103, 104, 105, 106, 107, 108, 109, 110, 111, 112, 113, 114, 115, 116, 117, 118, 119, 120, 121, 122, 123, 124, 125, 126, 127, 128, 129, 130, 131, 132, 133, 134, 135, 136, 137, 138, 139, 140, 141, 142, 143, 144, 145, 146, 147, 148, 149, 150, 151, 152, 153, 154, 155, 156, 157, 158, 159, 160, 161, 162, 163, 164],
      "LargestImagePixelValue": [3670, 3621, 3552, 3545, 3507, 3517, 3491, 3503, 3473, 3493, 3497, 3471, 3506, 3484, 3486, 3498, 3482, 3505, 3491, 3502, 3529, 3523, 3533, 3515, 3514, 3474, 3496, 3511, 3503, 3489, 3498, 3463, 3466, 3456, 3478, 3475, 3486, 3483, 3461, 3489, 3466, 3470, 3479, 3490, 3471, 3481, 3486, 3489, 3468, 3471, 3464, 3485, 3461, 3489, 3483, 3456, 3452, 3483, 3441, 3468, 3468, 3470, 3452, 3464, 3448, 3478, 3448, 3470, 3463, 3475, 3443, 3471, 3481, 3497, 3470, 3470, 3474, 3448, 3477, 3484, 3495, 3479, 3473, 3480, 3478, 3473, 3472, 3476, 3452, 3478, 3461, 3491, 3351, 3370, 3390, 3379, 3352, 3382, 3393, 3362, 3375, 3404, 3389, 3394, 3395, 3389, 3413, 3417, 3374, 3392, 3361, 3355, 3368, 3367, 3398, 3392, 3373, 3413, 3404, 3389, 3395, 3410, 3424, 3470, 3446, 3509, 3491, 3508, 3490, 3484, 3512, 3471, 3455, 3490, 3498, 3494, 3492, 3457, 3500, 3459, 3490, 3456, 3521, 3479, 3505, 3484, 3508, 3512, 3499, 3469, 3499, 3487, 3494, 3492, 3509, 3468, 3471, 3464, 3482, 3530, 3448, 3467, 3391, 3408],
      "WindowCenter": [798.0, 795.0, 794.0, 794.0, 794.0, 794.0, 794.0, 794.0, 793.0, 793.0, 793.0, 793.0, 793.0, 793.0, 793.0, 794.0, 793.0, 793.0, 793.0, 792.0, 792.0, 792.0, 793.0, 794.0, 794.0, 794.0, 794.0, 794.0, 793.0, 794.0, 794.0, 794.0, 794.0, 794.0, 795.0, 794.0, 794.0, 794.0, 794.0, 794.0, 794.0, 794.0, 795.0, 795.0, 795.0, 795.0, 795.0, 795.0, 795.0, 795.0, 795.0, 795.0, 794.0, 794.0, 794.0, 794.0, 794.0, 794.0, 794.0, 795.0, 795.0, 795.0, 794.0, 793.0, 793.0, 793.0, 793.0, 794.0, 793.0, 794.0, 793.0, 794.0, 793.0, 793.0, 793.0, 793.0, 793.0, 793.0, 794.0, 794.0, 794.0, 793.0, 793.0, 793.0, 793.0, 792.0, 793.0, 793.0, 793.0, 793.0, 792.0, 793.0, 792.0, 792.0, 792.0, 792.0, 793.0, 793.0, 793.0, 792.0, 792.0, 792.0, 792.0, 792.0, 792.0, 791.0, 792.0, 792.0, 791.0, 791.0, 792.0, 792.0, 792.0, 792.0, 793.0, 792.0, 792.0, 792.0, 792.0, 792.0, 792.0, 792.0, 793.0, 793.0, 794.0, 794.0, 794.0, 794.0, 793.0, 793.0, 792.0, 790.0, 790.0, 791.0, 793.0, 793.0, 792.0, 791.0, 792.0, 791.0, 792.0, 793.0, 794.0, 794.0, 793.0, 793.0, 794.0, 794.0, 793.0, 792.0, 792.0, 792.0, 792.0, 793.0, 793.0, 792.0, 792.0, 792.0, 793.0, 793.0, 791.0, 791.0, 790.0, 790.0],
      "WindowWidth": [1739.0, 1730.0, 1726.0, 1725.0, 1725.0, 1725.0, 1726.0, 1725.0, 1724.0, 1723.0, 1722.0, 1722.0, 1723.0, 1722.0, 1723.0, 1725.0, 1723.0, 1724.0, 1722.0, 1720.0, 1720.0, 1722.0, 1723.0, 1726.0, 1726.0, 1726.0, 1725.0, 1726.0, 1724.0, 1725.0, 1725.0, 1725.0, 1725.0, 1726.0, 1727.0, 1726.0, 1725.0, 1725.0, 1725.0, 1724.0, 1725.0, 1726.0, 1728.0, 1728.0, 1729.0, 1729.0, 1729.0, 1727.0, 1728.0, 1727.0, 1728.0, 1728.0, 1726.0, 1726.0, 1726.0, 1725.0, 1724.0, 1724.0, 1726.0, 1728.0, 1727.0, 1727.0, 1724.0, 1722.0, 1722.0, 1723.0, 1724.0, 1725.0, 1724.0, 1725.0, 1724.0, 1724.0, 1723.0, 1724.0, 1724.0, 1723.0, 1723.0, 1723.0, 1726.0, 1726.0, 1725.0, 1723.0, 1722.0, 1721.0, 1721.0, 1720.0, 1721.0, 1722.0, 1721.0, 1721.0, 1721.0, 1721.0, 1720.0, 1719.0, 1720.0, 1720.0, 1722.0, 1722.0, 1722.0, 1718.0, 1720.0, 1721.0, 1720.0, 1719.0, 1720.0, 1718.0, 1719.0, 1719.0, 1717.0, 1718.0, 1720.0, 1720.0, 1719.0, 1720.0, 1721.0, 1720.0, 1720.0, 1720.0, 1720.0, 1720.0, 1719.0, 1720.0, 1721.0, 1723.0, 1724.0, 1724.0, 1724.0, 1724.0, 1723.0, 1721.0, 1719.0, 1714.0, 1714.0, 1717.0, 1722.0, 1722.0, 1719.0, 1718.0, 1719.0, 1718.0, 1720.0, 1721.0, 1724.0, 1724.0, 1722.0, 1722.0, 1724.0, 1724.0, 1722.0, 1720.0, 1719.0, 1719.0, 1721.0, 1721.0, 1721.0, 1720.0, 1719.0, 1721.0, 1722.0, 1721.0, 1716.0, 1716.0, 1715.0, 1714.0]
    },
    "slices": {}
  }
}