{
  "AcquisitionMatrixPE": 72,
  "AcquisitionNumber": 1,
  "AcquisitionTime": "14:12:5.685000",
  "BandwidthPerPixelPhaseEncode": 17.943,
  "BaseResolution": 96,
  "BodyPartExamined": "BRAIN",
  "CoilCombinationMethod": "Sum of Squares",
  "ConsistencyInfo": "N4_VE11C_LATEST_20160120",
  "ConversionSoftware": "dcm2niix",
  "ConversionSoftwareVersion": "v1.0.20211006",
  "DerivedVendorReportedEchoSpacing": 0.000552897,
  "DeviceSerialNumber": "166011",
  "EchoTime": 0.03,
  "EchoTrainLength": 58,
  "EffectiveEchoSpacing": 0.000580542,
  "FlipAngle": 62,
  "ImageOrientationPatientDICOM": [0.999319, -0.0275329, -0.0245803, 0.0235503, 0.988445, -0.149736],
  "ImageType": [
    "ORIGINAL",
    "PRIMARY",
    "M",
    "ND",
    "MOSAIC"
],
  "ImagingFrequency": 123.259,
  "InPlanePhaseEncodingDirectionDICOM": "COL",
  "InstitutionAddress": "West 130th Street 610,NY,NYC,US,10025",
  "InstitutionName": "MBBI",
  "MRAcquisitionType": "2D",
  "MagneticFieldStrength": 3,
  "Manufacturer": "Siemens",
  "ManufacturersModelName": "Prisma",
  "Modality": "MR",
  "MultibandAccelerationFactor": 3,
  "PartialFourier": 0.75,
  "PatientPosition": "HFS",
  "PercentPhaseFOV": 100,
  "PercentSampling": 75,
  "PhaseEncodingDirection": "j-",
  "PhaseEncodingSteps": 58,
  "PhaseOversampling": 0.05,
  "PhaseResolution": 0.75,
  "PixelBandwidth": 2265,
  "ProcedureStepDescription": "White^Word_recognition",
  "ProtocolName": "func_vwfate_run4",
  "PulseSequenceDetails": "%SiemensSeq%\\ep2d_bold",
  "ReceiveCoilActiveElements": "HC1-7",
  "ReceiveCoilName": "HeadNeck_64",
  "ReconMatrixPE": 96,
  "RefLinesPE": 40,
  "RepetitionTime": 1.5,
  "SAR": 0.0538797,
  "ScanOptions": "PFP\\FS",
  "ScanningSequence": "EP",
  "SequenceName": "*epfid2d1_72",
  "SequenceVariant": "SK\\OSP",
  "SeriesDescription": "func_vwfate_run4",
  "SeriesNumber": 12,
  "ShimSetting": [-1178, -1361, 705, 561, -97, 88, 66, -20],
  "SliceThickness": 2,
  "SliceTiming": [1.0775, 0, 0.74, 0.0675, 0.8075, 0.135, 0.875, 0.2025, 0.9425, 0.27, 1.01, 0.405, 1.145, 0.4725, 1.2125, 0.5375, 1.2775, 0.605, 1.345, 0.6725, 1.4125, 0.3375, 1.0775, 0, 0.74, 0.0675, 0.8075, 0.135, 0.875, 0.2025, 0.9425, 0.27, 1.01, 0.405, 1.145, 0.4725, 1.2125, 0.5375, 1.2775, 0.605, 1.345, 0.6725, 1.4125, 0.3375, 1.0775, 0, 0.74, 0.0675, 0.8075, 0.135, 0.875, 0.2025, 0.9425, 0.27, 1.01, 0.405, 1.145, 0.4725, 1.2125, 0.5375, 1.2775, 0.605, 1.345, 0.6725, 1.4125, 0.3375],
  "SoftwareVersions": "syngo MR E11",
  "SpacingBetweenSlices": 2,
  "StationName": "AWP166011",
  "TaskName": "vwfate",
  "TotalReadoutTime": 0.0551515,
  "TxRefAmp": 229.68,
  "dcmmeta_affine": [
    [-1.998637318611145, 0.047100502997636795, -0.05683791637420654, 98.64234924316406],
    [0.055065788328647614, 1.9768909215927124, -0.2981104850769043, -72.34800720214844],
    [-0.04916060343384743, 0.29947224259376526, 1.976840853691101, -62.37535858154297],
    [0.0, 0.0, 0.0, 1.0]
],
  "dcmmeta_reorient_transform": [
    [0.0, -1.0, 0.0, 95.0],
    [1.0, 0.0, 0.0, 0.0],
    [0.0, 0.0, 1.0, 0.0],
    [0.0, 0.0, 0.0, 1.0]
],
  "dcmmeta_shape": [96, 96, 66, 164],
  "dcmmeta_slice_dim": 2,
  "dcmmeta_version": 0.6,
  "global": {
    "const": {
      "AcquisitionMatrix": [96, 0, 0, 72],
      "AngioFlag": "N",
      "BitsAllocated": 16,
      "BitsStored": 12,
      "BodyPartExamined": "BRAIN",
      "Columns": 864,
      "EchoNumbers": 1,
      "EchoTime": 30.0,
      "EchoTrainLength": 58,
      "FlipAngle": 62.0,
      "HighBit": 11,
      "ImageOrientationPatient": [0.99931864211347, -0.0275328942652, -0.0245803022329, 0.02355025189587, 0.98844548535231, -0.1497361283134],
      "ImagePositionPatient": [-888.68020603341, -853.43750122122, 99.949525844286],
      "ImageType": [
        "ORIGINAL",
        "PRIMARY",
        "M",
        "ND",
        "MOSAIC"
],
      "ImagedNucleus": "1H",
      "ImagingFrequency": 123.259451,
      "InPlanePhaseEncodingDirection": "COL",
      "MRAcquisitionType": "2D",
      "MagneticFieldStrength": 3.0,
      "Manufacturer": "SIEMENS",
      "ManufacturerModelName": "Prisma",
      "Modality": "MR",
      "NumberOfAverages": 1.0,
      "NumberOfPhaseEncodingSteps": 58,
      "PercentPhaseFieldOfView": 100.0,
      "PercentSampling": 75.0,
      "PerformedProcedureStepStartTime": "132627.271000",
      "PhotometricInterpretation": "MONOCHROME2",
      "PixelBandwidth": 2265.0,
      "PixelRepresentation": 0,
      "PixelSpacing": [2.0, 2.0],
      "ProtocolName": "func_vwfate_run4",
      "RepetitionTime": 1500.0,
      "Rows": 864,
      "SAR": 0.05387972095378,
      "SamplesPerPixel": 1,
      "ScanOptions": [
        "PFP",
        "FS"
],
      "ScanningSequence": "EP",
      "SequenceName": "*epfid2d1_72",
      "SequenceVariant": [
        "SK",
        "OSP"
],
      "SeriesDescription": "func_vwfate_run4",
      "SeriesNumber": 12,
      "SeriesTime": "141244.882000",
      "SliceLocation": -53.672539077964,
      "SliceThickness": 2.0,
      "SmallestImagePixelValue": 0,
      "SoftwareVersions": "syngo MR E11",
      "SpacingBetweenSlices": 2.0000000408602,
      "SpecificCharacterSet": "ISO_IR 100",
      "StudyID": "1",
      "StudyTime": "132627.168000",
      "TransmitCoilName": "Body",
      "VariableFlipAngleFlag": "N",
      "WindowCenterWidthExplanation": "Algo1",
      "dBdt": 0.0},
    "slices": {}
  },
  "time": {
    "samples": {
      "AcquisitionNumber": [1, 2, 3, 4, 5, 6, 7, 8, 9, 10, 11, 12, 13, 14, 15, 16, 17, 18, 19, 20, 21, 22, 23, 24, 25, 26, 27, 28, 29, 30, 31, 32, 33, 34, 35, 36, 37, 38, 39, 40, 41, 42, 43, 44, 45, 46, 47, 48, 49, 50, 51, 52, 53, 54, 55, 56, 57, 58, 59, 60, 61, 62, 63, 64, 65, 66, 67, 68, 69, 70, 71, 72, 73, 74, 75, 76, 77, 78, 79, 80, 81, 82, 83, 84, 85, 86, 87, 88, 89, 90, 91, 92, 93, 94, 95, 96, 97, 98, 99, 100, 101, 102, 103, 104, 105, 106, 107, 108, 109, 110, 111, 112, 113, 114, 115, 116, 117, 118, 119, 120, 121, 122, 123, 124, 125, 126, 127, 128, 129, 130, 131, 132, 133, 134, 135, 136, 137, 138, 139, 140, 141, 142, 143, 144, 145, 146, 147, 148, 149, 150, 151, 152, 153, 154, 155, 156, 157, 158, 159, 160, 161, 162, 163, 164],
      "AcquisitionTime": ["141205.685000", "141207.185000", "141208.685000", "141210.185000", "141211.685000", "141213.185000", "141214.685000", "141216.185000", "141217.685000", "141219.185000", "141220.685000", "141222.185000", "141223.685000", "141225.185000", "141226.685000", "141228.185000", "141229.685000", "141231.185000", "141232.685000", "141234.185000", "141235.685000", "141237.185000", "141238.685000", "141240.185000", "141241.685000", "141243.185000", "141244.685000", "141246.185000", "141247.685000", "141249.185000", "141250.685000", "141252.185000", "141253.685000", "141255.185000", "141256.685000", "141258.185000", "141259.685000", "141301.185000", "141302.685000", "141304.185000", "141305.685000", "141307.185000", "141308.685000", "141310.185000", "141311.685000", "141313.185000", "141314.685000", "141316.185000", "141317.685000", "141319.185000", "141320.685000", "141322.185000", "141323.685000", "141325.185000", "141326.685000", "141328.185000", "141329.685000", "141331.185000", "141332.685000", "141334.185000", "141335.685000", "141337.185000", "141338.685000", "141340.185000", "141341.685000", "141343.185000", "141344.685000", "141346.185000", "141347.685000", "141349.185000", "141350.685000", "141352.185000", "141353.685000", "141355.185000", "141356.685000", "141358.185000", "141359.685000", "141401.185000", "141402.685000", "141404.185000", "141405.685000", "141407.185000", "141408.685000", "141410.185000", "141411.685000", "141413.185000", "141414.685000", "141416.185000", "141417.685000", "141419.185000", "141420.685000", "141422.185000", "141423.685000", "141425.185000", "141426.685000", "141428.185000", "141429.685000", "141431.185000", "141432.685000", "141434.185000", "141435.685000", "141437.185000", "141438.685000", "141440.185000", "141441.685000", "141443.185000", "141444.685000", "141446.185000", "141447.685000", "141449.185000", "141450.685000", "141452.185000", "141453.685000", "141455.185000", "141456.685000", "141458.185000", "141459.685000", "141501.185000", "141502.685000", "141504.185000", "141505.685000", "141507.185000", "141508.685000", "141510.185000", "141511.685000", "141513.185000", "141514.685000", "141516.185000", "141517.685000", "141519.185000", "141520.685000", "141522.185000", "141523.685000", "141525.185000", "141526.685000", "141528.185000", "141529.685000", "141531.185000", "141532.685000", "141534.185000", "141535.685000", "141537.185000", "141538.685000", "141540.185000", "141541.685000", "141543.185000", "141544.685000", "141546.185000", "141547.685000", "141549.185000", "141550.685000", "141552.185000", "141553.685000", "141555.185000", "141556.685000", "141558.185000", "141559.685000", "141601.185000", "141602.685000", "141604.185000", "141605.685000", "141607.185000", "141608.685000", "141610.185000"],
      "ContentTime": ["141244.886000", "141244.890000", "141244.893000", "141244.896000", "141244.899000", "141244.902000", "141244.905000", "141244.908000", "141244.911000", "141244.914000", "141244.917000", "141244.921000", "141244.924000", "141244.927000", "141244.930000", "141244.941000", "141244.944000", "141244.947000", "141244.950000", "141244.953000", "141244.962000", "141244.965000", "141244.968000", "141244.971000", "141244.974000", "141244.977000", "141324.881000", "141324.884000", "141324.895000", "141324.898000", "141324.901000", "141324.904000", "141324.907000", "141324.910000", "141324.914000", "141324.917000", "141324.920000", "141324.923000", "141324.926000", "141324.929000", "141324.932000", "141324.935000", "141324.947000", "141324.950000", "141324.953000", "141324.956000", "141324.959000", "141324.962000", "141324.965000", "141324.968000", "141324.971000", "141324.974000", "141404.881000", "141404.884000", "141404.887000", "141404.890000", "141404.893000", "141404.897000", "141404.903000", "141404.906000", "141404.909000", "141404.912000", "141404.929000", "141404.932000", "141404.935000", "141404.938000", "141404.941000", "141404.944000", "141404.947000", "141404.950000", "141404.953000", "141404.956000", "141404.959000", "141404.962000", "141404.965000", "141404.968000", "141404.971000", "141404.974000", "141404.977000", "141444.881000", "141444.884000", "141444.887000", "141444.890000", "141444.893000", "141444.896000", "141444.899000", "141444.902000", "141444.905000", "141444.908000", "141444.912000", "141444.915000", "141444.917000", "141444.928000", "141444.931000", "141444.934000", "141444.937000", "141444.940000", "141444.943000", "141444.946000", "141444.950000", "141444.953000", "141444.956000", "141444.959000", "141444.962000", "141444.965000", "141444.968000", "141524.880000", "141524.883000", "141524.887000", "141524.890000", "141524.893000", "141524.896000", "141524.899000", "141524.902000", "141524.905000", "141524.908000", "141524.911000", "141524.914000", "141524.917000", "141524.920000", "141524.923000", "141524.926000", "141524.929000", "141524.940000", "141524.943000", "141524.946000", "141524.949000", "141524.952000", "141524.955000", "141524.958000", "141524.961000", "141524.964000", "141604.881000", "141604.884000", "141604.887000", "141604.890000", "141604.894000", "141604.897000", "141604.900000", "141604.903000", "141604.906000", "141604.909000", "141604.912000", "141604.915000", "141604.918000", "141604.921000", "141604.924000", "141604.927000", "141604.930000", "141604.933000", "141604.936000", "141604.939000", "141604.942000", "141604.945000", "141604.948000", "141604.951000", "141604.954000", "141604.957000", "141604.961000", "141611.828000", "141611.831000", "141611.835000", "141611.838000", "141611.841000"],
      "InstanceCreationTime": ["141244.886000", "141244.890000", "141244.893000", "141244.896000", "141244.899000", "141244.902000", "141244.905000", "141244.908000", "141244.911000", "141244.914000", "141244.917000", "141244.921000", "141244.924000", "141244.927000", "141244.930000", "141244.941000", "141244.944000", "141244.947000", "141244.950000", "141244.953000", "141244.962000", "141244.965000", "141244.968000", "141244.971000", "141244.974000", "141244.977000", "141324.881000", "141324.884000", "141324.895000", "141324.898000", "141324.901000", "141324.904000", "141324.907000", "141324.910000", "141324.914000", "141324.917000", "141324.920000", "141324.923000", "141324.926000", "141324.929000", "141324.932000", "141324.935000", "141324.947000", "141324.950000", "141324.953000", "141324.956000", "141324.959000", "141324.962000", "141324.965000", "141324.968000", "141324.971000", "141324.974000", "141404.881000", "141404.884000", "141404.887000", "141404.890000", "141404.893000", "141404.897000", "141404.903000", "141404.906000", "141404.909000", "141404.912000", "141404.929000", "141404.932000", "141404.935000", "141404.938000", "141404.941000", "141404.944000", "141404.947000", "141404.950000", "141404.953000", "141404.956000", "141404.959000", "141404.962000", "141404.965000", "141404.968000", "141404.971000", "141404.974000", "141404.977000", "141444.881000", "141444.884000", "141444.887000", "141444.890000", "141444.893000", "141444.896000", "141444.899000", "141444.902000", "141444.905000", "141444.908000", "141444.912000", "141444.915000", "141444.917000", "141444.928000", "141444.931000", "141444.934000", "141444.937000", "141444.940000", "141444.943000", "141444.946000", "141444.950000", "141444.953000", "141444.956000", "141444.959000", "141444.962000", "141444.965000", "141444.968000", "141524.880000", "141524.883000", "141524.887000", "141524.890000", "141524.893000", "141524.896000", "141524.899000", "141524.902000", "141524.905000", "141524.908000", "141524.911000", "141524.914000", "141524.917000", "141524.920000", "141524.923000", "141524.926000", "141524.929000", "141524.940000", "141524.943000", "141524.946000", "141524.949000", "141524.952000", "141524.955000", "141524.958000", "141524.961000", "141524.964000", "141604.881000", "141604.884000", "141604.887000", "141604.890000", "141604.894000", "141604.897000", "141604.900000", "141604.903000", "141604.906000", "141604.909000", "141604.912000", "141604.915000", "141604.918000", "141604.921000", "141604.924000", "141604.927000", "141604.930000", "141604.933000", "141604.936000", "141604.939000", "141604.942000", "141604.945000", "141604.948000", "141604.951000", "141604.954000", "141604.957000", "141604.961000", "141611.828000", "141611.831000", "141611.835000", "141611.838000", "141611.841000"],
      "InstanceNumber": [1, 2, 3, 4, 5, 6, 7, 8, 9, 10, 11, 12, 13, 14, 15, 16, 17, 18, 19, 20, 21, 22, 23, 24, 25, 26, 27, 28, 29, 30, 31, 32, 33, 34, 35, 36, 37, 38, 39, 40, 41, 42, 43, 44, 45, 46, 47, 48, 49, 50, 51, 52, 53, 54, 55, 56, 57, 58, 59, 60, 61, 62, 63, 64, 65, 66, 67, 68, 69, 70, 71, 72, 73, 74, 75, 76, 77, 78, 79, 80, 81, 82, 83, 84, 85, 86, 87, 88, 89, 90, 91, 92, 93, 94, 95, 96, 97, 98, 99, 100, 101, 102, 103, 104, 105, 106, 107, 108, 109, 110, 111, 112, 113, 114, 115, 116, 117, 118, 119, 120, 121, 122, 123, 124, 125, 126, 127, 128, 129, 130, 131, 132, 133, 134, 135, 136, 137, 138, 139, 140, 141, 142, 143, 144, 145, 146, 147, 148, 149, 150, 151, 152, 153, 154, 155, 156, 157, 158, 159, 160, 161, 162, 163, 164],
      "LargestImagePixelValue": [3506, 3415, 3389, 3355, 3350, 3319, 3340, 3349, 3315, 3359, 3344, 3331, 3355, 3377, 3352, 3403, 3406, 3385, 3391, 3405, 3376, 3396, 3394, 3379, 3384, 3391, 3387, 3400, 3385, 3419, 3333, 3420, 3397, 3427, 3374, 3414, 3333, 3400, 3354, 3389, 3326, 3384, 3345, 3387, 3371, 3385, 3443, 3389, 3413, 3387, 3436, 3377, 3446, 3462, 3432, 3459, 3470, 3415, 3453, 3389, 3404, 3435, 3444, 3446, 3433, 3420, 3445, 3442, 3427, 3425, 3412, 3447, 3408, 3455, 3420, 3449, 3377, 3377, 3428, 3391, 3424, 3401, 3425, 3395, 3398, 3390, 3392, 3419, 3422, 3436, 3487, 3462, 3463, 3436, 3406, 3415, 3405, 3430, 3432, 3475, 3471, 3459, 3454, 3405, 3390, 3436, 3450, 3438, 3428, 3451, 3450, 3376, 3371, 3443, 3433, 3465, 3459, 3385, 3420, 3431, 3470, 3461, 3451, 3480, 3471, 3424, 3418, 3411, 3368, 3412, 3484, 3390, 3413, 3387, 3401, 3400, 3407, 3389, 3442, 3423, 3389, 3404, 3449, 3440, 3416, 3458, 3383, 3417, 3449, 3440, 3484, 3472, 3475, 3455, 3480, 3440, 3455, 3458, 3450, 3444, 3407, 3412, 3484, 3479],
      "WindowCenter": [796.0, 794.0, 794.0, 794.0, 795.0, 795.0, 795.0, 796.0, 795.0, 796.0, 795.0, 795.0, 795.0, 795.0, 795.0, 795.0, 795.0, 795.0, 796.0, 797.0, 797.0, 798.0, 798.0, 797.0, 797.0, 797.0, 797.0, 797.0, 796.0, 796.0, 795.0, 794.0, 794.0, 794.0, 794.0, 794.0, 793.0, 792.0, 792.0, 792.0, 792.0, 794.0, 794.0, 795.0, 795.0, 794.0, 794.0, 794.0, 794.0, 794.0, 794.0, 793.0, 794.0, 794.0, 794.0, 795.0, 795.0, 796.0, 795.0, 795.0, 795.0, 794.0, 794.0, 794.0, 793.0, 793.0, 792.0, 792.0, 791.0, 791.0, 791.0, 792.0, 792.0, 794.0, 794.0, 795.0, 793.0, 793.0, 793.0, 792.0, 792.0, 792.0, 793.0, 793.0, 794.0, 795.0, 795.0, 794.0, 794.0, 794.0, 795.0, 794.0, 793.0, 792.0, 791.0, 791.0, 790.0, 791.0, 791.0, 792.0, 793.0, 793.0, 793.0, 792.0, 792.0, 792.0, 793.0, 793.0, 792.0, 793.0, 794.0, 794.0, 794.0, 793.0, 793.0, 793.0, 793.0, 792.0, 791.0, 791.0, 792.0, 792.0, 792.0, 791.0, 791.0, 791.0, 791.0, 791.0, 792.0, 792.0, 793.0, 794.0, 796.0, 794.0, 792.0, 791.0, 790.0, 789.0, 788.0, 788.0, 787.0, 788.0, 788.0, 790.0, 790.0, 790.0, 790.0, 791.0, 793.0, 794.0, 794.0, 793.0, 793.0, 792.0, 792.0, 792.0, 792.0, 792.0, 792.0, 792.0, 793.0, 793.0, 795.0, 796.0],
      "WindowWidth": [1731.0, 1725.0, 1722.0, 1722.0, 1725.0, 1725.0, 1727.0, 1727.0, 1726.0, 1728.0, 1726.0, 1725.0, 1725.0, 1725.0, 1726.0, 1726.0, 1726.0, 1726.0, 1728.0, 1730.0, 1732.0, 1734.0, 1734.0, 1732.0, 1732.0, 1731.0, 1731.0, 1731.0, 1729.0, 1728.0, 1725.0, 1724.0, 1724.0, 1723.0, 1723.0, 1723.0, 1720.0, 1719.0, 1718.0, 1717.0, 1718.0, 1722.0, 1724.0, 1725.0, 1724.0, 1722.0, 1722.0, 1723.0, 1723.0, 1722.0, 1723.0, 1722.0, 1722.0, 1722.0, 1724.0, 1726.0, 1727.0, 1728.0, 1727.0, 1726.0, 1726.0, 1724.0, 1722.0, 1722.0, 1721.0, 1720.0, 1719.0, 1718.0, 1717.0, 1716.0, 1715.0, 1717.0, 1719.0, 1723.0, 1724.0, 1725.0, 1722.0, 1720.0, 1720.0, 1719.0, 1719.0, 1719.0, 1720.0, 1720.0, 1723.0, 1726.0, 1725.0, 1723.0, 1723.0, 1724.0, 1726.0, 1723.0, 1720.0, 1717.0, 1715.0, 1715.0, 1713.0, 1714.0, 1714.0, 1717.0, 1720.0, 1722.0, 1721.0, 1719.0, 1718.0, 1719.0, 1721.0, 1721.0, 1719.0, 1720.0, 1723.0, 1724.0, 1724.0, 1722.0, 1721.0, 1720.0, 1719.0, 1717.0, 1716.0, 1716.0, 1719.0, 1717.0, 1716.0, 1716.0, 1716.0, 1715.0, 1715.0, 1717.0, 1717.0, 1718.0, 1721.0, 1724.0, 1728.0, 1723.0, 1718.0, 1715.0, 1712.0, 1709.0, 1708.0, 1707.0, 1705.0, 1706.0, 1708.0, 1711.0, 1711.0, 1711.0, 1712.0, 1716.0, 1720.0, 1722.0, 1722.0, 1719.0, 1719.0, 1717.0, 1718.0, 1718.0, 1717.0, 1718.0, 1719.0, 1718.0, 1719.0, 1721.0, 1726.0, 1730.0]
    },
    "slices": {}
  }
}