{
  "AcquisitionMatrixPE": 72,
  "AcquisitionNumber": 1,
  "AcquisitionTime": "17:32:27.840000",
  "BandwidthPerPixelPhaseEncode": 17.943,
  "BaseResolution": 96,
  "BodyPartExamined": "BRAIN",
  "CoilCombinationMethod": "Sum of Squares",
  "ConsistencyInfo": "N4_VE11C_LATEST_20160120",
  "ConversionSoftware": "dcm2niix",
  "ConversionSoftwareVersion": "v1.0.20211006",
  "DerivedVendorReportedEchoSpacing": 0.000552897,
  "DeviceSerialNumber": "166011",
  "EchoTime": 0.03,
  "EchoTrainLength": 58,
  "EffectiveEchoSpacing": 0.000580542,
  "FlipAngle": 62,
  "ImageOrientationPatientDICOM": [0.99765, -0.00897437, -0.0679262, -0.00365656, 0.982998, -0.183578],
  "ImageType": [
    "ORIGINAL",
    "PRIMARY",
    "M",
    "ND",
    "MOSAIC"
],
  "ImagingFrequency": 123.259,
  "InPlanePhaseEncodingDirectionDICOM": "COL",
  "InstitutionAddress": "West 130th Street 610,NY,NYC,US,10025",
  "InstitutionName": "MBBI",
  "MRAcquisitionType": "2D",
  "MagneticFieldStrength": 3,
  "Manufacturer": "Siemens",
  "ManufacturersModelName": "Prisma",
  "Modality": "MR",
  "MultibandAccelerationFactor": 3,
  "PartialFourier": 0.75,
  "PatientPosition": "HFS",
  "PercentPhaseFOV": 100,
  "PercentSampling": 75,
  "PhaseEncodingDirection": "j-",
  "PhaseEncodingSteps": 58,
  "PhaseOversampling": 0.05,
  "PhaseResolution": 0.75,
  "PixelBandwidth": 2265,
  "ProcedureStepDescription": "White^Word_recognition",
  "ProtocolName": "func_vwfate_run11",
  "PulseSequenceDetails": "%SiemensSeq%\\ep2d_bold",
  "ReceiveCoilActiveElements": "HC1-7",
  "ReceiveCoilName": "HeadNeck_64",
  "ReconMatrixPE": 96,
  "RefLinesPE": 40,
  "RepetitionTime": 1.5,
  "SAR": 0.0488657,
  "ScanOptions": "PFP\\FS",
  "ScanningSequence": "EP",
  "SequenceName": "*epfid2d1_72",
  "SequenceVariant": "SK\\OSP",
  "SeriesDescription": "func_vwfate_run11",
  "SeriesNumber": 14,
  "ShimSetting": [-1167, -1325, 670, 657, -88, -35, -14, 47],
  "SliceThickness": 2,
  "SliceTiming": [1.075, 0, 0.74, 0.0675, 0.8075, 0.135, 0.875, 0.2025, 0.9425, 0.27, 1.0075, 0.4025, 1.1425, 0.47, 1.21, 0.5375, 1.2775, 0.605, 1.345, 0.6725, 1.4125, 0.335, 1.075, 0, 0.74, 0.0675, 0.8075, 0.135, 0.875, 0.2025, 0.9425, 0.27, 1.0075, 0.4025, 1.1425, 0.47, 1.21, 0.5375, 1.2775, 0.605, 1.345, 0.6725, 1.4125, 0.335, 1.075, 0, 0.74, 0.0675, 0.8075, 0.135, 0.875, 0.2025, 0.9425, 0.27, 1.0075, 0.4025, 1.1425, 0.47, 1.21, 0.5375, 1.2775, 0.605, 1.345, 0.6725, 1.4125, 0.335],
  "SoftwareVersions": "syngo MR E11",
  "SpacingBetweenSlices": 2,
  "StationName": "AWP166011",
  "TaskName": "vwfate",
  "TotalReadoutTime": 0.0551515,
  "TxRefAmp": 222.783,
  "dcmmeta_affine": [
    [-1.9952999353408813, -0.007313124369829893, -0.13683761656284332, 98.66490936279297],
    [0.017948731780052185, 1.9659966230392456, -0.36679011583328247, -58.384708404541016],
    [-0.13585233688354492, 0.36715617775917053, 1.9613109827041626, -71.38602447509766],
    [0.0, 0.0, 0.0, 1.0]
],
  "dcmmeta_reorient_transform": [
    [0.0, -1.0, 0.0, 95.0],
    [1.0, 0.0, 0.0, 0.0],
    [0.0, 0.0, 1.0, 0.0],
    [0.0, 0.0, 0.0, 1.0]
],
  "dcmmeta_shape": [96, 96, 66, 164],
  "dcmmeta_slice_dim": 2,
  "dcmmeta_version": 0.6,
  "global": {
    "const": {
      "AcquisitionMatrix": [96, 0, 0, 72],
      "AngioFlag": "N",
      "BitsAllocated": 16,
      "BitsStored": 12,
      "BodyPartExamined": "BRAIN",
      "Columns": 864,
      "EchoNumbers": 1,
      "EchoTime": 30.0,
      "EchoTrainLength": 58,
      "FlipAngle": 62.0,
      "HighBit": 11,
      "ImageOrientationPatient": [0.99764998697909, -0.0089743662924, -0.067926167493, -0.0036565620903, 0.98299832853318, -0.1835780914343],
      "ImagePositionPatient": [-861.35711280322, -876.4353769295, 156.64908690919],
      "ImageType": [
        "ORIGINAL",
        "PRIMARY",
        "M",
        "ND",
        "MOSAIC"
],
      "ImagedNucleus": "1H",
      "ImagingFrequency": 123.259486,
      "InPlanePhaseEncodingDirection": "COL",
      "MRAcquisitionType": "2D",
      "MagneticFieldStrength": 3.0,
      "Manufacturer": "SIEMENS",
      "ManufacturerModelName": "Prisma",
      "Modality": "MR",
      "NumberOfAverages": 1.0,
      "NumberOfPhaseEncodingSteps": 58,
      "PercentPhaseFieldOfView": 100.0,
      "PercentSampling": 75.0,
      "PerformedProcedureStepStartTime": "163247.174000",
      "PhotometricInterpretation": "MONOCHROME2",
      "PixelBandwidth": 2265.0,
      "PixelRepresentation": 0,
      "PixelSpacing": [2.0, 2.0],
      "ProtocolName": "func_vwfate_run11",
      "RepetitionTime": 1500.0,
      "Rows": 864,
      "SAR": 0.04886570144596,
      "SamplesPerPixel": 1,
      "ScanOptions": [
        "PFP",
        "FS"
],
      "ScanningSequence": "EP",
      "SequenceName": "*epfid2d1_72",
      "SequenceVariant": [
        "SK",
        "OSP"
],
      "SeriesDescription": "func_vwfate_run11",
      "SeriesNumber": 14,
      "SeriesTime": "173257.493000",
      "SliceLocation": -66.048159542873,
      "SliceThickness": 2.0,
      "SmallestImagePixelValue": 0,
      "SoftwareVersions": "syngo MR E11",
      "SpacingBetweenSlices": 2.0000000189202,
      "SpecificCharacterSet": "ISO_IR 100",
      "StudyID": "2",
      "StudyTime": "163247.124000",
      "TransmitCoilName": "Body",
      "VariableFlipAngleFlag": "N",
      "WindowCenterWidthExplanation": "Algo1",
      "dBdt": 0.0},
    "slices": {}
  },
  "time": {
    "samples": {
      "AcquisitionNumber": [1, 2, 3, 4, 5, 6, 7, 8, 9, 10, 11, 12, 13, 14, 15, 16, 17, 18, 19, 20, 21, 22, 23, 24, 25, 26, 27, 28, 29, 30, 31, 32, 33, 34, 35, 36, 37, 38, 39, 40, 41, 42, 43, 44, 45, 46, 47, 48, 49, 50, 51, 52, 53, 54, 55, 56, 57, 58, 59, 60, 61, 62, 63, 64, 65, 66, 67, 68, 69, 70, 71, 72, 73, 74, 75, 76, 77, 78, 79, 80, 81, 82, 83, 84, 85, 86, 87, 88, 89, 90, 91, 92, 93, 94, 95, 96, 97, 98, 99, 100, 101, 102, 103, 104, 105, 106, 107, 108, 109, 110, 111, 112, 113, 114, 115, 116, 117, 118, 119, 120, 121, 122, 123, 124, 125, 126, 127, 128, 129, 130, 131, 132, 133, 134, 135, 136, 137, 138, 139, 140, 141, 142, 143, 144, 145, 146, 147, 148, 149, 150, 151, 152, 153, 154, 155, 156, 157, 158, 159, 160, 161, 162, 163, 164],
      "AcquisitionTime": ["173227.840000", "173229.340000", "173230.840000", "173232.340000", "173233.840000", "173235.340000", "173236.840000", "173238.340000", "173239.840000", "173241.340000", "173242.840000", "173244.340000", "173245.840000", "173247.340000", "173248.840000", "173250.340000", "173251.840000", "173253.340000", "173254.840000", "173256.340000", "173257.840000", "173259.340000", "173300.840000", "173302.340000", "173303.840000", "173305.340000", "173306.840000", "173308.340000", "173309.840000", "173311.340000", "173312.840000", "173314.340000", "173315.840000", "173317.340000", "173318.840000", "173320.340000", "173321.840000", "173323.340000", "173324.840000", "173326.340000", "173327.840000", "173329.340000", "173330.840000", "173332.340000", "173333.840000", "173335.340000", "173336.840000", "173338.340000", "173339.840000", "173341.340000", "173342.840000", "173344.340000", "173345.840000", "173347.340000", "173348.840000", "173350.340000", "173351.840000", "173353.340000", "173354.840000", "173356.340000", "173357.840000", "173359.340000", "173400.840000", "173402.340000", "173403.840000", "173405.340000", "173406.840000", "173408.340000", "173409.840000", "173411.340000", "173412.840000", "173414.340000", "173415.840000", "173417.340000", "173418.840000", "173420.340000", "173421.840000", "173423.340000", "173424.840000", "173426.340000", "173427.840000", "173429.340000", "173430.840000", "173432.340000", "173433.840000", "173435.340000", "173436.840000", "173438.340000", "173439.840000", "173441.340000", "173442.840000", "173444.340000", "173445.840000", "173447.340000", "173448.840000", "173450.340000", "173451.840000", "173453.340000", "173454.840000", "173456.340000", "173457.840000", "173459.340000", "173500.840000", "173502.340000", "173503.840000", "173505.340000", "173506.840000", "173508.340000", "173509.840000", "173511.340000", "173512.840000", "173514.340000", "173515.840000", "173517.340000", "173518.840000", "173520.340000", "173521.840000", "173523.340000", "173524.840000", "173526.340000", "173527.840000", "173529.340000", "173530.840000", "173532.340000", "173533.840000", "173535.340000", "173536.840000", "173538.340000", "173539.840000", "173541.340000", "173542.840000", "173544.340000", "173545.840000", "173547.340000", "173548.840000", "173550.340000", "173551.840000", "173553.340000", "173554.840000", "173556.340000", "173557.840000", "173559.340000", "173600.840000", "173602.340000", "173603.840000", "173605.340000", "173606.840000", "173608.340000", "173609.840000", "173611.340000", "173612.840000", "173614.340000", "173615.840000", "173617.340000", "173618.840000", "173620.340000", "173621.840000", "173623.340000", "173624.840000", "173626.340000", "173627.840000", "173629.340000", "173630.840000", "173632.340000"],
      "ContentTime": ["173257.497000", "173257.501000", "173257.504000", "173257.507000", "173257.510000", "173257.513000", "173257.516000", "173257.519000", "173257.522000", "173257.525000", "173257.528000", "173257.531000", "173257.534000", "173257.550000", "173257.553000", "173257.556000", "173257.559000", "173257.562000", "173257.565000", "173257.568000", "173337.491000", "173337.494000", "173337.497000", "173337.501000", "173337.504000", "173337.508000", "173337.511000", "173337.514000", "173337.517000", "173337.520000", "173337.523000", "173337.526000", "173337.529000", "173337.537000", "173337.540000", "173337.543000", "173337.546000", "173337.549000", "173337.552000", "173337.555000", "173337.558000", "173337.561000", "173337.564000", "173337.567000", "173337.570000", "173337.573000", "173417.492000", "173417.495000", "173417.498000", "173417.501000", "173417.504000", "173417.507000", "173417.510000", "173417.514000", "173417.517000", "173417.519000", "173417.522000", "173417.525000", "173417.528000", "173417.531000", "173417.534000", "173417.537000", "173417.554000", "173417.557000", "173417.559000", "173417.563000", "173417.565000", "173417.568000", "173417.571000", "173417.584000", "173417.587000", "173417.590000", "173417.593000", "173457.492000", "173457.495000", "173457.498000", "173457.501000", "173457.504000", "173457.507000", "173457.510000", "173457.513000", "173457.516000", "173457.519000", "173457.522000", "173457.525000", "173457.528000", "173457.531000", "173457.534000", "173457.537000", "173457.540000", "173457.542000", "173457.546000", "173457.548000", "173457.551000", "173457.554000", "173457.557000", "173457.560000", "173457.563000", "173457.566000", "173457.569000", "173537.491000", "173537.494000", "173537.497000", "173537.500000", "173537.503000", "173537.506000", "173537.509000", "173537.513000", "173537.516000", "173537.519000", "173537.521000", "173537.525000", "173537.528000", "173537.530000", "173537.533000", "173537.536000", "173537.539000", "173537.542000", "173537.545000", "173537.548000", "173537.551000", "173537.554000", "173537.557000", "173537.560000", "173537.563000", "173537.566000", "173617.492000", "173617.495000", "173617.498000", "173617.501000", "173617.504000", "173617.507000", "173617.510000", "173617.514000", "173617.516000", "173617.519000", "173617.522000", "173617.525000", "173617.529000", "173617.531000", "173617.534000", "173617.544000", "173617.547000", "173617.550000", "173617.553000", "173617.556000", "173617.559000", "173617.562000", "173617.565000", "173617.568000", "173617.571000", "173617.574000", "173617.577000", "173633.225000", "173633.229000", "173633.232000", "173633.235000", "173633.238000", "173633.241000", "173633.244000", "173633.247000", "173633.250000", "173633.253000", "173633.256000"],
      "InstanceCreationTime": ["173257.497000", "173257.501000", "173257.504000", "173257.507000", "173257.510000", "173257.513000", "173257.516000", "173257.519000", "173257.522000", "173257.525000", "173257.528000", "173257.531000", "173257.534000", "173257.550000", "173257.553000", "173257.556000", "173257.559000", "173257.562000", "173257.565000", "173257.568000", "173337.491000", "173337.494000", "173337.497000", "173337.501000", "173337.504000", "173337.508000", "173337.511000", "173337.514000", "173337.517000", "173337.520000", "173337.523000", "173337.526000", "173337.529000", "173337.537000", "173337.540000", "173337.543000", "173337.546000", "173337.549000", "173337.552000", "173337.555000", "173337.558000", "173337.561000", "173337.564000", "173337.567000", "173337.570000", "173337.573000", "173417.492000", "173417.495000", "173417.498000", "173417.501000", "173417.504000", "173417.507000", "173417.510000", "173417.514000", "173417.517000", "173417.519000", "173417.522000", "173417.525000", "173417.528000", "173417.531000", "173417.534000", "173417.537000", "173417.554000", "173417.557000", "173417.559000", "173417.563000", "173417.565000", "173417.568000", "173417.571000", "173417.584000", "173417.587000", "173417.590000", "173417.593000", "173457.492000", "173457.495000", "173457.498000", "173457.501000", "173457.504000", "173457.507000", "173457.510000", "173457.513000", "173457.516000", "173457.519000", "173457.522000", "173457.525000", "173457.528000", "173457.531000", "173457.534000", "173457.537000", "173457.540000", "173457.542000", "173457.546000", "173457.548000", "173457.551000", "173457.554000", "173457.557000", "173457.560000", "173457.563000", "173457.566000", "173457.569000", "173537.491000", "173537.494000", "173537.497000", "173537.500000", "173537.503000", "173537.506000", "173537.509000", "173537.513000", "173537.516000", "173537.519000", "173537.521000", "173537.525000", "173537.528000", "173537.530000", "173537.533000", "173537.536000", "173537.539000", "173537.542000", "173537.545000", "173537.548000", "173537.551000", "173537.554000", "173537.557000", "173537.560000", "173537.563000", "173537.566000", "173617.492000", "173617.495000", "173617.498000", "173617.501000", "173617.504000", "173617.507000", "173617.510000", "173617.514000", "173617.516000", "173617.519000", "173617.522000", "173617.525000", "173617.529000", "173617.531000", "173617.534000", "173617.544000", "173617.547000", "173617.550000", "173617.553000", "173617.556000", "173617.559000", "173617.562000", "173617.565000", "173617.568000", "173617.571000", "173617.574000", "173617.577000", "173633.225000", "173633.229000", "173633.232000", "173633.235000", "173633.238000", "173633.241000", "173633.244000", "173633.247000", "173633.250000", "173633.253000", "173633.256000"],
      "InstanceNumber": [1, 2, 3, 4, 5, 6, 7, 8, 9, 10, 11, 12, 13, 14, 15, 16, 17, 18, 19, 20, 21, 22, 23, 24, 25, 26, 27, 28, 29, 30, 31, 32, 33, 34, 35, 36, 37, 38, 39, 40, 41, 42, 43, 44, 45, 46, 47, 48, 49, 50, 51, 52, 53, 54, 55, 56, 57, 58, 59, 60, 61, 62, 63, 64, 65, 66, 67, 68, 69, 70, 71, 72, 73, 74, 75, 76, 77, 78, 79, 80, 81, 82, 83, 84, 85, 86, 87, 88, 89, 90, 91, 92, 93, 94, 95, 96, 97, 98, 99, 100, 101, 102, 103, 104, 105, 106, 107, 108, 109, 110, 111, 112, 113, 114, 115, 116, 117, 118, 119, 120, 121, 122, 123, 124, 125, 126, 127, 128, 129, 130, 131, 132, 133, 134, 135, 136, 137, 138, 139, 140, 141, 142, 143, 144, 145, 146, 147, 148, 149, 150, 151, 152, 153, 154, 155, 156, 157, 158, 159, 160, 161, 162, 163, 164],
      "LargestImagePixelValue": [3647, 3579, 3539, 3569, 3517, 3627, 3514, 3444, 3450, 3456, 3434, 3397, 3442, 3359, 3426, 3385, 3422, 3456, 3447, 3375, 3465, 3388, 3431, 3428, 3409, 3521, 3356, 3350, 3402, 3398, 3387, 3397, 3390, 3380, 3395, 3380, 3386, 3449, 3377, 3340, 3341, 3325, 3278, 3323, 3239, 3279, 3299, 3269, 3375, 3299, 3318, 3334, 3281, 3277, 3333, 3284, 3299, 3380, 3283, 3298, 3261, 3310, 3314, 3325, 3322, 3329, 3316, 3293, 3303, 3291, 3266, 3204, 3421, 3297, 3214, 3262, 3283, 3324, 3319, 3293, 3413, 3306, 3174, 3416, 3329, 3220, 3289, 3280, 3271, 3232, 3372, 3329, 3369, 3339, 3269, 3304, 3348, 3339, 3340, 3278, 3408, 3375, 3365, 3321, 3360, 3338, 3372, 3335, 3359, 3387, 3173, 3252, 3274, 3299, 3314, 3386, 3318, 3322, 3301, 3304, 3340, 3327, 3319, 3289, 3286, 3323, 3310, 3347, 3328, 3340, 3348, 3411, 3368, 3387, 3317, 3455, 3341, 3364, 3358, 3480, 3421, 3470, 3406, 3448, 3326, 3342, 3351, 3386, 3378, 3323, 3357, 3325, 3368, 3378, 3353, 3415, 3381, 3491, 3361, 3480, 3366, 3395, 3375, 3349],
      "WindowCenter": [701.0, 698.0, 697.0, 696.0, 697.0, 695.0, 695.0, 695.0, 695.0, 695.0, 694.0, 694.0, 696.0, 694.0, 695.0, 695.0, 695.0, 695.0, 696.0, 695.0, 696.0, 695.0, 695.0, 697.0, 696.0, 697.0, 695.0, 695.0, 695.0, 694.0, 694.0, 694.0, 694.0, 694.0, 694.0, 693.0, 694.0, 690.0, 693.0, 692.0, 694.0, 694.0, 693.0, 693.0, 692.0, 693.0, 692.0, 690.0, 691.0, 691.0, 692.0, 691.0, 691.0, 691.0, 691.0, 691.0, 690.0, 691.0, 691.0, 692.0, 691.0, 691.0, 690.0, 690.0, 691.0, 692.0, 691.0, 690.0, 690.0, 690.0, 689.0, 687.0, 690.0, 690.0, 690.0, 690.0, 690.0, 690.0, 690.0, 688.0, 690.0, 689.0, 687.0, 689.0, 688.0, 688.0, 688.0, 688.0, 688.0, 689.0, 689.0, 689.0, 688.0, 693.0, 691.0, 690.0, 691.0, 690.0, 691.0, 691.0, 692.0, 692.0, 691.0, 690.0, 690.0, 691.0, 692.0, 692.0, 691.0, 691.0, 689.0, 690.0, 690.0, 691.0, 691.0, 690.0, 690.0, 690.0, 690.0, 690.0, 690.0, 689.0, 689.0, 689.0, 689.0, 689.0, 689.0, 689.0, 689.0, 689.0, 689.0, 690.0, 689.0, 689.0, 689.0, 689.0, 688.0, 688.0, 688.0, 688.0, 688.0, 688.0, 689.0, 689.0, 688.0, 690.0, 690.0, 690.0, 689.0, 689.0, 689.0, 689.0, 688.0, 689.0, 688.0, 688.0, 688.0, 689.0, 688.0, 689.0, 689.0, 688.0, 688.0, 688.0],
      "WindowWidth": [1531.0, 1523.0, 1519.0, 1517.0, 1518.0, 1513.0, 1513.0, 1512.0, 1513.0, 1514.0, 1512.0, 1511.0, 1515.0, 1512.0, 1514.0, 1514.0, 1514.0, 1515.0, 1516.0, 1515.0, 1515.0, 1514.0, 1515.0, 1519.0, 1517.0, 1519.0, 1513.0, 1513.0, 1513.0, 1510.0, 1511.0, 1510.0, 1512.0, 1511.0, 1511.0, 1509.0, 1511.0, 1502.0, 1507.0, 1506.0, 1512.0, 1512.0, 1507.0, 1509.0, 1506.0, 1509.0, 1506.0, 1501.0, 1503.0, 1503.0, 1505.0, 1504.0, 1504.0, 1504.0, 1503.0, 1502.0, 1500.0, 1503.0, 1503.0, 1505.0, 1504.0, 1502.0, 1501.0, 1499.0, 1504.0, 1505.0, 1503.0, 1502.0, 1500.0, 1499.0, 1498.0, 1493.0, 1500.0, 1501.0, 1500.0, 1501.0, 1500.0, 1500.0, 1499.0, 1496.0, 1501.0, 1498.0, 1492.0, 1497.0, 1494.0, 1496.0, 1495.0, 1495.0, 1496.0, 1497.0, 1498.0, 1498.0, 1496.0, 1508.0, 1502.0, 1501.0, 1503.0, 1500.0, 1503.0, 1503.0, 1506.0, 1505.0, 1503.0, 1500.0, 1500.0, 1502.0, 1505.0, 1505.0, 1503.0, 1502.0, 1497.0, 1499.0, 1502.0, 1502.0, 1503.0, 1500.0, 1500.0, 1501.0, 1500.0, 1500.0, 1501.0, 1498.0, 1497.0, 1496.0, 1497.0, 1498.0, 1497.0, 1498.0, 1496.0, 1497.0, 1497.0, 1499.0, 1498.0, 1498.0, 1497.0, 1498.0, 1495.0, 1495.0, 1495.0, 1495.0, 1494.0, 1494.0, 1496.0, 1497.0, 1496.0, 1500.0, 1499.0, 1500.0, 1498.0, 1497.0, 1497.0, 1497.0, 1496.0, 1496.0, 1494.0, 1495.0, 1494.0, 1496.0, 1494.0, 1497.0, 1497.0, 1495.0, 1495.0, 1494.0]
    },
    "slices": {}
  }
}