{
  "AcquisitionMatrixPE": 72,
  "AcquisitionNumber": 1,
  "AcquisitionTime": "18:56:12.260000",
  "BandwidthPerPixelPhaseEncode": 17.943,
  "BaseResolution": 96,
  "BodyPartExamined": "BRAIN",
  "CoilCombinationMethod": "Sum of Squares",
  "ConsistencyInfo": "N4_VE11C_LATEST_20160120",
  "ConversionSoftware": "dcm2niix",
  "ConversionSoftwareVersion": "v1.0.20211006",
  "DerivedVendorReportedEchoSpacing": 0.000552897,
  "DeviceSerialNumber": "166011",
  "EchoTime": 0.03,
  "EchoTrainLength": 58,
  "EffectiveEchoSpacing": 0.000580542,
  "FlipAngle": 62,
  "ImageOrientationPatientDICOM": [0.996656, -0.0571133, 0.0584364, 0.0646256, 0.988599, -0.135999],
  "ImageType": [
    "ORIGINAL",
    "PRIMARY",
    "M",
    "ND",
    "MOSAIC"
],
  "ImagingFrequency": 123.259,
  "InPlanePhaseEncodingDirectionDICOM": "COL",
  "InstitutionAddress": "West 130th Street 610,NY,NYC,US,10025",
  "InstitutionName": "MBBI",
  "MRAcquisitionType": "2D",
  "MagneticFieldStrength": 3,
  "Manufacturer": "Siemens",
  "ManufacturersModelName": "Prisma",
  "Modality": "MR",
  "MultibandAccelerationFactor": 3,
  "PartialFourier": 0.75,
  "PatientPosition": "HFS",
  "PercentPhaseFOV": 100,
  "PercentSampling": 75,
  "PhaseEncodingDirection": "j-",
  "PhaseEncodingSteps": 58,
  "PhaseOversampling": 0.05,
  "PhaseResolution": 0.75,
  "PixelBandwidth": 2265,
  "ProcedureStepDescription": "White^Word_recognition",
  "ProtocolName": "func_vwfate_run15",
  "PulseSequenceDetails": "%SiemensSeq%\\ep2d_bold",
  "ReceiveCoilActiveElements": "HC1-7",
  "ReceiveCoilName": "HeadNeck_64",
  "ReconMatrixPE": 96,
  "RefLinesPE": 40,
  "RepetitionTime": 1.5,
  "SAR": 0.04231,
  "ScanOptions": "PFP\\FS",
  "ScanningSequence": "EP",
  "SequenceName": "*epfid2d1_72",
  "SequenceVariant": "SK\\OSP",
  "SeriesDescription": "func_vwfate_run15",
  "SeriesNumber": 10,
  "ShimSetting": [-1140, -1374, 680, 518, -39, -15, -167, -51],
  "SliceThickness": 2,
  "SliceTiming": [1.0775, 0, 0.74, 0.0675, 0.8075, 0.135, 0.875, 0.2025, 0.9425, 0.27, 1.01, 0.405, 1.145, 0.4725, 1.2125, 0.54, 1.28, 0.605, 1.345, 0.6725, 1.4125, 0.3375, 1.0775, 0, 0.74, 0.0675, 0.8075, 0.135, 0.875, 0.2025, 0.9425, 0.27, 1.01, 0.405, 1.145, 0.4725, 1.2125, 0.54, 1.28, 0.605, 1.345, 0.6725, 1.4125, 0.3375, 1.0775, 0, 0.74, 0.0675, 0.8075, 0.135, 0.875, 0.2025, 0.9425, 0.27, 1.01, 0.405, 1.145, 0.4725, 1.2125, 0.54, 1.28, 0.605, 1.345, 0.6725, 1.4125, 0.3375],
  "SoftwareVersions": "syngo MR E11",
  "SpacingBetweenSlices": 2,
  "StationName": "AWP166011",
  "TaskName": "vwfate",
  "TotalReadoutTime": 0.0551515,
  "TxRefAmp": 213.443,
  "dcmmeta_affine": [
    [-1.993312120437622, 0.1292511373758316, 0.10000567138195038, 92.49671936035156],
    [0.11422662436962128, 1.9771977663040161, -0.2786417603492737, -71.47186279296875],
    [0.1168728768825531, 0.2719983160495758, 1.9779680967330933, -68.0297622680664],
    [0.0, 0.0, 0.0, 1.0]
],
  "dcmmeta_reorient_transform": [
    [0.0, -1.0, 0.0, 95.0],
    [1.0, 0.0, 0.0, 0.0],
    [0.0, 0.0, 1.0, 0.0],
    [0.0, 0.0, 0.0, 1.0]
],
  "dcmmeta_shape": [96, 96, 66, 164],
  "dcmmeta_slice_dim": 2,
  "dcmmeta_version": 0.6,
  "global": {
    "const": {
      "AcquisitionMatrix": [96, 0, 0, 72],
      "AngioFlag": "N",
      "BitsAllocated": 16,
      "BitsStored": 12,
      "BodyPartExamined": "BRAIN",
      "Columns": 864,
      "EchoNumbers": 1,
      "EchoTime": 30.0,
      "EchoTrainLength": 58,
      "FlipAngle": 62.0,
      "HighBit": 11,
      "ImageOrientationPatient": [0.99665603501086, -0.0571133132924, 0.05843643830011, 0.06462557012676, 0.98859888977868, -0.1359991574024],
      "ImagePositionPatient": [-919.8398542079, -831.74284625066, 17.378244937913],
      "ImageType": [
        "ORIGINAL",
        "PRIMARY",
        "M",
        "ND",
        "MOSAIC"
],
      "ImagedNucleus": "1H",
      "ImagingFrequency": 123.259468,
      "InPlanePhaseEncodingDirection": "COL",
      "MRAcquisitionType": "2D",
      "MagneticFieldStrength": 3.0,
      "Manufacturer": "SIEMENS",
      "ManufacturerModelName": "Prisma",
      "Modality": "MR",
      "NumberOfAverages": 1.0,
      "NumberOfPhaseEncodingSteps": 58,
      "PercentPhaseFieldOfView": 100.0,
      "PercentSampling": 75.0,
      "PerformedProcedureStepStartTime": "182408.510000",
      "PhotometricInterpretation": "MONOCHROME2",
      "PixelBandwidth": 2265.0,
      "PixelRepresentation": 0,
      "PixelSpacing": [2.0, 2.0],
      "ProtocolName": "func_vwfate_run15",
      "RepetitionTime": 1500.0,
      "Rows": 864,
      "SAR": 0.04231000557094,
      "SamplesPerPixel": 1,
      "ScanOptions": [
        "PFP",
        "FS"
],
      "ScanningSequence": "EP",
      "SequenceName": "*epfid2d1_72",
      "SequenceVariant": [
        "SK",
        "OSP"
],
      "SeriesDescription": "func_vwfate_run15",
      "SeriesNumber": 10,
      "SeriesTime": "185649.578000",
      "SliceLocation": -52.697728556093,
      "SliceThickness": 2.0,
      "SmallestImagePixelValue": 0,
      "SoftwareVersions": "syngo MR E11",
      "SpacingBetweenSlices": 2.0000000635098,
      "SpecificCharacterSet": "ISO_IR 100",
      "StudyID": "3",
      "StudyTime": "182408.452000",
      "TransmitCoilName": "Body",
      "VariableFlipAngleFlag": "N",
      "WindowCenterWidthExplanation": "Algo1",
      "dBdt": 0.0},
    "slices": {}
  },
  "time": {
    "samples": {
      "AcquisitionNumber": [1, 2, 3, 4, 5, 6, 7, 8, 9, 10, 11, 12, 13, 14, 15, 16, 17, 18, 19, 20, 21, 22, 23, 24, 25, 26, 27, 28, 29, 30, 31, 32, 33, 34, 35, 36, 37, 38, 39, 40, 41, 42, 43, 44, 45, 46, 47, 48, 49, 50, 51, 52, 53, 54, 55, 56, 57, 58, 59, 60, 61, 62, 63, 64, 65, 66, 67, 68, 69, 70, 71, 72, 73, 74, 75, 76, 77, 78, 79, 80, 81, 82, 83, 84, 85, 86, 87, 88, 89, 90, 91, 92, 93, 94, 95, 96, 97, 98, 99, 100, 101, 102, 103, 104, 105, 106, 107, 108, 109, 110, 111, 112, 113, 114, 115, 116, 117, 118, 119, 120, 121, 122, 123, 124, 125, 126, 127, 128, 129, 130, 131, 132, 133, 134, 135, 136, 137, 138, 139, 140, 141, 142, 143, 144, 145, 146, 147, 148, 149, 150, 151, 152, 153, 154, 155, 156, 157, 158, 159, 160, 161, 162, 163, 164],
      "AcquisitionTime": ["185612.260000", "185613.760000", "185615.260000", "185616.760000", "185618.260000", "185619.760000", "185621.260000", "185622.760000", "185624.260000", "185625.760000", "185627.260000", "185628.760000", "185630.260000", "185631.760000", "185633.260000", "185634.760000", "185636.260000", "185637.760000", "185639.260000", "185640.760000", "185642.260000", "185643.760000", "185645.260000", "185646.760000", "185648.260000", "185649.760000", "185651.260000", "185652.760000", "185654.260000", "185655.760000", "185657.260000", "185658.760000", "185700.260000", "185701.760000", "185703.260000", "185704.760000", "185706.260000", "185707.760000", "185709.260000", "185710.760000", "185712.260000", "185713.760000", "185715.260000", "185716.760000", "185718.260000", "185719.760000", "185721.260000", "185722.760000", "185724.260000", "185725.760000", "185727.260000", "185728.760000", "185730.260000", "185731.760000", "185733.260000", "185734.760000", "185736.260000", "185737.760000", "185739.260000", "185740.760000", "185742.260000", "185743.760000", "185745.260000", "185746.760000", "185748.260000", "185749.760000", "185751.260000", "185752.760000", "185754.260000", "185755.760000", "185757.260000", "185758.760000", "185800.260000", "185801.760000", "185803.260000", "185804.760000", "185806.260000", "185807.760000", "185809.260000", "185810.760000", "185812.260000", "185813.760000", "185815.260000", "185816.760000", "185818.260000", "185819.760000", "185821.260000", "185822.760000", "185824.260000", "185825.760000", "185827.260000", "185828.760000", "185830.260000", "185831.760000", "185833.260000", "185834.760000", "185836.260000", "185837.760000", "185839.260000", "185840.760000", "185842.260000", "185843.760000", "185845.260000", "185846.760000", "185848.260000", "185849.760000", "185851.260000", "185852.760000", "185854.260000", "185855.760000", "185857.260000", "185858.760000", "185900.260000", "185901.760000", "185903.260000", "185904.760000", "185906.260000", "185907.760000", "185909.260000", "185910.760000", "185912.260000", "185913.760000", "185915.260000", "185916.760000", "185918.260000", "185919.760000", "185921.260000", "185922.760000", "185924.260000", "185925.760000", "185927.260000", "185928.760000", "185930.260000", "185931.760000", "185933.260000", "185934.760000", "185936.260000", "185937.760000", "185939.260000", "185940.760000", "185942.260000", "185943.760000", "185945.260000", "185946.760000", "185948.260000", "185949.760000", "185951.260000", "185952.760000", "185954.260000", "185955.760000", "185957.260000", "185958.760000", "190000.260000", "190001.760000", "190003.260000", "190004.760000", "190006.260000", "190007.760000", "190009.260000", "190010.760000", "190012.260000", "190013.760000", "190015.260000", "190016.760000"],
      "ContentTime": ["185649.582000", "185649.586000", "185649.589000", "185649.592000", "185649.606000", "185649.609000", "185649.612000", "185649.615000", "185649.618000", "185649.621000", "185649.624000", "185649.629000", "185649.632000", "185649.635000", "185649.638000", "185649.641000", "185649.644000", "185649.652000", "185649.655000", "185649.658000", "185649.661000", "185649.664000", "185649.667000", "185649.670000", "185729.597000", "185729.600000", "185729.603000", "185729.614000", "185729.617000", "185729.620000", "185729.623000", "185729.626000", "185729.629000", "185729.632000", "185729.635000", "185729.638000", "185729.641000", "185729.644000", "185729.647000", "185729.650000", "185729.653000", "185729.657000", "185729.659000", "185729.662000", "185729.665000", "185729.672000", "185729.675000", "185729.678000", "185729.681000", "185729.684000", "185729.687000", "185809.578000", "185809.581000", "185809.584000", "185809.587000", "185809.590000", "185809.593000", "185809.596000", "185809.599000", "185809.602000", "185809.605000", "185809.608000", "185809.611000", "185809.614000", "185809.624000", "185809.627000", "185809.630000", "185809.633000", "185809.636000", "185809.639000", "185809.642000", "185809.645000", "185809.648000", "185809.651000", "185809.654000", "185809.657000", "185809.660000", "185809.663000", "185849.577000", "185849.580000", "185849.583000", "185849.586000", "185849.589000", "185849.592000", "185849.595000", "185849.598000", "185849.601000", "185849.604000", "185849.607000", "185849.610000", "185849.613000", "185849.616000", "185849.619000", "185849.622000", "185849.625000", "185849.628000", "185849.631000", "185849.634000", "185849.637000", "185849.640000", "185849.643000", "185849.646000", "185849.650000", "185849.655000", "185929.577000", "185929.580000", "185929.583000", "185929.586000", "185929.589000", "185929.593000", "185929.596000", "185929.599000", "185929.602000", "185929.605000", "185929.608000", "185929.611000", "185929.614000", "185929.617000", "185929.620000", "185929.623000", "185929.626000", "185929.629000", "185929.632000", "185929.635000", "185929.638000", "185929.641000", "185929.644000", "185929.647000", "185929.650000", "185929.653000", "185929.656000", "190009.578000", "190009.581000", "190009.584000", "190009.587000", "190009.590000", "190009.593000", "190009.596000", "190009.599000", "190009.603000", "190009.605000", "190009.608000", "190009.611000", "190009.615000", "190009.618000", "190009.621000", "190009.623000", "190009.627000", "190009.630000", "190009.633000", "190009.636000", "190009.639000", "190009.642000", "190009.645000", "190009.648000", "190009.651000", "190009.654000", "190009.657000", "190018.164000", "190018.168000", "190018.171000", "190018.174000", "190018.178000", "190018.181000"],
      "InstanceCreationTime": ["185649.582000", "185649.586000", "185649.589000", "185649.592000", "185649.606000", "185649.609000", "185649.612000", "185649.615000", "185649.618000", "185649.621000", "185649.624000", "185649.629000", "185649.632000", "185649.635000", "185649.638000", "185649.641000", "185649.644000", "185649.652000", "185649.655000", "185649.658000", "185649.661000", "185649.664000", "185649.667000", "185649.670000", "185729.597000", "185729.600000", "185729.603000", "185729.614000", "185729.617000", "185729.620000", "185729.623000", "185729.626000", "185729.629000", "185729.632000", "185729.635000", "185729.638000", "185729.641000", "185729.644000", "185729.647000", "185729.650000", "185729.653000", "185729.657000", "185729.659000", "185729.662000", "185729.665000", "185729.672000", "185729.675000", "185729.678000", "185729.681000", "185729.684000", "185729.687000", "185809.578000", "185809.581000", "185809.584000", "185809.587000", "185809.590000", "185809.593000", "185809.596000", "185809.599000", "185809.602000", "185809.605000", "185809.608000", "185809.611000", "185809.614000", "185809.624000", "185809.627000", "185809.630000", "185809.633000", "185809.636000", "185809.639000", "185809.642000", "185809.645000", "185809.648000", "185809.651000", "185809.654000", "185809.657000", "185809.660000", "185809.663000", "185849.577000", "185849.580000", "185849.583000", "185849.586000", "185849.589000", "185849.592000", "185849.595000", "185849.598000", "185849.601000", "185849.604000", "185849.607000", "185849.610000", "185849.613000", "185849.616000", "185849.619000", "185849.622000", "185849.625000", "185849.628000", "185849.631000", "185849.634000", "185849.637000", "185849.640000", "185849.643000", "185849.646000", "185849.650000", "185849.655000", "185929.577000", "185929.580000", "185929.583000", "185929.586000", "185929.589000", "185929.593000", "185929.596000", "185929.599000", "185929.602000", "185929.605000", "185929.608000", "185929.611000", "185929.614000", "185929.617000", "185929.620000", "185929.623000", "185929.626000", "185929.629000", "185929.632000", "185929.635000", "185929.638000", "185929.641000", "185929.644000", "185929.647000", "185929.650000", "185929.653000", "185929.656000", "190009.578000", "190009.581000", "190009.584000", "190009.587000", "190009.590000", "190009.593000", "190009.596000", "190009.599000", "190009.603000", "190009.605000", "190009.608000", "190009.611000", "190009.615000", "190009.618000", "190009.621000", "190009.623000", "190009.627000", "190009.630000", "190009.633000", "190009.636000", "190009.639000", "190009.642000", "190009.645000", "190009.648000", "190009.651000", "190009.654000", "190009.657000", "190018.164000", "190018.168000", "190018.171000", "190018.174000", "190018.178000", "190018.181000"],
      "InstanceNumber": [1, 2, 3, 4, 5, 6, 7, 8, 9, 10, 11, 12, 13, 14, 15, 16, 17, 18, 19, 20, 21, 22, 23, 24, 25, 26, 27, 28, 29, 30, 31, 32, 33, 34, 35, 36, 37, 38, 39, 40, 41, 42, 43, 44, 45, 46, 47, 48, 49, 50, 51, 52, 53, 54, 55, 56, 57, 58, 59, 60, 61, 62, 63, 64, 65, 66, 67, 68, 69, 70, 71, 72, 73, 74, 75, 76, 77, 78, 79, 80, 81, 82, 83, 84, 85, 86, 87, 88, 89, 90, 91, 92, 93, 94, 95, 96, 97, 98, 99, 100, 101, 102, 103, 104, 105, 106, 107, 108, 109, 110, 111, 112, 113, 114, 115, 116, 117, 118, 119, 120, 121, 122, 123, 124, 125, 126, 127, 128, 129, 130, 131, 132, 133, 134, 135, 136, 137, 138, 139, 140, 141, 142, 143, 144, 145, 146, 147, 148, 149, 150, 151, 152, 153, 154, 155, 156, 157, 158, 159, 160, 161, 162, 163, 164],
      "LargestImagePixelValue": [2874, 2738, 2692, 2646, 2656, 2634, 2636, 2651, 2616, 2635, 2642, 2653, 2624, 2654, 2638, 2667, 2641, 2655, 2615, 2684, 2658, 2664, 2655, 2672, 2674, 2685, 2706, 2697, 2686, 2646, 2612, 2638, 2672, 2638, 2682, 2657, 2663, 2663, 2605, 2660, 2659, 2642, 2622, 2606, 2602, 2639, 2642, 2661, 2634, 2691, 2659, 2695, 2748, 2727, 2706, 2719, 2755, 2722, 2774, 2751, 2787, 2723, 2734, 2710, 2655, 2635, 2588, 2603, 2600, 2638, 2642, 2639, 2679, 2664, 2691, 2743, 2773, 2743, 2768, 2742, 2704, 2736, 2727, 2738, 2751, 2752, 2746, 2745, 2724, 2768, 2778, 2798, 2757, 2785, 2769, 2758, 2764, 2800, 2763, 2797, 2793, 2782, 2816, 2784, 2788, 2767, 2752, 2771, 2762, 2825, 2846, 2772, 2734, 2655, 2685, 2650, 2667, 2713, 2688, 2696, 2734, 2751, 2768, 2771, 2749, 2761, 2731, 2753, 2750, 2737, 2739, 2754, 2734, 2706, 2712, 2740, 2723, 2678, 2693, 2624, 2662, 2693, 2590, 2606, 2601, 2634, 2646, 2591, 2706, 2731, 2681, 2655, 2578, 2564, 2605, 2522, 2562, 2509, 2566, 2548, 2614, 2548, 2523, 2546],
      "WindowCenter": [735.0, 732.0, 731.0, 730.0, 731.0, 730.0, 730.0, 730.0, 729.0, 729.0, 730.0, 730.0, 730.0, 730.0, 730.0, 731.0, 731.0, 730.0, 729.0, 730.0, 730.0, 730.0, 731.0, 731.0, 731.0, 731.0, 731.0, 733.0, 731.0, 731.0, 730.0, 729.0, 729.0, 730.0, 730.0, 731.0, 730.0, 729.0, 728.0, 729.0, 730.0, 729.0, 728.0, 727.0, 727.0, 727.0, 728.0, 729.0, 728.0, 728.0, 728.0, 729.0, 729.0, 729.0, 728.0, 728.0, 729.0, 729.0, 730.0, 730.0, 731.0, 730.0, 731.0, 729.0, 728.0, 727.0, 725.0, 725.0, 726.0, 726.0, 727.0, 727.0, 727.0, 727.0, 728.0, 729.0, 731.0, 730.0, 730.0, 730.0, 729.0, 729.0, 729.0, 729.0, 730.0, 730.0, 730.0, 729.0, 729.0, 729.0, 729.0, 731.0, 731.0, 730.0, 730.0, 729.0, 729.0, 730.0, 731.0, 731.0, 730.0, 730.0, 729.0, 730.0, 729.0, 729.0, 728.0, 728.0, 728.0, 729.0, 731.0, 729.0, 728.0, 728.0, 727.0, 725.0, 726.0, 726.0, 727.0, 727.0, 728.0, 729.0, 728.0, 729.0, 729.0, 729.0, 729.0, 729.0, 729.0, 730.0, 731.0, 732.0, 732.0, 730.0, 729.0, 730.0, 730.0, 729.0, 729.0, 729.0, 728.0, 729.0, 728.0, 727.0, 727.0, 728.0, 728.0, 729.0, 730.0, 729.0, 728.0, 726.0, 724.0, 722.0, 722.0, 722.0, 722.0, 722.0, 723.0, 724.0, 726.0, 727.0, 725.0, 726.0],
      "WindowWidth": [1600.0, 1592.0, 1589.0, 1587.0, 1588.0, 1587.0, 1587.0, 1587.0, 1585.0, 1584.0, 1586.0, 1586.0, 1586.0, 1586.0, 1587.0, 1588.0, 1588.0, 1588.0, 1585.0, 1586.0, 1586.0, 1588.0, 1589.0, 1590.0, 1589.0, 1590.0, 1591.0, 1594.0, 1590.0, 1589.0, 1585.0, 1583.0, 1584.0, 1586.0, 1586.0, 1588.0, 1585.0, 1583.0, 1581.0, 1583.0, 1587.0, 1585.0, 1582.0, 1578.0, 1578.0, 1579.0, 1580.0, 1582.0, 1581.0, 1582.0, 1582.0, 1583.0, 1583.0, 1584.0, 1582.0, 1582.0, 1583.0, 1585.0, 1587.0, 1587.0, 1589.0, 1586.0, 1590.0, 1583.0, 1580.0, 1577.0, 1573.0, 1572.0, 1574.0, 1576.0, 1577.0, 1578.0, 1578.0, 1579.0, 1581.0, 1585.0, 1588.0, 1587.0, 1586.0, 1585.0, 1584.0, 1583.0, 1584.0, 1585.0, 1586.0, 1586.0, 1585.0, 1585.0, 1583.0, 1582.0, 1585.0, 1588.0, 1589.0, 1587.0, 1585.0, 1584.0, 1583.0, 1587.0, 1589.0, 1590.0, 1588.0, 1586.0, 1585.0, 1588.0, 1584.0, 1582.0, 1581.0, 1579.0, 1580.0, 1585.0, 1588.0, 1583.0, 1579.0, 1581.0, 1577.0, 1573.0, 1575.0, 1576.0, 1577.0, 1578.0, 1580.0, 1582.0, 1581.0, 1583.0, 1583.0, 1582.0, 1582.0, 1583.0, 1585.0, 1586.0, 1589.0, 1591.0, 1591.0, 1587.0, 1585.0, 1585.0, 1587.0, 1585.0, 1584.0, 1583.0, 1582.0, 1584.0, 1579.0, 1578.0, 1578.0, 1580.0, 1582.0, 1585.0, 1587.0, 1585.0, 1580.0, 1576.0, 1569.0, 1563.0, 1563.0, 1563.0, 1564.0, 1563.0, 1566.0, 1569.0, 1575.0, 1577.0, 1573.0, 1573.0]
    },
    "slices": {}
  }
}