{
  "AcquisitionMatrixPE": 72,
  "AcquisitionNumber": 1,
  "AcquisitionTime": "19:08:19.517500",
  "BandwidthPerPixelPhaseEncode": 17.943,
  "BaseResolution": 96,
  "BodyPartExamined": "BRAIN",
  "CoilCombinationMethod": "Sum of Squares",
  "ConsistencyInfo": "N4_VE11C_LATEST_20160120",
  "ConversionSoftware": "dcm2niix",
  "ConversionSoftwareVersion": "v1.0.20211006",
  "DerivedVendorReportedEchoSpacing": 0.000552897,
  "DeviceSerialNumber": "166011",
  "EchoTime": 0.03,
  "EchoTrainLength": 58,
  "EffectiveEchoSpacing": 0.000580542,
  "FlipAngle": 62,
  "ImageOrientationPatientDICOM": [0.996656, -0.0571133, 0.0584364, 0.0646256, 0.988599, -0.135999],
  "ImageType": [
    "ORIGINAL",
    "PRIMARY",
    "M",
    "ND",
    "MOSAIC"
],
  "ImagingFrequency": 123.259,
  "InPlanePhaseEncodingDirectionDICOM": "COL",
  "InstitutionAddress": "West 130th Street 610,NY,NYC,US,10025",
  "InstitutionName": "MBBI",
  "MRAcquisitionType": "2D",
  "MagneticFieldStrength": 3,
  "Manufacturer": "Siemens",
  "ManufacturersModelName": "Prisma",
  "Modality": "MR",
  "MultibandAccelerationFactor": 3,
  "PartialFourier": 0.75,
  "PatientPosition": "HFS",
  "PercentPhaseFOV": 100,
  "PercentSampling": 75,
  "PhaseEncodingDirection": "j-",
  "PhaseEncodingSteps": 58,
  "PhaseOversampling": 0.05,
  "PhaseResolution": 0.75,
  "PixelBandwidth": 2265,
  "ProcedureStepDescription": "White^Word_recognition",
  "ProtocolName": "func_language_run2",
  "PulseSequenceDetails": "%SiemensSeq%\\ep2d_bold",
  "ReceiveCoilActiveElements": "HC1-7",
  "ReceiveCoilName": "HeadNeck_64",
  "ReconMatrixPE": 96,
  "RefLinesPE": 40,
  "RepetitionTime": 1.5,
  "SAR": 0.0424884,
  "ScanOptions": "PFP\\FS",
  "ScanningSequence": "EP",
  "SequenceName": "*epfid2d1_72",
  "SequenceVariant": "SK\\OSP",
  "SeriesDescription": "func_language_run2",
  "SeriesNumber": 12,
  "ShimSetting": [-1140, -1374, 680, 518, -39, -15, -167, -51],
  "SliceThickness": 2,
  "SliceTiming": [1.0775, 0, 0.74, 0.0675, 0.8075, 0.135, 0.875, 0.2025, 0.9425, 0.27, 1.01, 0.405, 1.145, 0.4725, 1.2125, 0.54, 1.28, 0.6075, 1.3475, 0.6725, 1.4125, 0.3375, 1.0775, 0, 0.74, 0.0675, 0.8075, 0.135, 0.875, 0.2025, 0.9425, 0.27, 1.01, 0.405, 1.145, 0.4725, 1.2125, 0.54, 1.28, 0.6075, 1.3475, 0.6725, 1.4125, 0.3375, 1.0775, 0, 0.74, 0.0675, 0.8075, 0.135, 0.875, 0.2025, 0.9425, 0.27, 1.01, 0.405, 1.145, 0.4725, 1.2125, 0.54, 1.28, 0.6075, 1.3475, 0.6725, 1.4125, 0.3375],
  "SoftwareVersions": "syngo MR E11",
  "SpacingBetweenSlices": 2,
  "StationName": "AWP166011",
  "TaskName": "langLoc",
  "TotalReadoutTime": 0.0551515,
  "TxRefAmp": 213.443,
  "dcmmeta_affine": [
    [-1.993312120437622, 0.1292511373758316, 0.10000567138195038, 92.49671936035156],
    [0.11422662436962128, 1.9771977663040161, -0.2786417603492737, -71.47186279296875],
    [0.1168728768825531, 0.2719983160495758, 1.9779680967330933, -68.0297622680664],
    [0.0, 0.0, 0.0, 1.0]
],
  "dcmmeta_reorient_transform": [
    [0.0, -1.0, 0.0, 95.0],
    [1.0, 0.0, 0.0, 0.0],
    [0.0, 0.0, 1.0, 0.0],
    [0.0, 0.0, 0.0, 1.0]
],
  "dcmmeta_shape": [96, 96, 66, 239],
  "dcmmeta_slice_dim": 2,
  "dcmmeta_version": 0.6,
  "global": {
    "const": {
      "AcquisitionMatrix": [96, 0, 0, 72],
      "AngioFlag": "N",
      "BitsAllocated": 16,
      "BitsStored": 12,
      "BodyPartExamined": "BRAIN",
      "Columns": 864,
      "EchoNumbers": 1,
      "EchoTime": 30.0,
      "EchoTrainLength": 58,
      "FlipAngle": 62.0,
      "HighBit": 11,
      "ImageOrientationPatient": [0.99665603501086, -0.0571133132924, 0.05843643830011, 0.06462557012676, 0.98859888977868, -0.1359991574024],
      "ImagePositionPatient": [-919.8398542079, -831.74284625066, 17.378244937913],
      "ImageType": [
        "ORIGINAL",
        "PRIMARY",
        "M",
        "ND",
        "MOSAIC"
],
      "ImagedNucleus": "1H",
      "ImagingFrequency": 123.259473,
      "InPlanePhaseEncodingDirection": "COL",
      "MRAcquisitionType": "2D",
      "MagneticFieldStrength": 3.0,
      "Manufacturer": "SIEMENS",
      "ManufacturerModelName": "Prisma",
      "Modality": "MR",
      "NumberOfAverages": 1.0,
      "NumberOfPhaseEncodingSteps": 58,
      "PercentPhaseFieldOfView": 100.0,
      "PercentSampling": 75.0,
      "PerformedProcedureStepStartTime": "182408.510000",
      "PhotometricInterpretation": "MONOCHROME2",
      "PixelBandwidth": 2265.0,
      "PixelRepresentation": 0,
      "PixelSpacing": [2.0, 2.0],
      "ProtocolName": "func_language_run2",
      "RepetitionTime": 1500.0,
      "Rows": 864,
      "SAR": 0.04248843153828,
      "SamplesPerPixel": 1,
      "ScanOptions": [
        "PFP",
        "FS"
],
      "ScanningSequence": "EP",
      "SequenceName": "*epfid2d1_72",
      "SequenceVariant": [
        "SK",
        "OSP"
],
      "SeriesDescription": "func_language_run2",
      "SeriesNumber": 12,
      "SeriesTime": "190849.725000",
      "SliceLocation": -52.697728556093,
      "SliceThickness": 2.0,
      "SmallestImagePixelValue": 0,
      "SoftwareVersions": "syngo MR E11",
      "SpacingBetweenSlices": 2.0000000635098,
      "SpecificCharacterSet": "ISO_IR 100",
      "StudyID": "3",
      "StudyTime": "182408.452000",
      "TransmitCoilName": "Body",
      "VariableFlipAngleFlag": "N",
      "WindowCenterWidthExplanation": "Algo1",
      "dBdt": 0.0},
    "slices": {}
  },
  "time": {
    "samples": {
      "AcquisitionNumber": [1, 2, 3, 4, 5, 6, 7, 8, 9, 10, 11, 12, 13, 14, 15, 16, 17, 18, 19, 20, 21, 22, 23, 24, 25, 26, 27, 28, 29, 30, 31, 32, 33, 34, 35, 36, 37, 38, 39, 40, 41, 42, 43, 44, 45, 46, 47, 48, 49, 50, 51, 52, 53, 54, 55, 56, 57, 58, 59, 60, 61, 62, 63, 64, 65, 66, 67, 68, 69, 70, 71, 72, 73, 74, 75, 76, 77, 78, 79, 80, 81, 82, 83, 84, 85, 86, 87, 88, 89, 90, 91, 92, 93, 94, 95, 96, 97, 98, 99, 100, 101, 102, 103, 104, 105, 106, 107, 108, 109, 110, 111, 112, 113, 114, 115, 116, 117, 118, 119, 120, 121, 122, 123, 124, 125, 126, 127, 128, 129, 130, 131, 132, 133, 134, 135, 136, 137, 138, 139, 140, 141, 142, 143, 144, 145, 146, 147, 148, 149, 150, 151, 152, 153, 154, 155, 156, 157, 158, 159, 160, 161, 162, 163, 164, 165, 166, 167, 168, 169, 170, 171, 172, 173, 174, 175, 176, 177, 178, 179, 180, 181, 182, 183, 184, 185, 186, 187, 188, 189, 190, 191, 192, 193, 194, 195, 196, 197, 198, 199, 200, 201, 202, 203, 204, 205, 206, 207, 208, 209, 210, 211, 212, 213, 214, 215, 216, 217, 218, 219, 220, 221, 222, 223, 224, 225, 226, 227, 228, 229, 230, 231, 232, 233, 234, 235, 236, 237, 238, 239],
      "AcquisitionTime": ["190819.517500", "190821.017500", "190822.517500", "190824.017500", "190825.517500", "190827.017500", "190828.517500", "190830.017500", "190831.517500", "190833.017500", "190834.517500", "190836.017500", "190837.517500", "190839.017500", "190840.517500", "190842.017500", "190843.517500", "190845.017500", "190846.517500", "190848.017500", "190849.517500", "190851.017500", "190852.517500", "190854.017500", "190855.517500", "190857.017500", "190858.517500", "190900.017500", "190901.517500", "190903.017500", "190904.517500", "190906.017500", "190907.517500", "190909.017500", "190910.517500", "190912.017500", "190913.517500", "190915.017500", "190916.517500", "190918.017500", "190919.517500", "190921.017500", "190922.517500", "190924.017500", "190925.517500", "190927.017500", "190928.517500", "190930.017500", "190931.517500", "190933.017500", "190934.517500", "190936.017500", "190937.517500", "190939.017500", "190940.517500", "190942.017500", "190943.517500", "190945.017500", "190946.517500", "190948.017500", "190949.517500", "190951.017500", "190952.517500", "190954.017500", "190955.517500", "190957.017500", "190958.517500", "191000.017500", "191001.517500", "191003.017500", "191004.517500", "191006.017500", "191007.517500", "191009.017500", "191010.517500", "191012.017500", "191013.517500", "191015.017500", "191016.517500", "191018.017500", "191019.517500", "191021.017500", "191022.517500", "191024.017500", "191025.517500", "191027.017500", "191028.517500", "191030.017500", "191031.517500", "191033.017500", "191034.517500", "191036.017500", "191037.517500", "191039.017500", "191040.517500", "191042.017500", "191043.517500", "191045.017500", "191046.517500", "191048.017500", "191049.517500", "191051.017500", "191052.517500", "191054.017500", "191055.517500", "191057.017500", "191058.517500", "191100.017500", "191101.517500", "191103.017500", "191104.517500", "191106.017500", "191107.517500", "191109.017500", "191110.517500", "191112.017500", "191113.517500", "191115.017500", "191116.517500", "191118.017500", "191119.517500", "191121.017500", "191122.517500", "191124.017500", "191125.517500", "191127.017500", "191128.517500", "191130.017500", "191131.517500", "191133.017500", "191134.517500", "191136.017500", "191137.517500", "191139.017500", "191140.517500", "191142.017500", "191143.517500", "191145.017500", "191146.517500", "191148.017500", "191149.517500", "191151.017500", "191152.517500", "191154.017500", "191155.517500", "191157.017500", "191158.517500", "191200.017500", "191201.517500", "191203.017500", "191204.517500", "191206.017500", "191207.517500", "191209.017500", "191210.517500", "191212.017500", "191213.517500", "191215.017500", "191216.517500", "191218.017500", "191219.517500", "191221.017500", "191222.517500", "191224.017500", "191225.517500", "191227.017500", "191228.517500", "191230.017500", "191231.517500", "191233.017500", "191234.517500", "191236.017500", "191237.517500", "191239.017500", "191240.517500", "191242.017500", "191243.517500", "191245.017500", "191246.517500", "191248.017500", "191249.517500", "191251.017500", "191252.517500", "191254.017500", "191255.517500", "191257.017500", "191258.517500", "191300.017500", "191301.517500", "191303.017500", "191304.517500", "191306.017500", "191307.517500", "191309.017500", "191310.517500", "191312.017500", "191313.517500", "191315.017500", "191316.517500", "191318.017500", "191319.517500", "191321.017500", "191322.517500", "191324.017500", "191325.517500", "191327.017500", "191328.517500", "191330.017500", "191331.517500", "191333.017500", "191334.517500", "191336.017500", "191337.517500", "191339.017500", "191340.517500", "191342.017500", "191343.517500", "191345.017500", "191346.517500", "191348.017500", "191349.517500", "191351.017500", "191352.517500", "191354.017500", "191355.517500", "191357.017500", "191358.517500", "191400.017500", "191401.517500", "191403.017500", "191404.517500", "191406.017500", "191407.517500", "191409.017500", "191410.517500", "191412.017500", "191413.517500", "191415.017500", "191416.517500"],
      "ContentTime": ["190849.729000", "190849.733000", "190849.736000", "190849.739000", "190849.742000", "190849.745000", "190849.748000", "190849.751000", "190849.761000", "190849.764000", "190849.768000", "190849.771000", "190849.774000", "190849.777000", "190849.780000", "190849.783000", "190849.786000", "190849.789000", "190849.792000", "190849.795000", "190929.725000", "190929.728000", "190929.731000", "190929.734000", "190929.754000", "190929.757000", "190929.760000", "190929.763000", "190929.766000", "190929.777000", "190929.780000", "190929.783000", "190929.786000", "190929.789000", "190929.792000", "190929.795000", "190929.798000", "190929.801000", "190929.804000", "190929.807000", "190929.810000", "190929.813000", "190929.816000", "190929.819000", "190929.822000", "190929.825000", "191009.724000", "191009.733000", "191009.737000", "191009.740000", "191009.743000", "191009.746000", "191009.749000", "191009.752000", "191009.755000", "191009.758000", "191009.761000", "191009.764000", "191009.767000", "191009.770000", "191009.773000", "191009.776000", "191009.779000", "191009.782000", "191009.785000", "191009.788000", "191009.791000", "191009.794000", "191009.797000", "191009.800000", "191009.803000", "191009.806000", "191009.809000", "191029.724000", "191029.727000", "191029.730000", "191029.733000", "191029.736000", "191029.739000", "191029.742000", "191029.745000", "191029.748000", "191029.751000", "191029.754000", "191029.757000", "191029.760000", "191109.724000", "191109.727000", "191109.730000", "191109.733000", "191109.736000", "191109.739000", "191109.743000", "191109.745000", "191109.748000", "191109.751000", "191109.754000", "191109.757000", "191109.760000", "191109.763000", "191109.767000", "191109.769000", "191109.772000", "191109.775000", "191109.778000", "191109.781000", "191109.784000", "191109.787000", "191109.791000", "191109.793000", "191109.796000", "191109.799000", "191109.803000", "191149.725000", "191149.728000", "191149.731000", "191149.734000", "191149.737000", "191149.745000", "191149.748000", "191149.751000", "191149.754000", "191149.757000", "191149.760000", "191149.764000", "191149.767000", "191149.770000", "191149.773000", "191149.776000", "191149.779000", "191149.782000", "191149.785000", "191149.788000", "191149.791000", "191149.794000", "191149.797000", "191149.800000", "191149.803000", "191149.806000", "191149.809000", "191229.724000", "191229.727000", "191229.731000", "191229.733000", "191229.736000", "191229.739000", "191229.743000", "191229.745000", "191229.748000", "191229.751000", "191229.755000", "191229.758000", "191229.761000", "191229.763000", "191229.767000", "191229.770000", "191229.773000", "191229.776000", "191229.779000", "191229.782000", "191229.785000", "191229.788000", "191229.791000", "191229.794000", "191229.797000", "191229.800000", "191309.724000", "191309.727000", "191309.730000", "191309.733000", "191309.736000", "191309.739000", "191309.743000", "191309.746000", "191309.749000", "191309.752000", "191309.755000", "191309.758000", "191309.761000", "191309.764000", "191309.767000", "191309.770000", "191309.773000", "191309.776000", "191309.779000", "191309.782000", "191309.785000", "191309.799000", "191309.802000", "191309.805000", "191309.808000", "191309.818000", "191309.821000", "191349.724000", "191349.727000", "191349.730000", "191349.733000", "191349.736000", "191349.739000", "191349.742000", "191349.745000", "191349.748000", "191349.752000", "191349.755000", "191349.757000", "191349.760000", "191349.764000", "191349.767000", "191349.770000", "191349.773000", "191349.776000", "191349.779000", "191349.782000", "191349.785000", "191349.788000", "191349.791000", "191349.794000", "191349.797000", "191349.800000", "191349.803000", "191417.850000", "191417.854000", "191417.857000", "191417.860000", "191417.864000", "191417.867000", "191417.870000", "191417.873000", "191417.876000", "191417.880000", "191417.883000", "191417.886000", "191417.889000", "191417.893000", "191417.896000", "191417.899000", "191417.903000", "191417.906000", "191417.909000"],
      "InstanceCreationTime": ["190849.729000", "190849.733000", "190849.736000", "190849.739000", "190849.742000", "190849.745000", "190849.748000", "190849.751000", "190849.761000", "190849.764000", "190849.768000", "190849.771000", "190849.774000", "190849.777000", "190849.780000", "190849.783000", "190849.786000", "190849.789000", "190849.792000", "190849.795000", "190929.725000", "190929.728000", "190929.731000", "190929.734000", "190929.754000", "190929.757000", "190929.760000", "190929.763000", "190929.766000", "190929.777000", "190929.780000", "190929.783000", "190929.786000", "190929.789000", "190929.792000", "190929.795000", "190929.798000", "190929.801000", "190929.804000", "190929.807000", "190929.810000", "190929.813000", "190929.816000", "190929.819000", "190929.822000", "190929.825000", "191009.724000", "191009.733000", "191009.737000", "191009.740000", "191009.743000", "191009.746000", "191009.749000", "191009.752000", "191009.755000", "191009.758000", "191009.761000", "191009.764000", "191009.767000", "191009.770000", "191009.773000", "191009.776000", "191009.779000", "191009.782000", "191009.785000", "191009.788000", "191009.791000", "191009.794000", "191009.797000", "191009.800000", "191009.803000", "191009.806000", "191009.809000", "191029.724000", "191029.727000", "191029.730000", "191029.733000", "191029.736000", "191029.739000", "191029.742000", "191029.745000", "191029.748000", "191029.751000", "191029.754000", "191029.757000", "191029.760000", "191109.724000", "191109.727000", "191109.730000", "191109.733000", "191109.736000", "191109.739000", "191109.743000", "191109.745000", "191109.748000", "191109.751000", "191109.754000", "191109.757000", "191109.760000", "191109.763000", "191109.767000", "191109.769000", "191109.772000", "191109.775000", "191109.778000", "191109.781000", "191109.784000", "191109.787000", "191109.791000", "191109.793000", "191109.796000", "191109.799000", "191109.803000", "191149.725000", "191149.728000", "191149.731000", "191149.734000", "191149.737000", "191149.745000", "191149.748000", "191149.751000", "191149.754000", "191149.757000", "191149.760000", "191149.764000", "191149.767000", "191149.770000", "191149.773000", "191149.776000", "191149.779000", "191149.782000", "191149.785000", "191149.788000", "191149.791000", "191149.794000", "191149.797000", "191149.800000", "191149.803000", "191149.806000", "191149.809000", "191229.724000", "191229.727000", "191229.731000", "191229.733000", "191229.736000", "191229.739000", "191229.743000", "191229.745000", "191229.748000", "191229.751000", "191229.755000", "191229.758000", "191229.761000", "191229.763000", "191229.767000", "191229.770000", "191229.773000", "191229.776000", "191229.779000", "191229.782000", "191229.785000", "191229.788000", "191229.791000", "191229.794000", "191229.797000", "191229.800000", "191309.724000", "191309.727000", "191309.730000", "191309.733000", "191309.736000", "191309.739000", "191309.743000", "191309.746000", "191309.749000", "191309.752000", "191309.755000", "191309.758000", "191309.761000", "191309.764000", "191309.767000", "191309.770000", "191309.773000", "191309.776000", "191309.779000", "191309.782000", "191309.785000", "191309.799000", "191309.802000", "191309.805000", "191309.808000", "191309.818000", "191309.821000", "191349.724000", "191349.727000", "191349.730000", "191349.733000", "191349.736000", "191349.739000", "191349.742000", "191349.745000", "191349.748000", "191349.752000", "191349.755000", "191349.757000", "191349.760000", "191349.764000", "191349.767000", "191349.770000", "191349.773000", "191349.776000", "191349.779000", "191349.782000", "191349.785000", "191349.788000", "191349.791000", "191349.794000", "191349.797000", "191349.800000", "191349.803000", "191417.850000", "191417.854000", "191417.857000", "191417.860000", "191417.864000", "191417.867000", "191417.870000", "191417.873000", "191417.876000", "191417.880000", "191417.883000", "191417.886000", "191417.889000", "191417.893000", "191417.896000", "191417.899000", "191417.903000", "191417.906000", "191417.909000"],
      "InstanceNumber": [1, 2, 3, 4, 5, 6, 7, 8, 9, 10, 11, 12, 13, 14, 15, 16, 17, 18, 19, 20, 21, 22, 23, 24, 25, 26, 27, 28, 29, 30, 31, 32, 33, 34, 35, 36, 37, 38, 39, 40, 41, 42, 43, 44, 45, 46, 47, 48, 49, 50, 51, 52, 53, 54, 55, 56, 57, 58, 59, 60, 61, 62, 63, 64, 65, 66, 67, 68, 69, 70, 71, 72, 73, 74, 75, 76, 77, 78, 79, 80, 81, 82, 83, 84, 85, 86, 87, 88, 89, 90, 91, 92, 93, 94, 95, 96, 97, 98, 99, 100, 101, 102, 103, 104, 105, 106, 107, 108, 109, 110, 111, 112, 113, 114, 115, 116, 117, 118, 119, 120, 121, 122, 123, 124, 125, 126, 127, 128, 129, 130, 131, 132, 133, 134, 135, 136, 137, 138, 139, 140, 141, 142, 143, 144, 145, 146, 147, 148, 149, 150, 151, 152, 153, 154, 155, 156, 157, 158, 159, 160, 161, 162, 163, 164, 165, 166, 167, 168, 169, 170, 171, 172, 173, 174, 175, 176, 177, 178, 179, 180, 181, 182, 183, 184, 185, 186, 187, 188, 189, 190, 191, 192, 193, 194, 195, 196, 197, 198, 199, 200, 201, 202, 203, 204, 205, 206, 207, 208, 209, 210, 211, 212, 213, 214, 215, 216, 217, 218, 219, 220, 221, 222, 223, 224, 225, 226, 227, 228, 229, 230, 231, 232, 233, 234, 235, 236, 237, 238, 239],
      "LargestImagePixelValue": [2738, 2681, 2677, 2667, 2691, 2697, 2678, 2676, 2706, 2695, 2681, 2721, 2708, 2703, 2676, 2702, 2709, 2721, 2699, 2675, 2669, 2684, 2661, 2663, 2671, 2692, 2697, 2679, 2698, 2717, 2680, 2679, 2680, 2700, 2668, 2712, 2683, 2684, 2691, 2699, 2671, 2668, 2684, 2665, 2701, 2689, 2688, 2684, 2665, 2684, 2679, 2703, 2656, 2700, 2685, 2682, 2684, 2693, 2725, 2679, 2684, 2689, 2669, 2656, 2705, 2666, 2695, 2709, 2680, 2705, 2694, 2692, 2714, 2695, 2686, 2701, 2672, 2684, 2674, 2677, 2698, 2670, 2717, 2667, 2708, 2690, 2704, 2707, 2682, 2722, 2709, 2686, 2694, 2709, 2683, 2711, 2704, 2683, 2697, 2708, 2666, 2688, 2698, 2677, 2696, 2677, 2688, 2694, 2655, 2597, 2655, 2675, 2666, 2669, 2652, 2695, 2657, 2676, 2694, 2661, 2684, 2682, 2659, 2670, 2691, 2681, 2705, 2658, 2675, 2750, 2690, 2691, 2702, 2709, 2649, 2671, 2652, 2643, 2651, 2633, 2655, 2677, 2699, 2698, 2698, 2716, 2758, 2752, 2692, 2671, 2634, 2648, 2652, 2688, 2655, 2644, 2630, 2637, 2635, 2622, 2680, 2684, 2701, 2704, 2720, 2667, 2662, 2675, 2647, 2625, 2653, 2623, 2685, 2665, 2640, 2625, 2638, 2664, 2683, 2683, 2617, 2661, 2639, 2650, 2667, 2614, 2644, 2661, 2722, 2718, 2624, 2615, 2600, 2645, 2629, 2620, 2600, 2608, 2458, 2631, 2631, 2779, 2631, 2594, 2536, 2589, 2598, 2615, 2667, 2747, 2739, 2612, 2550, 2513, 2537, 2551, 2531, 2524, 2548, 2521, 2532, 2546, 2541, 2534, 2533, 2608, 2608, 2633, 2613, 2650, 2650, 2584, 2655, 2637, 2616, 2619, 2646, 2621, 2840],
      "WindowCenter": [727.0, 726.0, 725.0, 725.0, 725.0, 727.0, 727.0, 728.0, 728.0, 729.0, 729.0, 731.0, 731.0, 732.0, 732.0, 733.0, 732.0, 733.0, 732.0, 733.0, 732.0, 732.0, 732.0, 731.0, 730.0, 730.0, 730.0, 731.0, 732.0, 732.0, 731.0, 731.0, 732.0, 732.0, 732.0, 734.0, 734.0, 732.0, 731.0, 731.0, 732.0, 731.0, 731.0, 731.0, 732.0, 732.0, 733.0, 732.0, 729.0, 729.0, 728.0, 730.0, 732.0, 732.0, 733.0, 732.0, 733.0, 732.0, 732.0, 730.0, 729.0, 729.0, 729.0, 729.0, 729.0, 729.0, 729.0, 729.0, 729.0, 730.0, 731.0, 731.0, 731.0, 732.0, 730.0, 730.0, 730.0, 731.0, 732.0, 731.0, 732.0, 731.0, 731.0, 730.0, 731.0, 731.0, 732.0, 733.0, 734.0, 734.0, 735.0, 734.0, 734.0, 734.0, 734.0, 734.0, 734.0, 734.0, 734.0, 733.0, 733.0, 733.0, 733.0, 732.0, 733.0, 732.0, 732.0, 732.0, 733.0, 733.0, 734.0, 732.0, 732.0, 731.0, 730.0, 730.0, 730.0, 730.0, 731.0, 730.0, 731.0, 731.0, 730.0, 730.0, 731.0, 731.0, 732.0, 732.0, 732.0, 730.0, 732.0, 733.0, 734.0, 733.0, 730.0, 729.0, 729.0, 728.0, 729.0, 729.0, 730.0, 731.0, 731.0, 731.0, 730.0, 732.0, 732.0, 732.0, 730.0, 729.0, 728.0, 728.0, 729.0, 731.0, 732.0, 732.0, 730.0, 729.0, 728.0, 729.0, 731.0, 732.0, 731.0, 731.0, 732.0, 732.0, 730.0, 729.0, 729.0, 726.0, 725.0, 724.0, 725.0, 727.0, 726.0, 725.0, 726.0, 725.0, 725.0, 726.0, 725.0, 724.0, 725.0, 726.0, 728.0, 728.0, 728.0, 729.0, 730.0, 730.0, 728.0, 726.0, 725.0, 724.0, 724.0, 725.0, 726.0, 726.0, 719.0, 728.0, 727.0, 728.0, 728.0, 729.0, 727.0, 727.0, 726.0, 727.0, 728.0, 730.0, 732.0, 728.0, 725.0, 723.0, 722.0, 721.0, 721.0, 720.0, 720.0, 721.0, 721.0, 722.0, 724.0, 724.0, 725.0, 726.0, 726.0, 727.0, 727.0, 728.0, 728.0, 728.0, 729.0, 730.0, 729.0, 728.0, 728.0, 729.0, 732.0],
      "WindowWidth": [1579.0, 1575.0, 1572.0, 1572.0, 1573.0, 1579.0, 1579.0, 1580.0, 1582.0, 1583.0, 1585.0, 1590.0, 1590.0, 1591.0, 1592.0, 1595.0, 1593.0, 1595.0, 1593.0, 1596.0, 1593.0, 1594.0, 1591.0, 1588.0, 1586.0, 1586.0, 1588.0, 1590.0, 1592.0, 1591.0, 1590.0, 1589.0, 1591.0, 1592.0, 1592.0, 1598.0, 1598.0, 1592.0, 1591.0, 1588.0, 1591.0, 1589.0, 1588.0, 1590.0, 1592.0, 1593.0, 1594.0, 1591.0, 1585.0, 1582.0, 1582.0, 1587.0, 1591.0, 1594.0, 1594.0, 1593.0, 1594.0, 1591.0, 1592.0, 1587.0, 1584.0, 1584.0, 1582.0, 1585.0, 1584.0, 1584.0, 1584.0, 1583.0, 1585.0, 1586.0, 1589.0, 1589.0, 1589.0, 1591.0, 1586.0, 1586.0, 1586.0, 1589.0, 1591.0, 1590.0, 1591.0, 1590.0, 1590.0, 1588.0, 1590.0, 1590.0, 1593.0, 1596.0, 1597.0, 1599.0, 1600.0, 1598.0, 1600.0, 1598.0, 1598.0, 1599.0, 1598.0, 1597.0, 1597.0, 1596.0, 1596.0, 1596.0, 1596.0, 1594.0, 1595.0, 1594.0, 1594.0, 1593.0, 1596.0, 1597.0, 1597.0, 1593.0, 1593.0, 1591.0, 1587.0, 1587.0, 1586.0, 1588.0, 1589.0, 1588.0, 1590.0, 1590.0, 1588.0, 1588.0, 1588.0, 1590.0, 1592.0, 1592.0, 1593.0, 1588.0, 1593.0, 1597.0, 1599.0, 1595.0, 1588.0, 1584.0, 1583.0, 1581.0, 1584.0, 1583.0, 1585.0, 1588.0, 1589.0, 1588.0, 1587.0, 1591.0, 1592.0, 1592.0, 1587.0, 1584.0, 1581.0, 1582.0, 1583.0, 1591.0, 1593.0, 1592.0, 1587.0, 1582.0, 1581.0, 1585.0, 1589.0, 1592.0, 1589.0, 1589.0, 1592.0, 1591.0, 1585.0, 1585.0, 1584.0, 1575.0, 1572.0, 1570.0, 1571.0, 1578.0, 1574.0, 1573.0, 1576.0, 1572.0, 1574.0, 1574.0, 1572.0, 1571.0, 1573.0, 1577.0, 1581.0, 1581.0, 1582.0, 1583.0, 1588.0, 1587.0, 1581.0, 1576.0, 1572.0, 1570.0, 1570.0, 1572.0, 1575.0, 1576.0, 1556.0, 1581.0, 1579.0, 1582.0, 1581.0, 1583.0, 1578.0, 1577.0, 1575.0, 1579.0, 1582.0, 1588.0, 1594.0, 1581.0, 1573.0, 1566.0, 1564.0, 1562.0, 1562.0, 1559.0, 1559.0, 1561.0, 1563.0, 1566.0, 1569.0, 1571.0, 1573.0, 1575.0, 1576.0, 1578.0, 1578.0, 1581.0, 1581.0, 1581.0, 1583.0, 1588.0, 1584.0, 1582.0, 1582.0, 1584.0, 1592.0]
    },
    "slices": {}
  }
}