{
  "AcquisitionMatrixPE": 72,
  "AcquisitionNumber": 1,
  "AcquisitionTime": "18:51:3.620000",
  "BandwidthPerPixelPhaseEncode": 17.943,
  "BaseResolution": 96,
  "BodyPartExamined": "BRAIN",
  "CoilCombinationMethod": "Sum of Squares",
  "ConsistencyInfo": "N4_VE11C_LATEST_20160120",
  "ConversionSoftware": "dcm2niix",
  "ConversionSoftwareVersion": "v1.0.20211006",
  "DerivedVendorReportedEchoSpacing": 0.000552897,
  "DeviceSerialNumber": "166011",
  "EchoTime": 0.03,
  "EchoTrainLength": 58,
  "EffectiveEchoSpacing": 0.000580542,
  "FlipAngle": 62,
  "ImageOrientationPatientDICOM": [0.996656, -0.0571133, 0.0584364, 0.0646256, 0.988599, -0.135999],
  "ImageType": [
    "ORIGINAL",
    "PRIMARY",
    "M",
    "ND",
    "MOSAIC"
],
  "ImagingFrequency": 123.259,
  "InPlanePhaseEncodingDirectionDICOM": "COL",
  "InstitutionAddress": "West 130th Street 610,NY,NYC,US,10025",
  "InstitutionName": "MBBI",
  "MRAcquisitionType": "2D",
  "MagneticFieldStrength": 3,
  "Manufacturer": "Siemens",
  "ManufacturersModelName": "Prisma",
  "Modality": "MR",
  "MultibandAccelerationFactor": 3,
  "PartialFourier": 0.75,
  "PatientPosition": "HFS",
  "PercentPhaseFOV": 100,
  "PercentSampling": 75,
  "PhaseEncodingDirection": "j-",
  "PhaseEncodingSteps": 58,
  "PhaseOversampling": 0.05,
  "PhaseResolution": 0.75,
  "PixelBandwidth": 2265,
  "ProcedureStepDescription": "White^Word_recognition",
  "ProtocolName": "func_vwfate_run14",
  "PulseSequenceDetails": "%SiemensSeq%\\ep2d_bold",
  "ReceiveCoilActiveElements": "HC1-7",
  "ReceiveCoilName": "HeadNeck_64",
  "ReconMatrixPE": 96,
  "RefLinesPE": 40,
  "RepetitionTime": 1.5,
  "SAR": 0.04231,
  "ScanOptions": "PFP\\FS",
  "ScanningSequence": "EP",
  "SequenceName": "*epfid2d1_72",
  "SequenceVariant": "SK\\OSP",
  "SeriesDescription": "func_vwfate_run14",
  "SeriesNumber": 9,
  "ShimSetting": [-1140, -1374, 680, 518, -39, -15, -167, -51],
  "SliceThickness": 2,
  "SliceTiming": [1.075, 0, 0.74, 0.065, 0.805, 0.1325, 0.8725, 0.2, 0.94, 0.2675, 1.0075, 0.4025, 1.1425, 0.47, 1.21, 0.5375, 1.2775, 0.605, 1.345, 0.6725, 1.4125, 0.335, 1.075, 0, 0.74, 0.065, 0.805, 0.1325, 0.8725, 0.2, 0.94, 0.2675, 1.0075, 0.4025, 1.1425, 0.47, 1.21, 0.5375, 1.2775, 0.605, 1.345, 0.6725, 1.4125, 0.335, 1.075, 0, 0.74, 0.065, 0.805, 0.1325, 0.8725, 0.2, 0.94, 0.2675, 1.0075, 0.4025, 1.1425, 0.47, 1.21, 0.5375, 1.2775, 0.605, 1.345, 0.6725, 1.4125, 0.335],
  "SoftwareVersions": "syngo MR E11",
  "SpacingBetweenSlices": 2,
  "StationName": "AWP166011",
  "TaskName": "vwfate",
  "TotalReadoutTime": 0.0551515,
  "TxRefAmp": 213.443,
  "dcmmeta_affine": [
    [-1.993312120437622, 0.1292511373758316, 0.10000567138195038, 92.49671936035156],
    [0.11422662436962128, 1.9771977663040161, -0.2786417603492737, -71.47186279296875],
    [0.1168728768825531, 0.2719983160495758, 1.9779680967330933, -68.0297622680664],
    [0.0, 0.0, 0.0, 1.0]
],
  "dcmmeta_reorient_transform": [
    [0.0, -1.0, 0.0, 95.0],
    [1.0, 0.0, 0.0, 0.0],
    [0.0, 0.0, 1.0, 0.0],
    [0.0, 0.0, 0.0, 1.0]
],
  "dcmmeta_shape": [96, 96, 66, 164],
  "dcmmeta_slice_dim": 2,
  "dcmmeta_version": 0.6,
  "global": {
    "const": {
      "AcquisitionMatrix": [96, 0, 0, 72],
      "AngioFlag": "N",
      "BitsAllocated": 16,
      "BitsStored": 12,
      "BodyPartExamined": "BRAIN",
      "Columns": 864,
      "EchoNumbers": 1,
      "EchoTime": 30.0,
      "EchoTrainLength": 58,
      "FlipAngle": 62.0,
      "HighBit": 11,
      "ImageOrientationPatient": [0.99665603501086, -0.0571133132924, 0.05843643830011, 0.06462557012676, 0.98859888977868, -0.1359991574024],
      "ImagePositionPatient": [-919.8398542079, -831.74284625066, 17.378244937913],
      "ImageType": [
        "ORIGINAL",
        "PRIMARY",
        "M",
        "ND",
        "MOSAIC"
],
      "ImagedNucleus": "1H",
      "ImagingFrequency": 123.259464,
      "InPlanePhaseEncodingDirection": "COL",
      "MRAcquisitionType": "2D",
      "MagneticFieldStrength": 3.0,
      "Manufacturer": "SIEMENS",
      "ManufacturerModelName": "Prisma",
      "Modality": "MR",
      "NumberOfAverages": 1.0,
      "NumberOfPhaseEncodingSteps": 58,
      "PercentPhaseFieldOfView": 100.0,
      "PercentSampling": 75.0,
      "PerformedProcedureStepStartTime": "182408.510000",
      "PhotometricInterpretation": "MONOCHROME2",
      "PixelBandwidth": 2265.0,
      "PixelRepresentation": 0,
      "PixelSpacing": [2.0, 2.0],
      "ProtocolName": "func_vwfate_run14",
      "RepetitionTime": 1500.0,
      "Rows": 864,
      "SAR": 0.04231000557094,
      "SamplesPerPixel": 1,
      "ScanOptions": [
        "PFP",
        "FS"
],
      "ScanningSequence": "EP",
      "SequenceName": "*epfid2d1_72",
      "SequenceVariant": [
        "SK",
        "OSP"
],
      "SeriesDescription": "func_vwfate_run14",
      "SeriesNumber": 9,
      "SeriesTime": "185109.726000",
      "SliceLocation": -52.697728556093,
      "SliceThickness": 2.0,
      "SmallestImagePixelValue": 0,
      "SoftwareVersions": "syngo MR E11",
      "SpacingBetweenSlices": 2.0000000635098,
      "SpecificCharacterSet": "ISO_IR 100",
      "StudyID": "3",
      "StudyTime": "182408.452000",
      "TransmitCoilName": "Body",
      "VariableFlipAngleFlag": "N",
      "WindowCenterWidthExplanation": "Algo1",
      "dBdt": 0.0},
    "slices": {}
  },
  "time": {
    "samples": {
      "AcquisitionNumber": [1, 2, 3, 4, 5, 6, 7, 8, 9, 10, 11, 12, 13, 14, 15, 16, 17, 18, 19, 20, 21, 22, 23, 24, 25, 26, 27, 28, 29, 30, 31, 32, 33, 34, 35, 36, 37, 38, 39, 40, 41, 42, 43, 44, 45, 46, 47, 48, 49, 50, 51, 52, 53, 54, 55, 56, 57, 58, 59, 60, 61, 62, 63, 64, 65, 66, 67, 68, 69, 70, 71, 72, 73, 74, 75, 76, 77, 78, 79, 80, 81, 82, 83, 84, 85, 86, 87, 88, 89, 90, 91, 92, 93, 94, 95, 96, 97, 98, 99, 100, 101, 102, 103, 104, 105, 106, 107, 108, 109, 110, 111, 112, 113, 114, 115, 116, 117, 118, 119, 120, 121, 122, 123, 124, 125, 126, 127, 128, 129, 130, 131, 132, 133, 134, 135, 136, 137, 138, 139, 140, 141, 142, 143, 144, 145, 146, 147, 148, 149, 150, 151, 152, 153, 154, 155, 156, 157, 158, 159, 160, 161, 162, 163, 164],
      "AcquisitionTime": ["185103.620000", "185105.120000", "185106.620000", "185108.120000", "185109.620000", "185111.120000", "185112.620000", "185114.120000", "185115.620000", "185117.120000", "185118.620000", "185120.120000", "185121.620000", "185123.120000", "185124.620000", "185126.120000", "185127.620000", "185129.120000", "185130.620000", "185132.120000", "185133.620000", "185135.120000", "185136.620000", "185138.120000", "185139.620000", "185141.120000", "185142.620000", "185144.120000", "185145.620000", "185147.120000", "185148.620000", "185150.120000", "185151.620000", "185153.120000", "185154.620000", "185156.120000", "185157.620000", "185159.120000", "185200.620000", "185202.120000", "185203.620000", "185205.120000", "185206.620000", "185208.120000", "185209.620000", "185211.120000", "185212.620000", "185214.120000", "185215.620000", "185217.120000", "185218.620000", "185220.120000", "185221.620000", "185223.120000", "185224.620000", "185226.120000", "185227.620000", "185229.120000", "185230.620000", "185232.120000", "185233.620000", "185235.120000", "185236.620000", "185238.120000", "185239.620000", "185241.120000", "185242.620000", "185244.120000", "185245.620000", "185247.120000", "185248.620000", "185250.120000", "185251.620000", "185253.120000", "185254.620000", "185256.120000", "185257.620000", "185259.120000", "185300.620000", "185302.120000", "185303.620000", "185305.120000", "185306.620000", "185308.120000", "185309.620000", "185311.120000", "185312.620000", "185314.120000", "185315.620000", "185317.120000", "185318.620000", "185320.120000", "185321.620000", "185323.120000", "185324.620000", "185326.120000", "185327.620000", "185329.120000", "185330.620000", "185332.120000", "185333.620000", "185335.120000", "185336.620000", "185338.120000", "185339.620000", "185341.120000", "185342.620000", "185344.120000", "185345.620000", "185347.120000", "185348.620000", "185350.120000", "185351.620000", "185353.120000", "185354.620000", "185356.120000", "185357.620000", "185359.120000", "185400.620000", "185402.120000", "185403.620000", "185405.120000", "185406.620000", "185408.120000", "185409.620000", "185411.120000", "185412.620000", "185414.120000", "185415.620000", "185417.120000", "185418.620000", "185420.120000", "185421.620000", "185423.120000", "185424.620000", "185426.120000", "185427.620000", "185429.120000", "185430.620000", "185432.120000", "185433.620000", "185435.120000", "185436.620000", "185438.120000", "185439.620000", "185441.120000", "185442.620000", "185444.120000", "185445.620000", "185447.120000", "185448.620000", "185450.120000", "185451.620000", "185453.120000", "185454.620000", "185456.120000", "185457.620000", "185459.120000", "185500.620000", "185502.120000", "185503.620000", "185505.120000", "185506.620000", "185508.120000"],
      "ContentTime": ["185109.730000", "185109.733000", "185109.736000", "185109.739000", "185149.724000", "185149.727000", "185149.752000", "185149.755000", "185149.758000", "185149.761000", "185149.764000", "185149.767000", "185149.770000", "185149.774000", "185149.777000", "185149.780000", "185149.783000", "185149.786000", "185149.789000", "185149.792000", "185149.795000", "185149.798000", "185149.801000", "185149.804000", "185149.811000", "185149.814000", "185149.817000", "185149.820000", "185149.823000", "185149.826000", "185149.829000", "185229.724000", "185229.727000", "185229.730000", "185229.733000", "185229.736000", "185229.739000", "185229.742000", "185229.745000", "185229.748000", "185229.751000", "185229.754000", "185229.757000", "185229.760000", "185229.763000", "185229.766000", "185229.769000", "185229.772000", "185229.775000", "185229.784000", "185229.787000", "185229.790000", "185229.793000", "185229.796000", "185229.799000", "185229.802000", "185229.805000", "185309.725000", "185309.728000", "185309.732000", "185309.734000", "185309.737000", "185309.740000", "185309.744000", "185309.747000", "185309.750000", "185309.752000", "185309.756000", "185309.759000", "185309.762000", "185309.764000", "185309.768000", "185309.771000", "185309.774000", "185309.789000", "185309.793000", "185309.796000", "185309.799000", "185309.801000", "185309.805000", "185309.808000", "185309.811000", "185309.813000", "185309.817000", "185349.724000", "185349.727000", "185349.730000", "185349.733000", "185349.736000", "185349.739000", "185349.742000", "185349.745000", "185349.748000", "185349.751000", "185349.754000", "185349.757000", "185349.760000", "185349.763000", "185349.766000", "185349.769000", "185349.772000", "185349.775000", "185349.778000", "185349.781000", "185349.784000", "185349.788000", "185349.791000", "185349.794000", "185349.796000", "185349.800000", "185349.803000", "185429.724000", "185429.727000", "185429.730000", "185429.733000", "185429.736000", "185429.739000", "185429.742000", "185429.745000", "185429.748000", "185429.751000", "185429.754000", "185429.757000", "185429.760000", "185429.763000", "185429.766000", "185429.770000", "185429.773000", "185429.776000", "185429.779000", "185429.782000", "185429.785000", "185429.788000", "185429.791000", "185429.794000", "185429.797000", "185429.800000", "185508.980000", "185508.984000", "185508.987000", "185508.990000", "185508.993000", "185508.997000", "185509.001000", "185509.004000", "185509.007000", "185509.010000", "185509.014000", "185509.017000", "185509.020000", "185509.023000", "185509.027000", "185509.032000", "185509.035000", "185509.038000", "185509.041000", "185509.044000", "185509.047000", "185509.050000", "185509.053000", "185509.056000", "185509.060000", "185509.063000", "185509.066000"],
      "InstanceCreationTime": ["185109.730000", "185109.733000", "185109.736000", "185109.739000", "185149.724000", "185149.727000", "185149.752000", "185149.755000", "185149.758000", "185149.761000", "185149.764000", "185149.767000", "185149.770000", "185149.774000", "185149.777000", "185149.780000", "185149.783000", "185149.786000", "185149.789000", "185149.792000", "185149.795000", "185149.798000", "185149.801000", "185149.804000", "185149.811000", "185149.814000", "185149.817000", "185149.820000", "185149.823000", "185149.826000", "185149.829000", "185229.724000", "185229.727000", "185229.730000", "185229.733000", "185229.736000", "185229.739000", "185229.742000", "185229.745000", "185229.748000", "185229.751000", "185229.754000", "185229.757000", "185229.760000", "185229.763000", "185229.766000", "185229.769000", "185229.772000", "185229.775000", "185229.784000", "185229.787000", "185229.790000", "185229.793000", "185229.796000", "185229.799000", "185229.802000", "185229.805000", "185309.725000", "185309.728000", "185309.732000", "185309.734000", "185309.737000", "185309.740000", "185309.744000", "185309.747000", "185309.750000", "185309.752000", "185309.756000", "185309.759000", "185309.762000", "185309.764000", "185309.768000", "185309.771000", "185309.774000", "185309.789000", "185309.793000", "185309.796000", "185309.799000", "185309.801000", "185309.805000", "185309.808000", "185309.811000", "185309.813000", "185309.817000", "185349.724000", "185349.727000", "185349.730000", "185349.733000", "185349.736000", "185349.739000", "185349.742000", "185349.745000", "185349.748000", "185349.751000", "185349.754000", "185349.757000", "185349.760000", "185349.763000", "185349.766000", "185349.769000", "185349.772000", "185349.775000", "185349.778000", "185349.781000", "185349.784000", "185349.788000", "185349.791000", "185349.794000", "185349.796000", "185349.800000", "185349.803000", "185429.724000", "185429.727000", "185429.730000", "185429.733000", "185429.736000", "185429.739000", "185429.742000", "185429.745000", "185429.748000", "185429.751000", "185429.754000", "185429.757000", "185429.760000", "185429.763000", "185429.766000", "185429.770000", "185429.773000", "185429.776000", "185429.779000", "185429.782000", "185429.785000", "185429.788000", "185429.791000", "185429.794000", "185429.797000", "185429.800000", "185508.980000", "185508.984000", "185508.987000", "185508.990000", "185508.993000", "185508.997000", "185509.001000", "185509.004000", "185509.007000", "185509.010000", "185509.014000", "185509.017000", "185509.020000", "185509.023000", "185509.027000", "185509.032000", "185509.035000", "185509.038000", "185509.041000", "185509.044000", "185509.047000", "185509.050000", "185509.053000", "185509.056000", "185509.060000", "185509.063000", "185509.066000"],
      "InstanceNumber": [1, 2, 3, 4, 5, 6, 7, 8, 9, 10, 11, 12, 13, 14, 15, 16, 17, 18, 19, 20, 21, 22, 23, 24, 25, 26, 27, 28, 29, 30, 31, 32, 33, 34, 35, 36, 37, 38, 39, 40, 41, 42, 43, 44, 45, 46, 47, 48, 49, 50, 51, 52, 53, 54, 55, 56, 57, 58, 59, 60, 61, 62, 63, 64, 65, 66, 67, 68, 69, 70, 71, 72, 73, 74, 75, 76, 77, 78, 79, 80, 81, 82, 83, 84, 85, 86, 87, 88, 89, 90, 91, 92, 93, 94, 95, 96, 97, 98, 99, 100, 101, 102, 103, 104, 105, 106, 107, 108, 109, 110, 111, 112, 113, 114, 115, 116, 117, 118, 119, 120, 121, 122, 123, 124, 125, 126, 127, 128, 129, 130, 131, 132, 133, 134, 135, 136, 137, 138, 139, 140, 141, 142, 143, 144, 145, 146, 147, 148, 149, 150, 151, 152, 153, 154, 155, 156, 157, 158, 159, 160, 161, 162, 163, 164],
      "LargestImagePixelValue": [2620, 2655, 2552, 2530, 2584, 2533, 2533, 2563, 2537, 2522, 2580, 2553, 2528, 2527, 2550, 2542, 2540, 2557, 2521, 2538, 2565, 2559, 2521, 2504, 2547, 2543, 2526, 2524, 2507, 2522, 2505, 2535, 2555, 2513, 2541, 2547, 2499, 2559, 2516, 2528, 2550, 2548, 2515, 2509, 2538, 2500, 2501, 2561, 2541, 2518, 2509, 2561, 2521, 2511, 2544, 2607, 2537, 2530, 2542, 2544, 2547, 2532, 2549, 2547, 2632, 2527, 2622, 2648, 2595, 2596, 2585, 2552, 2545, 2572, 2588, 2601, 2618, 2649, 2665, 2639, 2739, 2730, 2748, 2773, 2711, 2726, 2735, 2697, 2750, 2781, 2775, 2795, 2765, 2769, 2746, 2767, 2795, 2805, 2794, 2804, 2802, 2815, 2772, 2769, 2741, 2789, 2739, 2695, 2686, 2628, 2619, 2650, 2634, 2660, 2717, 2672, 2656, 2655, 2708, 2667, 2697, 2704, 2721, 2678, 2672, 2704, 2773, 2755, 2807, 2806, 2686, 2642, 2624, 2583, 2542, 2574, 2540, 2525, 2547, 2541, 2573, 2591, 2629, 2633, 2612, 2591, 2590, 2585, 2531, 2551, 2567, 2614, 2602, 2596, 2617, 2603, 2647, 2581, 2586, 2592, 2597, 2637, 2708, 2703],
      "WindowCenter": [734.0, 731.0, 731.0, 731.0, 730.0, 729.0, 728.0, 728.0, 728.0, 728.0, 729.0, 730.0, 730.0, 729.0, 728.0, 728.0, 728.0, 728.0, 728.0, 728.0, 728.0, 729.0, 728.0, 728.0, 728.0, 728.0, 729.0, 729.0, 729.0, 729.0, 730.0, 729.0, 729.0, 727.0, 727.0, 727.0, 728.0, 729.0, 729.0, 729.0, 728.0, 728.0, 728.0, 728.0, 728.0, 728.0, 727.0, 728.0, 727.0, 728.0, 728.0, 729.0, 729.0, 729.0, 729.0, 729.0, 729.0, 730.0, 729.0, 727.0, 726.0, 725.0, 724.0, 725.0, 727.0, 727.0, 729.0, 729.0, 727.0, 727.0, 725.0, 723.0, 723.0, 724.0, 724.0, 725.0, 725.0, 726.0, 726.0, 727.0, 728.0, 730.0, 730.0, 729.0, 728.0, 727.0, 728.0, 728.0, 729.0, 730.0, 730.0, 731.0, 730.0, 731.0, 731.0, 732.0, 733.0, 734.0, 734.0, 733.0, 733.0, 733.0, 732.0, 732.0, 733.0, 733.0, 733.0, 732.0, 731.0, 730.0, 730.0, 729.0, 729.0, 729.0, 730.0, 730.0, 730.0, 730.0, 730.0, 730.0, 730.0, 730.0, 730.0, 730.0, 730.0, 729.0, 731.0, 731.0, 732.0, 732.0, 731.0, 730.0, 729.0, 728.0, 726.0, 726.0, 726.0, 727.0, 728.0, 729.0, 729.0, 729.0, 729.0, 729.0, 729.0, 730.0, 730.0, 729.0, 728.0, 728.0, 728.0, 728.0, 728.0, 728.0, 728.0, 728.0, 728.0, 727.0, 726.0, 727.0, 726.0, 726.0, 728.0, 730.0],
      "WindowWidth": [1598.0, 1590.0, 1588.0, 1588.0, 1587.0, 1582.0, 1580.0, 1581.0, 1580.0, 1581.0, 1584.0, 1585.0, 1585.0, 1582.0, 1581.0, 1580.0, 1579.0, 1580.0, 1580.0, 1580.0, 1581.0, 1582.0, 1581.0, 1581.0, 1581.0, 1581.0, 1582.0, 1584.0, 1584.0, 1582.0, 1585.0, 1583.0, 1582.0, 1578.0, 1577.0, 1577.0, 1580.0, 1584.0, 1584.0, 1582.0, 1581.0, 1581.0, 1579.0, 1580.0, 1579.0, 1580.0, 1578.0, 1579.0, 1579.0, 1579.0, 1580.0, 1583.0, 1581.0, 1582.0, 1584.0, 1585.0, 1584.0, 1587.0, 1583.0, 1578.0, 1575.0, 1571.0, 1569.0, 1572.0, 1577.0, 1579.0, 1583.0, 1582.0, 1578.0, 1576.0, 1572.0, 1566.0, 1566.0, 1569.0, 1570.0, 1571.0, 1571.0, 1574.0, 1575.0, 1576.0, 1579.0, 1586.0, 1587.0, 1584.0, 1579.0, 1578.0, 1580.0, 1580.0, 1583.0, 1585.0, 1587.0, 1589.0, 1587.0, 1588.0, 1589.0, 1591.0, 1595.0, 1597.0, 1597.0, 1595.0, 1594.0, 1594.0, 1592.0, 1592.0, 1594.0, 1595.0, 1595.0, 1591.0, 1589.0, 1586.0, 1585.0, 1584.0, 1584.0, 1584.0, 1587.0, 1586.0, 1586.0, 1587.0, 1587.0, 1587.0, 1587.0, 1586.0, 1585.0, 1585.0, 1585.0, 1583.0, 1589.0, 1589.0, 1591.0, 1591.0, 1588.0, 1586.0, 1583.0, 1579.0, 1575.0, 1574.0, 1574.0, 1578.0, 1581.0, 1582.0, 1584.0, 1583.0, 1582.0, 1582.0, 1583.0, 1585.0, 1585.0, 1584.0, 1581.0, 1580.0, 1579.0, 1580.0, 1581.0, 1581.0, 1581.0, 1581.0, 1581.0, 1578.0, 1576.0, 1576.0, 1575.0, 1576.0, 1581.0, 1586.0]
    },
    "slices": {}
  }
}