{
  "AcquisitionMatrixPE": 72,
  "AcquisitionNumber": 1,
  "AcquisitionTime": "19:15:4.645000",
  "BandwidthPerPixelPhaseEncode": 17.943,
  "BaseResolution": 96,
  "BodyPartExamined": "BRAIN",
  "CoilCombinationMethod": "Sum of Squares",
  "ConsistencyInfo": "N4_VE11C_LATEST_20160120",
  "ConversionSoftware": "dcm2niix",
  "ConversionSoftwareVersion": "v1.0.20211006",
  "DerivedVendorReportedEchoSpacing": 0.000552897,
  "DeviceSerialNumber": "166011",
  "EchoTime": 0.03,
  "EchoTrainLength": 58,
  "EffectiveEchoSpacing": 0.000580542,
  "FlipAngle": 62,
  "ImageOrientationPatientDICOM": [0.996656, -0.0571133, 0.0584364, 0.0646256, 0.988599, -0.135999],
  "ImageType": [
    "ORIGINAL",
    "PRIMARY",
    "M",
    "ND",
    "MOSAIC"
],
  "ImagingFrequency": 123.259,
  "InPlanePhaseEncodingDirectionDICOM": "COL",
  "InstitutionAddress": "West 130th Street 610,NY,NYC,US,10025",
  "InstitutionName": "MBBI",
  "MRAcquisitionType": "2D",
  "MagneticFieldStrength": 3,
  "Manufacturer": "Siemens",
  "ManufacturersModelName": "Prisma",
  "Modality": "MR",
  "MultibandAccelerationFactor": 3,
  "PartialFourier": 0.75,
  "PatientPosition": "HFS",
  "PercentPhaseFOV": 100,
  "PercentSampling": 75,
  "PhaseEncodingDirection": "j-",
  "PhaseEncodingSteps": 58,
  "PhaseOversampling": 0.05,
  "PhaseResolution": 0.75,
  "PixelBandwidth": 2265,
  "ProcedureStepDescription": "White^Word_recognition",
  "ProtocolName": "func_language_run3",
  "PulseSequenceDetails": "%SiemensSeq%\\ep2d_bold",
  "ReceiveCoilActiveElements": "HC1-7",
  "ReceiveCoilName": "HeadNeck_64",
  "ReconMatrixPE": 96,
  "RefLinesPE": 40,
  "RepetitionTime": 1.5,
  "SAR": 0.0424884,
  "ScanOptions": "PFP\\FS",
  "ScanningSequence": "EP",
  "SequenceName": "*epfid2d1_72",
  "SequenceVariant": "SK\\OSP",
  "SeriesDescription": "func_language_run3",
  "SeriesNumber": 13,
  "ShimSetting": [-1140, -1374, 680, 518, -39, -15, -167, -51],
  "SliceThickness": 2,
  "SliceTiming": [1.075, 0, 0.74, 0.0675, 0.8075, 0.135, 0.875, 0.2, 0.94, 0.2675, 1.0075, 0.4025, 1.1425, 0.47, 1.21, 0.5375, 1.2775, 0.605, 1.345, 0.6725, 1.4125, 0.335, 1.075, 0, 0.74, 0.0675, 0.8075, 0.135, 0.875, 0.2, 0.94, 0.2675, 1.0075, 0.4025, 1.1425, 0.47, 1.21, 0.5375, 1.2775, 0.605, 1.345, 0.6725, 1.4125, 0.335, 1.075, 0, 0.74, 0.0675, 0.8075, 0.135, 0.875, 0.2, 0.94, 0.2675, 1.0075, 0.4025, 1.1425, 0.47, 1.21, 0.5375, 1.2775, 0.605, 1.345, 0.6725, 1.4125, 0.335],
  "SoftwareVersions": "syngo MR E11",
  "SpacingBetweenSlices": 2,
  "StationName": "AWP166011",
  "TaskName": "langLoc",
  "TotalReadoutTime": 0.0551515,
  "TxRefAmp": 213.443,
  "dcmmeta_affine": [
    [-1.993312120437622, 0.1292511373758316, 0.10000567138195038, 92.49671936035156],
    [0.11422662436962128, 1.9771977663040161, -0.2786417603492737, -71.47186279296875],
    [0.1168728768825531, 0.2719983160495758, 1.9779680967330933, -68.0297622680664],
    [0.0, 0.0, 0.0, 1.0]
],
  "dcmmeta_reorient_transform": [
    [0.0, -1.0, 0.0, 95.0],
    [1.0, 0.0, 0.0, 0.0],
    [0.0, 0.0, 1.0, 0.0],
    [0.0, 0.0, 0.0, 1.0]
],
  "dcmmeta_shape": [96, 96, 66, 239],
  "dcmmeta_slice_dim": 2,
  "dcmmeta_version": 0.6,
  "global": {
    "const": {
      "AcquisitionMatrix": [96, 0, 0, 72],
      "AngioFlag": "N",
      "BitsAllocated": 16,
      "BitsStored": 12,
      "BodyPartExamined": "BRAIN",
      "Columns": 864,
      "EchoNumbers": 1,
      "EchoTime": 30.0,
      "EchoTrainLength": 58,
      "FlipAngle": 62.0,
      "HighBit": 11,
      "ImageOrientationPatient": [0.99665603501086, -0.0571133132924, 0.05843643830011, 0.06462557012676, 0.98859888977868, -0.1359991574024],
      "ImagePositionPatient": [-919.8398542079, -831.74284625066, 17.378244937913],
      "ImageType": [
        "ORIGINAL",
        "PRIMARY",
        "M",
        "ND",
        "MOSAIC"
],
      "ImagedNucleus": "1H",
      "ImagingFrequency": 123.259476,
      "InPlanePhaseEncodingDirection": "COL",
      "MRAcquisitionType": "2D",
      "MagneticFieldStrength": 3.0,
      "Manufacturer": "SIEMENS",
      "ManufacturerModelName": "Prisma",
      "Modality": "MR",
      "NumberOfAverages": 1.0,
      "NumberOfPhaseEncodingSteps": 58,
      "PercentPhaseFieldOfView": 100.0,
      "PercentSampling": 75.0,
      "PerformedProcedureStepStartTime": "182408.510000",
      "PhotometricInterpretation": "MONOCHROME2",
      "PixelBandwidth": 2265.0,
      "PixelRepresentation": 0,
      "PixelSpacing": [2.0, 2.0],
      "ProtocolName": "func_language_run3",
      "RepetitionTime": 1500.0,
      "Rows": 864,
      "SAR": 0.04248843153828,
      "SamplesPerPixel": 1,
      "ScanOptions": [
        "PFP",
        "FS"
],
      "ScanningSequence": "EP",
      "SequenceName": "*epfid2d1_72",
      "SequenceVariant": [
        "SK",
        "OSP"
],
      "SeriesDescription": "func_language_run3",
      "SeriesNumber": 13,
      "SeriesTime": "191549.578000",
      "SliceLocation": -52.697728556093,
      "SliceThickness": 2.0,
      "SmallestImagePixelValue": 0,
      "SoftwareVersions": "syngo MR E11",
      "SpacingBetweenSlices": 2.0000000635098,
      "SpecificCharacterSet": "ISO_IR 100",
      "StudyID": "3",
      "StudyTime": "182408.452000",
      "TransmitCoilName": "Body",
      "VariableFlipAngleFlag": "N",
      "WindowCenterWidthExplanation": "Algo1",
      "dBdt": 0.0},
    "slices": {}
  },
  "time": {
    "samples": {
      "AcquisitionNumber": [1, 2, 3, 4, 5, 6, 7, 8, 9, 10, 11, 12, 13, 14, 15, 16, 17, 18, 19, 20, 21, 22, 23, 24, 25, 26, 27, 28, 29, 30, 31, 32, 33, 34, 35, 36, 37, 38, 39, 40, 41, 42, 43, 44, 45, 46, 47, 48, 49, 50, 51, 52, 53, 54, 55, 56, 57, 58, 59, 60, 61, 62, 63, 64, 65, 66, 67, 68, 69, 70, 71, 72, 73, 74, 75, 76, 77, 78, 79, 80, 81, 82, 83, 84, 85, 86, 87, 88, 89, 90, 91, 92, 93, 94, 95, 96, 97, 98, 99, 100, 101, 102, 103, 104, 105, 106, 107, 108, 109, 110, 111, 112, 113, 114, 115, 116, 117, 118, 119, 120, 121, 122, 123, 124, 125, 126, 127, 128, 129, 130, 131, 132, 133, 134, 135, 136, 137, 138, 139, 140, 141, 142, 143, 144, 145, 146, 147, 148, 149, 150, 151, 152, 153, 154, 155, 156, 157, 158, 159, 160, 161, 162, 163, 164, 165, 166, 167, 168, 169, 170, 171, 172, 173, 174, 175, 176, 177, 178, 179, 180, 181, 182, 183, 184, 185, 186, 187, 188, 189, 190, 191, 192, 193, 194, 195, 196, 197, 198, 199, 200, 201, 202, 203, 204, 205, 206, 207, 208, 209, 210, 211, 212, 213, 214, 215, 216, 217, 218, 219, 220, 221, 222, 223, 224, 225, 226, 227, 228, 229, 230, 231, 232, 233, 234, 235, 236, 237, 238, 239],
      "AcquisitionTime": ["191504.645000", "191506.145000", "191507.645000", "191509.145000", "191510.645000", "191512.145000", "191513.645000", "191515.145000", "191516.645000", "191518.145000", "191519.645000", "191521.145000", "191522.645000", "191524.145000", "191525.645000", "191527.145000", "191528.645000", "191530.145000", "191531.645000", "191533.145000", "191534.645000", "191536.145000", "191537.645000", "191539.145000", "191540.645000", "191542.145000", "191543.645000", "191545.145000", "191546.645000", "191548.145000", "191549.645000", "191551.145000", "191552.645000", "191554.145000", "191555.645000", "191557.145000", "191558.645000", "191600.145000", "191601.645000", "191603.145000", "191604.645000", "191606.145000", "191607.645000", "191609.145000", "191610.645000", "191612.145000", "191613.645000", "191615.145000", "191616.645000", "191618.145000", "191619.645000", "191621.145000", "191622.645000", "191624.145000", "191625.645000", "191627.145000", "191628.645000", "191630.145000", "191631.645000", "191633.145000", "191634.645000", "191636.145000", "191637.645000", "191639.145000", "191640.645000", "191642.145000", "191643.645000", "191645.145000", "191646.645000", "191648.145000", "191649.645000", "191651.145000", "191652.645000", "191654.145000", "191655.645000", "191657.145000", "191658.645000", "191700.145000", "191701.645000", "191703.145000", "191704.645000", "191706.145000", "191707.645000", "191709.145000", "191710.645000", "191712.145000", "191713.645000", "191715.145000", "191716.645000", "191718.145000", "191719.645000", "191721.145000", "191722.645000", "191724.145000", "191725.645000", "191727.145000", "191728.645000", "191730.145000", "191731.645000", "191733.145000", "191734.645000", "191736.145000", "191737.645000", "191739.145000", "191740.645000", "191742.145000", "191743.645000", "191745.145000", "191746.645000", "191748.145000", "191749.645000", "191751.145000", "191752.645000", "191754.145000", "191755.645000", "191757.145000", "191758.645000", "191800.145000", "191801.645000", "191803.145000", "191804.645000", "191806.145000", "191807.645000", "191809.145000", "191810.645000", "191812.145000", "191813.645000", "191815.145000", "191816.645000", "191818.145000", "191819.645000", "191821.145000", "191822.645000", "191824.145000", "191825.645000", "191827.145000", "191828.645000", "191830.145000", "191831.645000", "191833.145000", "191834.645000", "191836.145000", "191837.645000", "191839.145000", "191840.645000", "191842.145000", "191843.645000", "191845.145000", "191846.645000", "191848.145000", "191849.645000", "191851.145000", "191852.645000", "191854.145000", "191855.645000", "191857.145000", "191858.645000", "191900.145000", "191901.645000", "191903.145000", "191904.645000", "191906.145000", "191907.645000", "191909.145000", "191910.645000", "191912.145000", "191913.645000", "191915.145000", "191916.645000", "191918.145000", "191919.645000", "191921.145000", "191922.645000", "191924.145000", "191925.645000", "191927.145000", "191928.645000", "191930.145000", "191931.645000", "191933.145000", "191934.645000", "191936.145000", "191937.645000", "191939.145000", "191940.645000", "191942.145000", "191943.645000", "191945.145000", "191946.645000", "191948.145000", "191949.645000", "191951.145000", "191952.645000", "191954.145000", "191955.645000", "191957.145000", "191958.645000", "192000.145000", "192001.645000", "192003.145000", "192004.645000", "192006.145000", "192007.645000", "192009.145000", "192010.645000", "192012.145000", "192013.645000", "192015.145000", "192016.645000", "192018.145000", "192019.645000", "192021.145000", "192022.645000", "192024.145000", "192025.645000", "192027.145000", "192028.645000", "192030.145000", "192031.645000", "192033.145000", "192034.645000", "192036.145000", "192037.645000", "192039.145000", "192040.645000", "192042.145000", "192043.645000", "192045.145000", "192046.645000", "192048.145000", "192049.645000", "192051.145000", "192052.645000", "192054.145000", "192055.645000", "192057.145000", "192058.645000", "192100.145000", "192101.645000"],
      "ContentTime": ["191549.582000", "191549.586000", "191549.596000", "191549.599000", "191549.609000", "191549.612000", "191549.616000", "191549.619000", "191549.622000", "191549.625000", "191549.628000", "191549.631000", "191549.634000", "191549.639000", "191549.642000", "191549.645000", "191549.648000", "191549.651000", "191549.654000", "191549.657000", "191549.660000", "191549.664000", "191549.667000", "191549.670000", "191549.673000", "191549.676000", "191549.679000", "191549.682000", "191549.685000", "191549.688000", "191629.578000", "191629.581000", "191629.584000", "191629.587000", "191629.590000", "191629.593000", "191629.596000", "191629.599000", "191629.602000", "191629.605000", "191629.608000", "191629.612000", "191629.615000", "191629.627000", "191629.630000", "191629.633000", "191629.636000", "191629.639000", "191629.642000", "191629.645000", "191629.648000", "191629.651000", "191629.654000", "191629.657000", "191629.660000", "191629.663000", "191709.577000", "191709.580000", "191709.583000", "191709.586000", "191709.589000", "191709.592000", "191709.605000", "191709.608000", "191709.611000", "191709.614000", "191709.618000", "191709.621000", "191709.624000", "191709.627000", "191709.630000", "191709.633000", "191709.636000", "191709.639000", "191709.642000", "191709.645000", "191709.648000", "191709.651000", "191709.654000", "191709.657000", "191709.660000", "191709.663000", "191709.666000", "191749.577000", "191749.580000", "191749.583000", "191749.586000", "191749.589000", "191749.592000", "191749.595000", "191749.598000", "191749.601000", "191749.604000", "191749.607000", "191749.610000", "191749.613000", "191749.616000", "191749.619000", "191749.622000", "191749.625000", "191749.628000", "191749.631000", "191749.634000", "191749.637000", "191749.640000", "191749.643000", "191749.646000", "191749.649000", "191749.652000", "191749.655000", "191829.577000", "191829.580000", "191829.583000", "191829.586000", "191829.589000", "191829.592000", "191829.595000", "191829.598000", "191829.601000", "191829.604000", "191829.607000", "191829.610000", "191829.613000", "191829.616000", "191829.620000", "191829.623000", "191829.626000", "191829.629000", "191829.632000", "191829.635000", "191829.638000", "191829.641000", "191829.644000", "191829.647000", "191829.650000", "191829.653000", "191909.577000", "191909.580000", "191909.583000", "191909.586000", "191909.589000", "191909.592000", "191909.595000", "191909.599000", "191909.601000", "191909.604000", "191909.607000", "191909.616000", "191909.619000", "191909.622000", "191909.625000", "191909.628000", "191909.631000", "191909.634000", "191909.637000", "191909.640000", "191909.643000", "191909.646000", "191909.649000", "191909.652000", "191909.655000", "191909.658000", "191909.661000", "191949.577000", "191949.580000", "191949.584000", "191949.587000", "191949.590000", "191949.593000", "191949.596000", "191949.599000", "191949.602000", "191949.606000", "191949.609000", "191949.612000", "191949.615000", "191949.618000", "191949.621000", "191949.624000", "191949.627000", "191949.630000", "191949.633000", "191949.636000", "191949.639000", "191949.642000", "191949.645000", "191949.648000", "191949.651000", "191949.654000", "191949.658000", "192029.577000", "192029.580000", "192029.583000", "192029.587000", "192029.590000", "192029.592000", "192029.595000", "192029.599000", "192029.602000", "192029.605000", "192029.608000", "192029.611000", "192029.614000", "192029.617000", "192029.620000", "192029.623000", "192029.626000", "192029.629000", "192029.632000", "192029.635000", "192029.638000", "192029.641000", "192029.644000", "192029.647000", "192029.650000", "192029.653000", "192102.826000", "192102.860000", "192102.863000", "192102.866000", "192102.869000", "192102.872000", "192102.875000", "192102.878000", "192102.881000", "192102.884000", "192102.887000", "192102.890000", "192102.893000", "192102.896000", "192102.899000", "192102.902000", "192102.905000", "192102.908000", "192102.911000", "192102.915000", "192102.918000", "192102.920000", "192102.923000"],
      "InstanceCreationTime": ["191549.582000", "191549.586000", "191549.596000", "191549.599000", "191549.609000", "191549.612000", "191549.616000", "191549.619000", "191549.622000", "191549.625000", "191549.628000", "191549.631000", "191549.634000", "191549.639000", "191549.642000", "191549.645000", "191549.648000", "191549.651000", "191549.654000", "191549.657000", "191549.660000", "191549.664000", "191549.667000", "191549.670000", "191549.673000", "191549.676000", "191549.679000", "191549.682000", "191549.685000", "191549.688000", "191629.578000", "191629.581000", "191629.584000", "191629.587000", "191629.590000", "191629.593000", "191629.596000", "191629.599000", "191629.602000", "191629.605000", "191629.608000", "191629.612000", "191629.615000", "191629.627000", "191629.630000", "191629.633000", "191629.636000", "191629.639000", "191629.642000", "191629.645000", "191629.648000", "191629.651000", "191629.654000", "191629.657000", "191629.660000", "191629.663000", "191709.577000", "191709.580000", "191709.583000", "191709.586000", "191709.589000", "191709.592000", "191709.605000", "191709.608000", "191709.611000", "191709.614000", "191709.618000", "191709.621000", "191709.624000", "191709.627000", "191709.630000", "191709.633000", "191709.636000", "191709.639000", "191709.642000", "191709.645000", "191709.648000", "191709.651000", "191709.654000", "191709.657000", "191709.660000", "191709.663000", "191709.666000", "191749.577000", "191749.580000", "191749.583000", "191749.586000", "191749.589000", "191749.592000", "191749.595000", "191749.598000", "191749.601000", "191749.604000", "191749.607000", "191749.610000", "191749.613000", "191749.616000", "191749.619000", "191749.622000", "191749.625000", "191749.628000", "191749.631000", "191749.634000", "191749.637000", "191749.640000", "191749.643000", "191749.646000", "191749.649000", "191749.652000", "191749.655000", "191829.577000", "191829.580000", "191829.583000", "191829.586000", "191829.589000", "191829.592000", "191829.595000", "191829.598000", "191829.601000", "191829.604000", "191829.607000", "191829.610000", "191829.613000", "191829.616000", "191829.620000", "191829.623000", "191829.626000", "191829.629000", "191829.632000", "191829.635000", "191829.638000", "191829.641000", "191829.644000", "191829.647000", "191829.650000", "191829.653000", "191909.577000", "191909.580000", "191909.583000", "191909.586000", "191909.589000", "191909.592000", "191909.595000", "191909.599000", "191909.601000", "191909.604000", "191909.607000", "191909.616000", "191909.619000", "191909.622000", "191909.625000", "191909.628000", "191909.631000", "191909.634000", "191909.637000", "191909.640000", "191909.643000", "191909.646000", "191909.649000", "191909.652000", "191909.655000", "191909.658000", "191909.661000", "191949.577000", "191949.580000", "191949.584000", "191949.587000", "191949.590000", "191949.593000", "191949.596000", "191949.599000", "191949.602000", "191949.606000", "191949.609000", "191949.612000", "191949.615000", "191949.618000", "191949.621000", "191949.624000", "191949.627000", "191949.630000", "191949.633000", "191949.636000", "191949.639000", "191949.642000", "191949.645000", "191949.648000", "191949.651000", "191949.654000", "191949.658000", "192029.577000", "192029.580000", "192029.583000", "192029.587000", "192029.590000", "192029.592000", "192029.595000", "192029.599000", "192029.602000", "192029.605000", "192029.608000", "192029.611000", "192029.614000", "192029.617000", "192029.620000", "192029.623000", "192029.626000", "192029.629000", "192029.632000", "192029.635000", "192029.638000", "192029.641000", "192029.644000", "192029.647000", "192029.650000", "192029.653000", "192102.826000", "192102.860000", "192102.863000", "192102.866000", "192102.869000", "192102.872000", "192102.875000", "192102.878000", "192102.881000", "192102.884000", "192102.887000", "192102.890000", "192102.893000", "192102.896000", "192102.899000", "192102.902000", "192102.905000", "192102.908000", "192102.911000", "192102.915000", "192102.918000", "192102.920000", "192102.923000"],
      "InstanceNumber": [1, 2, 3, 4, 5, 6, 7, 8, 9, 10, 11, 12, 13, 14, 15, 16, 17, 18, 19, 20, 21, 22, 23, 24, 25, 26, 27, 28, 29, 30, 31, 32, 33, 34, 35, 36, 37, 38, 39, 40, 41, 42, 43, 44, 45, 46, 47, 48, 49, 50, 51, 52, 53, 54, 55, 56, 57, 58, 59, 60, 61, 62, 63, 64, 65, 66, 67, 68, 69, 70, 71, 72, 73, 74, 75, 76, 77, 78, 79, 80, 81, 82, 83, 84, 85, 86, 87, 88, 89, 90, 91, 92, 93, 94, 95, 96, 97, 98, 99, 100, 101, 102, 103, 104, 105, 106, 107, 108, 109, 110, 111, 112, 113, 114, 115, 116, 117, 118, 119, 120, 121, 122, 123, 124, 125, 126, 127, 128, 129, 130, 131, 132, 133, 134, 135, 136, 137, 138, 139, 140, 141, 142, 143, 144, 145, 146, 147, 148, 149, 150, 151, 152, 153, 154, 155, 156, 157, 158, 159, 160, 161, 162, 163, 164, 165, 166, 167, 168, 169, 170, 171, 172, 173, 174, 175, 176, 177, 178, 179, 180, 181, 182, 183, 184, 185, 186, 187, 188, 189, 190, 191, 192, 193, 194, 195, 196, 197, 198, 199, 200, 201, 202, 203, 204, 205, 206, 207, 208, 209, 210, 211, 212, 213, 214, 215, 216, 217, 218, 219, 220, 221, 222, 223, 224, 225, 226, 227, 228, 229, 230, 231, 232, 233, 234, 235, 236, 237, 238, 239],
      "LargestImagePixelValue": [2932, 2735, 2525, 2505, 2493, 2497, 2500, 2509, 2520, 2494, 2477, 2463, 2520, 2539, 2517, 2507, 2452, 2507, 2496, 2461, 2533, 2490, 2501, 2515, 2653, 2612, 2680, 2712, 2632, 2598, 2528, 2481, 2502, 2495, 2473, 2482, 2487, 2504, 2484, 2467, 2520, 2486, 2510, 2485, 2494, 2541, 2467, 2518, 2475, 2511, 2580, 2520, 2497, 2537, 2484, 2470, 2537, 2508, 2488, 2461, 2449, 2501, 2496, 2487, 2572, 2513, 2505, 2536, 2523, 2527, 2659, 2697, 2546, 2509, 2517, 2488, 2477, 2492, 2477, 2497, 2474, 2480, 2492, 2482, 2500, 2457, 2472, 2501, 2507, 2531, 2481, 2448, 2532, 2505, 2464, 2472, 2529, 2489, 2540, 2532, 2489, 2556, 2472, 2485, 2535, 2498, 2489, 2519, 2479, 2554, 2501, 2562, 2596, 2495, 2517, 2480, 2523, 2522, 2513, 2524, 2517, 2502, 2533, 2489, 2473, 2471, 2529, 2548, 2541, 2533, 2564, 2492, 2527, 2466, 2436, 2483, 2666, 2750, 2611, 2713, 2694, 2706, 2639, 2570, 2594, 2606, 2599, 2621, 2607, 2644, 2652, 2631, 2665, 2651, 2661, 2675, 2741, 2708, 2664, 2607, 2598, 2583, 2572, 2569, 2581, 2597, 2547, 2524, 2531, 2587, 2577, 2608, 2588, 2583, 2560, 2666, 2644, 2606, 2648, 2561, 2627, 2547, 2639, 2631, 2579, 2509, 2506, 2501, 2499, 2552, 2525, 2518, 2561, 2522, 2525, 2596, 2520, 2590, 2593, 2548, 2578, 2553, 2704, 2762, 2651, 2532, 2488, 2505, 2468, 2536, 2497, 2502, 2589, 2523, 2549, 2538, 2553, 2514, 2511, 2497, 2522, 2492, 2530, 2481, 2525, 2514, 2528, 2510, 2519, 2462, 2487, 2460, 2499, 2497, 2510, 2525, 2488, 2533, 2529],
      "WindowCenter": [734.0, 732.0, 726.0, 724.0, 720.0, 720.0, 720.0, 720.0, 722.0, 723.0, 726.0, 727.0, 728.0, 728.0, 725.0, 725.0, 724.0, 726.0, 726.0, 726.0, 727.0, 726.0, 725.0, 725.0, 726.0, 727.0, 728.0, 728.0, 727.0, 725.0, 724.0, 724.0, 725.0, 724.0, 722.0, 721.0, 721.0, 721.0, 722.0, 723.0, 724.0, 724.0, 724.0, 725.0, 725.0, 725.0, 724.0, 724.0, 724.0, 725.0, 726.0, 727.0, 726.0, 725.0, 724.0, 723.0, 724.0, 723.0, 722.0, 721.0, 720.0, 721.0, 721.0, 722.0, 723.0, 723.0, 723.0, 723.0, 723.0, 724.0, 725.0, 727.0, 725.0, 727.0, 725.0, 723.0, 720.0, 719.0, 717.0, 718.0, 719.0, 720.0, 720.0, 720.0, 721.0, 721.0, 723.0, 723.0, 725.0, 726.0, 725.0, 724.0, 724.0, 724.0, 724.0, 725.0, 726.0, 726.0, 726.0, 726.0, 725.0, 725.0, 725.0, 725.0, 726.0, 726.0, 725.0, 725.0, 725.0, 726.0, 726.0, 726.0, 727.0, 726.0, 726.0, 724.0, 724.0, 724.0, 722.0, 722.0, 721.0, 721.0, 722.0, 722.0, 722.0, 723.0, 724.0, 726.0, 728.0, 728.0, 726.0, 723.0, 723.0, 722.0, 722.0, 723.0, 724.0, 730.0, 731.0, 729.0, 727.0, 726.0, 723.0, 722.0, 722.0, 724.0, 724.0, 726.0, 726.0, 726.0, 726.0, 727.0, 727.0, 727.0, 728.0, 728.0, 731.0, 731.0, 728.0, 727.0, 725.0, 724.0, 724.0, 724.0, 725.0, 726.0, 725.0, 725.0, 724.0, 725.0, 726.0, 727.0, 727.0, 727.0, 726.0, 726.0, 726.0, 727.0, 726.0, 725.0, 724.0, 723.0, 724.0, 725.0, 727.0, 726.0, 724.0, 723.0, 721.0, 720.0, 721.0, 722.0, 723.0, 723.0, 723.0, 724.0, 724.0, 724.0, 725.0, 724.0, 725.0, 726.0, 728.0, 730.0, 729.0, 728.0, 726.0, 724.0, 723.0, 725.0, 724.0, 724.0, 724.0, 723.0, 724.0, 723.0, 723.0, 722.0, 722.0, 722.0, 722.0, 721.0, 722.0, 721.0, 722.0, 722.0, 722.0, 723.0, 723.0, 722.0, 722.0, 722.0, 722.0, 723.0, 724.0, 724.0, 724.0, 724.0, 724.0],
      "WindowWidth": [1599.0, 1592.0, 1576.0, 1568.0, 1559.0, 1557.0, 1558.0, 1560.0, 1564.0, 1568.0, 1575.0, 1577.0, 1580.0, 1580.0, 1573.0, 1571.0, 1570.0, 1574.0, 1575.0, 1576.0, 1577.0, 1575.0, 1573.0, 1573.0, 1576.0, 1578.0, 1581.0, 1581.0, 1578.0, 1572.0, 1568.0, 1572.0, 1572.0, 1570.0, 1564.0, 1563.0, 1561.0, 1561.0, 1564.0, 1566.0, 1569.0, 1570.0, 1571.0, 1572.0, 1572.0, 1572.0, 1569.0, 1571.0, 1571.0, 1573.0, 1577.0, 1578.0, 1576.0, 1573.0, 1570.0, 1568.0, 1570.0, 1567.0, 1563.0, 1560.0, 1559.0, 1560.0, 1563.0, 1565.0, 1568.0, 1567.0, 1568.0, 1567.0, 1567.0, 1569.0, 1573.0, 1578.0, 1573.0, 1578.0, 1572.0, 1567.0, 1560.0, 1554.0, 1552.0, 1554.0, 1555.0, 1559.0, 1559.0, 1558.0, 1561.0, 1562.0, 1566.0, 1567.0, 1572.0, 1575.0, 1574.0, 1570.0, 1571.0, 1570.0, 1571.0, 1573.0, 1576.0, 1577.0, 1577.0, 1575.0, 1572.0, 1573.0, 1573.0, 1574.0, 1577.0, 1574.0, 1573.0, 1574.0, 1572.0, 1575.0, 1575.0, 1577.0, 1578.0, 1576.0, 1574.0, 1570.0, 1570.0, 1569.0, 1566.0, 1564.0, 1563.0, 1563.0, 1563.0, 1564.0, 1566.0, 1566.0, 1571.0, 1577.0, 1581.0, 1581.0, 1576.0, 1567.0, 1566.0, 1564.0, 1564.0, 1567.0, 1569.0, 1587.0, 1589.0, 1586.0, 1579.0, 1576.0, 1567.0, 1565.0, 1565.0, 1569.0, 1572.0, 1576.0, 1577.0, 1576.0, 1577.0, 1578.0, 1579.0, 1579.0, 1582.0, 1582.0, 1589.0, 1590.0, 1581.0, 1577.0, 1572.0, 1569.0, 1571.0, 1571.0, 1574.0, 1574.0, 1573.0, 1571.0, 1571.0, 1572.0, 1576.0, 1579.0, 1578.0, 1577.0, 1575.0, 1575.0, 1577.0, 1579.0, 1576.0, 1573.0, 1571.0, 1568.0, 1571.0, 1574.0, 1577.0, 1574.0, 1569.0, 1566.0, 1561.0, 1559.0, 1562.0, 1564.0, 1567.0, 1567.0, 1568.0, 1571.0, 1569.0, 1570.0, 1571.0, 1570.0, 1571.0, 1575.0, 1581.0, 1585.0, 1583.0, 1580.0, 1575.0, 1569.0, 1566.0, 1572.0, 1569.0, 1569.0, 1569.0, 1568.0, 1571.0, 1568.0, 1566.0, 1564.0, 1564.0, 1564.0, 1564.0, 1563.0, 1563.0, 1562.0, 1564.0, 1565.0, 1564.0, 1566.0, 1566.0, 1565.0, 1566.0, 1565.0, 1565.0, 1568.0, 1570.0, 1570.0, 1570.0, 1569.0, 1569.0]
    },
    "slices": {}
  }
}