{
  "AcquisitionMatrixPE": 72,
  "AcquisitionNumber": 1,
  "AcquisitionTime": "15:57:45.285000",
  "BandwidthPerPixelPhaseEncode": 17.943,
  "BaseResolution": 96,
  "BodyPartExamined": "BRAIN",
  "CoilCombinationMethod": "Sum of Squares",
  "ConsistencyInfo": "N4_VE11C_LATEST_20160120",
  "ConversionSoftware": "dcm2niix",
  "ConversionSoftwareVersion": "v1.0.20211006",
  "DerivedVendorReportedEchoSpacing": 0.000552897,
  "DeviceSerialNumber": "166011",
  "EchoTime": 0.03,
  "EchoTrainLength": 58,
  "EffectiveEchoSpacing": 0.000580542,
  "FlipAngle": 62,
  "ImageOrientationPatientDICOM": [0.997951, -0.0424054, 0.0479218, 0.0460148, 0.995975, -0.0769129],
  "ImageType": [
    "ORIGINAL",
    "PRIMARY",
    "M",
    "ND",
    "MOSAIC"
],
  "ImagingFrequency": 123.259,
  "InPlanePhaseEncodingDirectionDICOM": "COL",
  "InstitutionAddress": "West 130th Street 610,NY,NYC,US,10025",
  "InstitutionName": "MBBI",
  "MRAcquisitionType": "2D",
  "MagneticFieldStrength": 3,
  "Manufacturer": "Siemens",
  "ManufacturersModelName": "Prisma",
  "Modality": "MR",
  "MultibandAccelerationFactor": 3,
  "PartialFourier": 0.75,
  "PatientPosition": "HFS",
  "PercentPhaseFOV": 100,
  "PercentSampling": 75,
  "PhaseEncodingDirection": "j-",
  "PhaseEncodingSteps": 58,
  "PhaseOversampling": 0.05,
  "PhaseResolution": 0.75,
  "PixelBandwidth": 2265,
  "ProcedureStepDescription": "White^Word_recognition",
  "ProtocolName": "func_vwfate_run10",
  "PulseSequenceDetails": "%SiemensSeq%\\ep2d_bold",
  "ReceiveCoilActiveElements": "HC1-7",
  "ReceiveCoilName": "HeadNeck_64",
  "ReconMatrixPE": 96,
  "RefLinesPE": 40,
  "RepetitionTime": 1.5,
  "SAR": 0.0528371,
  "ScanOptions": "PFP\\FS",
  "ScanningSequence": "EP",
  "SequenceName": "*epfid2d1_72",
  "SequenceVariant": "SK\\OSP",
  "SeriesDescription": "func_vwfate_run10",
  "SeriesNumber": 12,
  "ShimSetting": [-1134, -1373, 635, 503, -81, -94, -66, 1],
  "SliceThickness": 2,
  "SliceTiming": [1.075, 0, 0.74, 0.0675, 0.8075, 0.135, 0.875, 0.2025, 0.94, 0.2675, 1.0075, 0.4025, 1.1425, 0.47, 1.21, 0.5375, 1.2775, 0.605, 1.345, 0.6725, 1.4125, 0.335, 1.075, 0, 0.74, 0.0675, 0.8075, 0.135, 0.875, 0.2025, 0.94, 0.2675, 1.0075, 0.4025, 1.1425, 0.47, 1.21, 0.5375, 1.2775, 0.605, 1.345, 0.6725, 1.4125, 0.335, 1.075, 0, 0.74, 0.0675, 0.8075, 0.135, 0.875, 0.2025, 0.94, 0.2675, 1.0075, 0.4025, 1.1425, 0.47, 1.21, 0.5375, 1.2775, 0.605, 1.345, 0.6725, 1.4125, 0.335],
  "SoftwareVersions": "syngo MR E11",
  "SpacingBetweenSlices": 2,
  "StationName": "AWP166011",
  "TaskName": "vwfate",
  "TotalReadoutTime": 0.0551515,
  "TxRefAmp": 218.627,
  "dcmmeta_affine": [
    [-1.995901107788086, 0.0920296162366867, 0.08893490582704544, 93.01691436767578],
    [0.08481071889400482, 1.9919508695602417, -0.1579207330942154, -71.13549041748047],
    [0.09584367275238037, 0.1538257598876953, 1.9917709827423096, -79.84556579589844],
    [0.0, 0.0, 0.0, 1.0]
],
  "dcmmeta_reorient_transform": [
    [0.0, -1.0, 0.0, 95.0],
    [1.0, 0.0, 0.0, 0.0],
    [0.0, 0.0, 1.0, 0.0],
    [0.0, 0.0, 0.0, 1.0]
],
  "dcmmeta_shape": [96, 96, 66, 164],
  "dcmmeta_slice_dim": 2,
  "dcmmeta_version": 0.6,
  "global": {
    "const": {
      "AcquisitionMatrix": [96, 0, 0, 72],
      "AngioFlag": "N",
      "BitsAllocated": 16,
      "BitsStored": 12,
      "BodyPartExamined": "BRAIN",
      "Columns": 864,
      "EchoNumbers": 1,
      "EchoTime": 30.0,
      "EchoTrainLength": 58,
      "FlipAngle": 62.0,
      "HighBit": 11,
      "ImageOrientationPatient": [0.99795054127543, -0.0424053606739, 0.04792183796757, 0.04601480927358, 0.99597542424576, -0.076912883355],
      "ImagePositionPatient": [-903.52511607602, -850.44164857354, -42.96699557429],
      "ImageType": [
        "ORIGINAL",
        "PRIMARY",
        "M",
        "ND",
        "MOSAIC"
],
      "ImagedNucleus": "1H",
      "ImagingFrequency": 123.259067,
      "InPlanePhaseEncodingDirection": "COL",
      "MRAcquisitionType": "2D",
      "MagneticFieldStrength": 3.0,
      "Manufacturer": "SIEMENS",
      "ManufacturerModelName": "Prisma",
      "Modality": "MR",
      "NumberOfAverages": 1.0,
      "NumberOfPhaseEncodingSteps": 58,
      "PercentPhaseFieldOfView": 100.0,
      "PercentSampling": 75.0,
      "PerformedProcedureStepStartTime": "144432.138000",
      "PhotometricInterpretation": "MONOCHROME2",
      "PixelBandwidth": 2265.0,
      "PixelRepresentation": 0,
      "PixelSpacing": [2.0, 2.0],
      "ProtocolName": "func_vwfate_run10",
      "RepetitionTime": 1500.0,
      "Rows": 864,
      "SAR": 0.05283710063613,
      "SamplesPerPixel": 1,
      "ScanOptions": [
        "PFP",
        "FS"
],
      "ScanningSequence": "EP",
      "SequenceName": "*epfid2d1_72",
      "SequenceVariant": [
        "SK",
        "OSP"
],
      "SeriesDescription": "func_vwfate_run10",
      "SeriesNumber": 12,
      "SeriesTime": "155817.493000",
      "SliceLocation": -69.763930895034,
      "SliceThickness": 2.0,
      "SmallestImagePixelValue": 0,
      "SoftwareVersions": "syngo MR E11",
      "SpacingBetweenSlices": 1.9999999597331,
      "SpecificCharacterSet": "ISO_IR 100",
      "StudyID": "2",
      "StudyTime": "144432.099000",
      "TransmitCoilName": "Body",
      "VariableFlipAngleFlag": "N",
      "WindowCenterWidthExplanation": "Algo1",
      "dBdt": 0.0},
    "slices": {}
  },
  "time": {
    "samples": {
      "AcquisitionNumber": [1, 2, 3, 4, 5, 6, 7, 8, 9, 10, 11, 12, 13, 14, 15, 16, 17, 18, 19, 20, 21, 22, 23, 24, 25, 26, 27, 28, 29, 30, 31, 32, 33, 34, 35, 36, 37, 38, 39, 40, 41, 42, 43, 44, 45, 46, 47, 48, 49, 50, 51, 52, 53, 54, 55, 56, 57, 58, 59, 60, 61, 62, 63, 64, 65, 66, 67, 68, 69, 70, 71, 72, 73, 74, 75, 76, 77, 78, 79, 80, 81, 82, 83, 84, 85, 86, 87, 88, 89, 90, 91, 92, 93, 94, 95, 96, 97, 98, 99, 100, 101, 102, 103, 104, 105, 106, 107, 108, 109, 110, 111, 112, 113, 114, 115, 116, 117, 118, 119, 120, 121, 122, 123, 124, 125, 126, 127, 128, 129, 130, 131, 132, 133, 134, 135, 136, 137, 138, 139, 140, 141, 142, 143, 144, 145, 146, 147, 148, 149, 150, 151, 152, 153, 154, 155, 156, 157, 158, 159, 160, 161, 162, 163, 164],
      "AcquisitionTime": ["155745.285000", "155746.785000", "155748.285000", "155749.785000", "155751.285000", "155752.785000", "155754.285000", "155755.785000", "155757.285000", "155758.785000", "155800.285000", "155801.785000", "155803.285000", "155804.785000", "155806.285000", "155807.785000", "155809.285000", "155810.785000", "155812.285000", "155813.785000", "155815.285000", "155816.785000", "155818.285000", "155819.785000", "155821.285000", "155822.785000", "155824.285000", "155825.785000", "155827.285000", "155828.785000", "155830.285000", "155831.785000", "155833.285000", "155834.785000", "155836.285000", "155837.785000", "155839.285000", "155840.785000", "155842.285000", "155843.785000", "155845.285000", "155846.785000", "155848.285000", "155849.785000", "155851.285000", "155852.785000", "155854.285000", "155855.785000", "155857.285000", "155858.785000", "155900.285000", "155901.785000", "155903.285000", "155904.785000", "155906.285000", "155907.785000", "155909.285000", "155910.785000", "155912.285000", "155913.785000", "155915.285000", "155916.785000", "155918.285000", "155919.785000", "155921.285000", "155922.785000", "155924.285000", "155925.785000", "155927.285000", "155928.785000", "155930.285000", "155931.785000", "155933.285000", "155934.785000", "155936.285000", "155937.785000", "155939.285000", "155940.785000", "155942.285000", "155943.785000", "155945.285000", "155946.785000", "155948.285000", "155949.785000", "155951.285000", "155952.785000", "155954.285000", "155955.785000", "155957.285000", "155958.785000", "160000.285000", "160001.785000", "160003.285000", "160004.785000", "160006.285000", "160007.785000", "160009.285000", "160010.785000", "160012.285000", "160013.785000", "160015.285000", "160016.785000", "160018.285000", "160019.785000", "160021.285000", "160022.785000", "160024.285000", "160025.785000", "160027.285000", "160028.785000", "160030.285000", "160031.785000", "160033.285000", "160034.785000", "160036.285000", "160037.785000", "160039.285000", "160040.785000", "160042.285000", "160043.785000", "160045.285000", "160046.785000", "160048.285000", "160049.785000", "160051.285000", "160052.785000", "160054.285000", "160055.785000", "160057.285000", "160058.785000", "160100.285000", "160101.785000", "160103.285000", "160104.785000", "160106.285000", "160107.785000", "160109.285000", "160110.785000", "160112.285000", "160113.785000", "160115.285000", "160116.785000", "160118.285000", "160119.785000", "160121.285000", "160122.785000", "160124.285000", "160125.785000", "160127.285000", "160128.785000", "160130.285000", "160131.785000", "160133.285000", "160134.785000", "160136.285000", "160137.785000", "160139.285000", "160140.785000", "160142.285000", "160143.785000", "160145.285000", "160146.785000", "160148.285000", "160149.785000"],
      "ContentTime": ["155817.497000", "155817.500000", "155817.509000", "155817.512000", "155817.515000", "155817.518000", "155817.521000", "155817.524000", "155817.527000", "155817.530000", "155817.533000", "155817.536000", "155817.539000", "155817.542000", "155817.545000", "155817.548000", "155817.551000", "155817.554000", "155817.557000", "155817.560000", "155817.563000", "155837.492000", "155837.495000", "155837.498000", "155837.501000", "155837.504000", "155837.507000", "155837.510000", "155837.513000", "155837.521000", "155837.524000", "155837.527000", "155837.530000", "155837.533000", "155837.536000", "155917.492000", "155917.495000", "155917.498000", "155917.501000", "155917.504000", "155917.507000", "155917.524000", "155917.526000", "155917.530000", "155917.532000", "155917.535000", "155917.538000", "155917.541000", "155917.544000", "155917.547000", "155917.550000", "155917.553000", "155917.556000", "155917.559000", "155917.562000", "155917.565000", "155917.568000", "155917.571000", "155917.574000", "155917.577000", "155917.580000", "155957.491000", "155957.494000", "155957.497000", "155957.500000", "155957.503000", "155957.506000", "155957.509000", "155957.512000", "155957.515000", "155957.518000", "155957.521000", "155957.524000", "155957.527000", "155957.530000", "155957.533000", "155957.536000", "155957.539000", "155957.542000", "155957.544000", "155957.547000", "155957.550000", "155957.553000", "155957.556000", "155957.559000", "155957.562000", "155957.565000", "155957.568000", "160037.492000", "160037.495000", "160037.498000", "160037.501000", "160037.504000", "160037.515000", "160037.518000", "160037.521000", "160037.524000", "160037.527000", "160037.530000", "160037.533000", "160037.536000", "160037.539000", "160037.542000", "160037.545000", "160037.548000", "160037.551000", "160037.554000", "160037.557000", "160037.560000", "160037.563000", "160037.566000", "160037.569000", "160037.572000", "160037.575000", "160037.578000", "160117.492000", "160117.495000", "160117.498000", "160117.501000", "160117.504000", "160117.507000", "160117.510000", "160117.513000", "160117.516000", "160117.519000", "160117.522000", "160117.525000", "160117.538000", "160117.541000", "160117.544000", "160117.547000", "160117.550000", "160117.553000", "160117.556000", "160117.559000", "160117.562000", "160117.565000", "160117.568000", "160117.571000", "160117.574000", "160117.577000", "160150.952000", "160150.955000", "160150.958000", "160150.961000", "160150.964000", "160150.967000", "160150.970000", "160150.973000", "160150.991000", "160150.994000", "160150.997000", "160151.002000", "160151.006000", "160151.009000", "160151.012000", "160151.015000", "160151.018000", "160151.021000", "160151.024000", "160151.027000", "160151.030000", "160151.033000", "160151.036000"],
      "InstanceCreationTime": ["155817.497000", "155817.500000", "155817.509000", "155817.512000", "155817.515000", "155817.518000", "155817.521000", "155817.524000", "155817.527000", "155817.530000", "155817.533000", "155817.536000", "155817.539000", "155817.542000", "155817.545000", "155817.548000", "155817.551000", "155817.554000", "155817.557000", "155817.560000", "155817.563000", "155837.492000", "155837.495000", "155837.498000", "155837.501000", "155837.504000", "155837.507000", "155837.510000", "155837.513000", "155837.521000", "155837.524000", "155837.527000", "155837.530000", "155837.533000", "155837.536000", "155917.492000", "155917.495000", "155917.498000", "155917.501000", "155917.504000", "155917.507000", "155917.524000", "155917.526000", "155917.530000", "155917.532000", "155917.535000", "155917.538000", "155917.541000", "155917.544000", "155917.547000", "155917.550000", "155917.553000", "155917.556000", "155917.559000", "155917.562000", "155917.565000", "155917.568000", "155917.571000", "155917.574000", "155917.577000", "155917.580000", "155957.491000", "155957.494000", "155957.497000", "155957.500000", "155957.503000", "155957.506000", "155957.509000", "155957.512000", "155957.515000", "155957.518000", "155957.521000", "155957.524000", "155957.527000", "155957.530000", "155957.533000", "155957.536000", "155957.539000", "155957.542000", "155957.544000", "155957.547000", "155957.550000", "155957.553000", "155957.556000", "155957.559000", "155957.562000", "155957.565000", "155957.568000", "160037.492000", "160037.495000", "160037.498000", "160037.501000", "160037.504000", "160037.515000", "160037.518000", "160037.521000", "160037.524000", "160037.527000", "160037.530000", "160037.533000", "160037.536000", "160037.539000", "160037.542000", "160037.545000", "160037.548000", "160037.551000", "160037.554000", "160037.557000", "160037.560000", "160037.563000", "160037.566000", "160037.569000", "160037.572000", "160037.575000", "160037.578000", "160117.492000", "160117.495000", "160117.498000", "160117.501000", "160117.504000", "160117.507000", "160117.510000", "160117.513000", "160117.516000", "160117.519000", "160117.522000", "160117.525000", "160117.538000", "160117.541000", "160117.544000", "160117.547000", "160117.550000", "160117.553000", "160117.556000", "160117.559000", "160117.562000", "160117.565000", "160117.568000", "160117.571000", "160117.574000", "160117.577000", "160150.952000", "160150.955000", "160150.958000", "160150.961000", "160150.964000", "160150.967000", "160150.970000", "160150.973000", "160150.991000", "160150.994000", "160150.997000", "160151.002000", "160151.006000", "160151.009000", "160151.012000", "160151.015000", "160151.018000", "160151.021000", "160151.024000", "160151.027000", "160151.030000", "160151.033000", "160151.036000"],
      "InstanceNumber": [1, 2, 3, 4, 5, 6, 7, 8, 9, 10, 11, 12, 13, 14, 15, 16, 17, 18, 19, 20, 21, 22, 23, 24, 25, 26, 27, 28, 29, 30, 31, 32, 33, 34, 35, 36, 37, 38, 39, 40, 41, 42, 43, 44, 45, 46, 47, 48, 49, 50, 51, 52, 53, 54, 55, 56, 57, 58, 59, 60, 61, 62, 63, 64, 65, 66, 67, 68, 69, 70, 71, 72, 73, 74, 75, 76, 77, 78, 79, 80, 81, 82, 83, 84, 85, 86, 87, 88, 89, 90, 91, 92, 93, 94, 95, 96, 97, 98, 99, 100, 101, 102, 103, 104, 105, 106, 107, 108, 109, 110, 111, 112, 113, 114, 115, 116, 117, 118, 119, 120, 121, 122, 123, 124, 125, 126, 127, 128, 129, 130, 131, 132, 133, 134, 135, 136, 137, 138, 139, 140, 141, 142, 143, 144, 145, 146, 147, 148, 149, 150, 151, 152, 153, 154, 155, 156, 157, 158, 159, 160, 161, 162, 163, 164],
      "LargestImagePixelValue": [2354, 2314, 2287, 2264, 2243, 2254, 2240, 2254, 2242, 2240, 2248, 2248, 2265, 2232, 2257, 2227, 2265, 2240, 2250, 2242, 2250, 2232, 2248, 2218, 2240, 2239, 2223, 2255, 2232, 2251, 2229, 2239, 2239, 2242, 2239, 2251, 2244, 2247, 2229, 2265, 2233, 2265, 2248, 2266, 2251, 2250, 2244, 2260, 2234, 2233, 2268, 2253, 2255, 2242, 2267, 2252, 2249, 2244, 2262, 2229, 2235, 2247, 2226, 2265, 2244, 2243, 2251, 2264, 2253, 2246, 2236, 2253, 2232, 2245, 2237, 2247, 2235, 2242, 2236, 2248, 2250, 2226, 2260, 2252, 2228, 2252, 2247, 2240, 2250, 2248, 2236, 2236, 2234, 2245, 2235, 2225, 2232, 2245, 2252, 2244, 2234, 2239, 2242, 2239, 2269, 2247, 2265, 2240, 2246, 2236, 2237, 2249, 2245, 2238, 2258, 2271, 2234, 2251, 2218, 2238, 2263, 2242, 2245, 2245, 2241, 2253, 2247, 2237, 2253, 2236, 2359, 2255, 2261, 2257, 2251, 2244, 2261, 2274, 2274, 2282, 2269, 2257, 2276, 2246, 2268, 2272, 2261, 2266, 2266, 2248, 2269, 2251, 2277, 2256, 2292, 2265, 2267, 2239, 2253, 2259, 2267, 2256, 2259, 2238],
      "WindowCenter": [751.0, 748.0, 747.0, 748.0, 748.0, 747.0, 747.0, 746.0, 746.0, 746.0, 746.0, 745.0, 746.0, 746.0, 747.0, 746.0, 746.0, 746.0, 746.0, 747.0, 747.0, 747.0, 746.0, 747.0, 746.0, 747.0, 747.0, 747.0, 746.0, 746.0, 745.0, 746.0, 745.0, 746.0, 746.0, 746.0, 746.0, 746.0, 746.0, 746.0, 747.0, 747.0, 747.0, 747.0, 747.0, 747.0, 747.0, 746.0, 746.0, 746.0, 747.0, 747.0, 747.0, 747.0, 748.0, 748.0, 747.0, 747.0, 746.0, 746.0, 747.0, 747.0, 746.0, 746.0, 745.0, 745.0, 746.0, 747.0, 747.0, 747.0, 746.0, 746.0, 746.0, 745.0, 745.0, 746.0, 747.0, 747.0, 748.0, 747.0, 747.0, 747.0, 747.0, 746.0, 747.0, 746.0, 746.0, 746.0, 746.0, 746.0, 746.0, 747.0, 746.0, 746.0, 746.0, 746.0, 746.0, 746.0, 747.0, 747.0, 747.0, 747.0, 746.0, 747.0, 746.0, 746.0, 746.0, 747.0, 747.0, 747.0, 747.0, 747.0, 747.0, 747.0, 747.0, 747.0, 746.0, 746.0, 745.0, 746.0, 747.0, 747.0, 748.0, 747.0, 746.0, 746.0, 745.0, 745.0, 745.0, 744.0, 748.0, 748.0, 748.0, 747.0, 747.0, 747.0, 748.0, 748.0, 748.0, 748.0, 747.0, 748.0, 747.0, 747.0, 746.0, 747.0, 747.0, 747.0, 747.0, 747.0, 748.0, 747.0, 748.0, 748.0, 748.0, 747.0, 747.0, 747.0, 747.0, 747.0, 746.0, 746.0, 746.0, 747.0],
      "WindowWidth": [1616.0, 1608.0, 1606.0, 1607.0, 1607.0, 1606.0, 1604.0, 1603.0, 1603.0, 1603.0, 1602.0, 1600.0, 1603.0, 1602.0, 1605.0, 1604.0, 1603.0, 1602.0, 1604.0, 1605.0, 1605.0, 1605.0, 1603.0, 1604.0, 1603.0, 1604.0, 1604.0, 1604.0, 1602.0, 1602.0, 1600.0, 1601.0, 1601.0, 1602.0, 1604.0, 1604.0, 1604.0, 1603.0, 1602.0, 1603.0, 1604.0, 1604.0, 1605.0, 1605.0, 1606.0, 1605.0, 1605.0, 1603.0, 1603.0, 1602.0, 1604.0, 1604.0, 1605.0, 1606.0, 1608.0, 1608.0, 1605.0, 1604.0, 1602.0, 1603.0, 1604.0, 1604.0, 1602.0, 1601.0, 1601.0, 1601.0, 1603.0, 1604.0, 1606.0, 1605.0, 1603.0, 1602.0, 1601.0, 1601.0, 1601.0, 1602.0, 1605.0, 1606.0, 1607.0, 1606.0, 1606.0, 1606.0, 1606.0, 1603.0, 1604.0, 1603.0, 1603.0, 1603.0, 1603.0, 1603.0, 1604.0, 1605.0, 1603.0, 1603.0, 1603.0, 1603.0, 1603.0, 1603.0, 1604.0, 1604.0, 1605.0, 1604.0, 1603.0, 1604.0, 1603.0, 1602.0, 1604.0, 1604.0, 1605.0, 1605.0, 1605.0, 1605.0, 1605.0, 1605.0, 1605.0, 1604.0, 1603.0, 1602.0, 1601.0, 1602.0, 1604.0, 1606.0, 1606.0, 1605.0, 1603.0, 1602.0, 1600.0, 1600.0, 1601.0, 1596.0, 1607.0, 1608.0, 1607.0, 1606.0, 1606.0, 1605.0, 1606.0, 1607.0, 1607.0, 1607.0, 1606.0, 1606.0, 1606.0, 1604.0, 1603.0, 1604.0, 1605.0, 1605.0, 1606.0, 1605.0, 1607.0, 1606.0, 1608.0, 1607.0, 1607.0, 1606.0, 1605.0, 1605.0, 1605.0, 1604.0, 1603.0, 1603.0, 1603.0, 1604.0]
    },
    "slices": {}
  }
}