{
  "AcquisitionMatrixPE": 72,
  "AcquisitionNumber": 1,
  "AcquisitionTime": "15:45:16.555000",
  "BandwidthPerPixelPhaseEncode": 17.943,
  "BaseResolution": 96,
  "BodyPartExamined": "BRAIN",
  "CoilCombinationMethod": "Sum of Squares",
  "ConsistencyInfo": "N4_VE11C_LATEST_20160120",
  "ConversionSoftware": "dcm2niix",
  "ConversionSoftwareVersion": "v1.0.20211006",
  "DerivedVendorReportedEchoSpacing": 0.000552897,
  "DeviceSerialNumber": "166011",
  "EchoTime": 0.03,
  "EchoTrainLength": 58,
  "EffectiveEchoSpacing": 0.000580542,
  "FlipAngle": 62,
  "ImageOrientationPatientDICOM": [0.997951, -0.0424054, 0.0479218, 0.0460148, 0.995975, -0.0769129],
  "ImageType": [
    "ORIGINAL",
    "PRIMARY",
    "M",
    "ND",
    "MOSAIC"
],
  "ImagingFrequency": 123.259,
  "InPlanePhaseEncodingDirectionDICOM": "COL",
  "InstitutionAddress": "West 130th Street 610,NY,NYC,US,10025",
  "InstitutionName": "MBBI",
  "MRAcquisitionType": "2D",
  "MagneticFieldStrength": 3,
  "Manufacturer": "Siemens",
  "ManufacturersModelName": "Prisma",
  "Modality": "MR",
  "MultibandAccelerationFactor": 3,
  "PartialFourier": 0.75,
  "PatientPosition": "HFS",
  "PercentPhaseFOV": 100,
  "PercentSampling": 75,
  "PhaseEncodingDirection": "j-",
  "PhaseEncodingSteps": 58,
  "PhaseOversampling": 0.05,
  "PhaseResolution": 0.75,
  "PixelBandwidth": 2265,
  "ProcedureStepDescription": "White^Word_recognition",
  "ProtocolName": "func_catLoc_run3",
  "PulseSequenceDetails": "%SiemensSeq%\\ep2d_bold",
  "ReceiveCoilActiveElements": "HC1-7",
  "ReceiveCoilName": "HeadNeck_64",
  "ReconMatrixPE": 96,
  "RefLinesPE": 40,
  "RepetitionTime": 1.5,
  "SAR": 0.0530025,
  "ScanOptions": "PFP\\FS",
  "ScanningSequence": "EP",
  "SequenceName": "*epfid2d1_72",
  "SequenceVariant": "SK\\OSP",
  "SeriesDescription": "func_catLoc_run3",
  "SeriesNumber": 10,
  "ShimSetting": [-1134, -1373, 635, 503, -81, -94, -66, 1],
  "SliceThickness": 2,
  "SliceTiming": [1.075, 0, 0.7375, 0.065, 0.805, 0.1325, 0.8725, 0.2, 0.94, 0.2675, 1.0075, 0.4025, 1.1425, 0.47, 1.21, 0.5375, 1.2775, 0.605, 1.345, 0.6725, 1.4125, 0.335, 1.075, 0, 0.7375, 0.065, 0.805, 0.1325, 0.8725, 0.2, 0.94, 0.2675, 1.0075, 0.4025, 1.1425, 0.47, 1.21, 0.5375, 1.2775, 0.605, 1.345, 0.6725, 1.4125, 0.335, 1.075, 0, 0.7375, 0.065, 0.805, 0.1325, 0.8725, 0.2, 0.94, 0.2675, 1.0075, 0.4025, 1.1425, 0.47, 1.21, 0.5375, 1.2775, 0.605, 1.345, 0.6725, 1.4125, 0.335],
  "SoftwareVersions": "syngo MR E11",
  "SpacingBetweenSlices": 2,
  "StationName": "AWP166011",
  "TaskName": "catLoc",
  "TotalReadoutTime": 0.0551515,
  "TxRefAmp": 218.627,
  "dcmmeta_affine": [
    [-1.995901107788086, 0.0920296162366867, 0.08893490582704544, 93.01691436767578],
    [0.08481071889400482, 1.9919508695602417, -0.1579207330942154, -71.13549041748047],
    [0.09584367275238037, 0.1538257598876953, 1.9917709827423096, -79.84556579589844],
    [0.0, 0.0, 0.0, 1.0]
],
  "dcmmeta_reorient_transform": [
    [0.0, -1.0, 0.0, 95.0],
    [1.0, 0.0, 0.0, 0.0],
    [0.0, 0.0, 1.0, 0.0],
    [0.0, 0.0, 0.0, 1.0]
],
  "dcmmeta_shape": [96, 96, 66, 214],
  "dcmmeta_slice_dim": 2,
  "dcmmeta_version": 0.6,
  "global": {
    "const": {
      "AcquisitionMatrix": [96, 0, 0, 72],
      "AngioFlag": "N",
      "BitsAllocated": 16,
      "BitsStored": 12,
      "BodyPartExamined": "BRAIN",
      "Columns": 864,
      "EchoNumbers": 1,
      "EchoTime": 30.0,
      "EchoTrainLength": 58,
      "FlipAngle": 62.0,
      "HighBit": 11,
      "ImageOrientationPatient": [0.99795054127543, -0.0424053606739, 0.04792183796757, 0.04601480927358, 0.99597542424576, -0.076912883355],
      "ImagePositionPatient": [-903.52511607602, -850.44164857354, -42.96699557429],
      "ImageType": [
        "ORIGINAL",
        "PRIMARY",
        "M",
        "ND",
        "MOSAIC"
],
      "ImagedNucleus": "1H",
      "ImagingFrequency": 123.259061,
      "InPlanePhaseEncodingDirection": "COL",
      "MRAcquisitionType": "2D",
      "MagneticFieldStrength": 3.0,
      "Manufacturer": "SIEMENS",
      "ManufacturerModelName": "Prisma",
      "Modality": "MR",
      "NumberOfAverages": 1.0,
      "NumberOfPhaseEncodingSteps": 58,
      "PercentPhaseFieldOfView": 100.0,
      "PercentSampling": 75.0,
      "PerformedProcedureStepStartTime": "144432.138000",
      "PhotometricInterpretation": "MONOCHROME2",
      "PixelBandwidth": 2265.0,
      "PixelRepresentation": 0,
      "PixelSpacing": [2.0, 2.0],
      "ProtocolName": "func_catLoc_run3",
      "RepetitionTime": 1500.0,
      "Rows": 864,
      "SAR": 0.0530024514012,
      "SamplesPerPixel": 1,
      "ScanOptions": [
        "PFP",
        "FS"
],
      "ScanningSequence": "EP",
      "SequenceName": "*epfid2d1_72",
      "SequenceVariant": [
        "SK",
        "OSP"
],
      "SeriesDescription": "func_catLoc_run3",
      "SeriesNumber": 10,
      "SeriesTime": "154603.026000",
      "SliceLocation": -69.763930895034,
      "SliceThickness": 2.0,
      "SmallestImagePixelValue": 0,
      "SoftwareVersions": "syngo MR E11",
      "SpacingBetweenSlices": 1.9999999597331,
      "SpecificCharacterSet": "ISO_IR 100",
      "StudyID": "2",
      "StudyTime": "144432.099000",
      "TransmitCoilName": "Body",
      "VariableFlipAngleFlag": "N",
      "WindowCenterWidthExplanation": "Algo1",
      "dBdt": 0.0},
    "slices": {}
  },
  "time": {
    "samples": {
      "AcquisitionNumber": [1, 2, 3, 4, 5, 6, 7, 8, 9, 10, 11, 12, 13, 14, 15, 16, 17, 18, 19, 20, 21, 22, 23, 24, 25, 26, 27, 28, 29, 30, 31, 32, 33, 34, 35, 36, 37, 38, 39, 40, 41, 42, 43, 44, 45, 46, 47, 48, 49, 50, 51, 52, 53, 54, 55, 56, 57, 58, 59, 60, 61, 62, 63, 64, 65, 66, 67, 68, 69, 70, 71, 72, 73, 74, 75, 76, 77, 78, 79, 80, 81, 82, 83, 84, 85, 86, 87, 88, 89, 90, 91, 92, 93, 94, 95, 96, 97, 98, 99, 100, 101, 102, 103, 104, 105, 106, 107, 108, 109, 110, 111, 112, 113, 114, 115, 116, 117, 118, 119, 120, 121, 122, 123, 124, 125, 126, 127, 128, 129, 130, 131, 132, 133, 134, 135, 136, 137, 138, 139, 140, 141, 142, 143, 144, 145, 146, 147, 148, 149, 150, 151, 152, 153, 154, 155, 156, 157, 158, 159, 160, 161, 162, 163, 164, 165, 166, 167, 168, 169, 170, 171, 172, 173, 174, 175, 176, 177, 178, 179, 180, 181, 182, 183, 184, 185, 186, 187, 188, 189, 190, 191, 192, 193, 194, 195, 196, 197, 198, 199, 200, 201, 202, 203, 204, 205, 206, 207, 208, 209, 210, 211, 212, 213, 214],
      "AcquisitionTime": ["154516.555000", "154518.055000", "154519.555000", "154521.055000", "154522.555000", "154524.055000", "154525.555000", "154527.055000", "154528.555000", "154530.055000", "154531.555000", "154533.055000", "154534.555000", "154536.055000", "154537.555000", "154539.055000", "154540.555000", "154542.055000", "154543.555000", "154545.055000", "154546.555000", "154548.055000", "154549.555000", "154551.055000", "154552.555000", "154554.055000", "154555.555000", "154557.055000", "154558.555000", "154600.055000", "154601.555000", "154603.055000", "154604.555000", "154606.055000", "154607.555000", "154609.055000", "154610.555000", "154612.055000", "154613.555000", "154615.055000", "154616.555000", "154618.055000", "154619.555000", "154621.055000", "154622.555000", "154624.055000", "154625.555000", "154627.055000", "154628.555000", "154630.055000", "154631.555000", "154633.055000", "154634.555000", "154636.055000", "154637.555000", "154639.055000", "154640.555000", "154642.055000", "154643.555000", "154645.055000", "154646.555000", "154648.055000", "154649.555000", "154651.055000", "154652.555000", "154654.055000", "154655.555000", "154657.055000", "154658.555000", "154700.055000", "154701.555000", "154703.055000", "154704.555000", "154706.055000", "154707.555000", "154709.055000", "154710.555000", "154712.055000", "154713.555000", "154715.055000", "154716.555000", "154718.055000", "154719.555000", "154721.055000", "154722.555000", "154724.055000", "154725.555000", "154727.055000", "154728.555000", "154730.055000", "154731.555000", "154733.055000", "154734.555000", "154736.055000", "154737.555000", "154739.055000", "154740.555000", "154742.055000", "154743.555000", "154745.055000", "154746.555000", "154748.055000", "154749.555000", "154751.055000", "154752.555000", "154754.055000", "154755.555000", "154757.055000", "154758.555000", "154800.055000", "154801.555000", "154803.055000", "154804.555000", "154806.055000", "154807.555000", "154809.055000", "154810.555000", "154812.055000", "154813.555000", "154815.055000", "154816.555000", "154818.055000", "154819.555000", "154821.055000", "154822.555000", "154824.055000", "154825.555000", "154827.055000", "154828.555000", "154830.055000", "154831.555000", "154833.055000", "154834.555000", "154836.055000", "154837.555000", "154839.055000", "154840.555000", "154842.055000", "154843.555000", "154845.055000", "154846.555000", "154848.055000", "154849.555000", "154851.055000", "154852.555000", "154854.055000", "154855.555000", "154857.055000", "154858.555000", "154900.055000", "154901.555000", "154903.055000", "154904.555000", "154906.055000", "154907.555000", "154909.055000", "154910.555000", "154912.055000", "154913.555000", "154915.055000", "154916.555000", "154918.055000", "154919.555000", "154921.055000", "154922.555000", "154924.055000", "154925.555000", "154927.055000", "154928.555000", "154930.055000", "154931.555000", "154933.055000", "154934.555000", "154936.055000", "154937.555000", "154939.055000", "154940.555000", "154942.055000", "154943.555000", "154945.055000", "154946.555000", "154948.055000", "154949.555000", "154951.055000", "154952.555000", "154954.055000", "154955.555000", "154957.055000", "154958.555000", "155000.055000", "155001.555000", "155003.055000", "155004.555000", "155006.055000", "155007.555000", "155009.055000", "155010.555000", "155012.055000", "155013.555000", "155015.055000", "155016.555000", "155018.055000", "155019.555000", "155021.055000", "155022.555000", "155024.055000", "155025.555000", "155027.055000", "155028.555000", "155030.055000", "155031.555000", "155033.055000", "155034.555000", "155036.055000"],
      "ContentTime": ["154603.030000", "154603.033000", "154603.036000", "154603.040000", "154603.043000", "154603.046000", "154603.049000", "154603.058000", "154603.061000", "154603.064000", "154603.067000", "154603.070000", "154603.073000", "154603.076000", "154603.079000", "154603.082000", "154603.085000", "154603.088000", "154603.091000", "154603.098000", "154603.101000", "154603.104000", "154603.107000", "154603.110000", "154603.113000", "154603.116000", "154603.122000", "154603.125000", "154603.128000", "154603.131000", "154603.134000", "154643.025000", "154643.032000", "154643.035000", "154643.038000", "154643.041000", "154643.044000", "154643.047000", "154643.050000", "154643.053000", "154643.056000", "154643.059000", "154643.066000", "154643.069000", "154643.072000", "154643.075000", "154643.078000", "154643.081000", "154643.084000", "154643.087000", "154643.089000", "154643.092000", "154643.095000", "154643.098000", "154643.101000", "154643.104000", "154643.107000", "154723.024000", "154723.027000", "154723.030000", "154723.033000", "154723.036000", "154723.039000", "154723.042000", "154723.045000", "154723.048000", "154723.051000", "154723.054000", "154723.057000", "154723.060000", "154723.063000", "154723.066000", "154723.069000", "154723.072000", "154723.075000", "154723.077000", "154723.080000", "154723.083000", "154723.086000", "154723.089000", "154723.092000", "154723.095000", "154723.098000", "154723.101000", "154803.025000", "154803.028000", "154803.031000", "154803.034000", "154803.037000", "154803.040000", "154803.043000", "154803.046000", "154803.049000", "154803.052000", "154803.055000", "154803.058000", "154803.061000", "154803.064000", "154803.067000", "154803.070000", "154803.073000", "154803.076000", "154803.079000", "154803.082000", "154803.085000", "154803.088000", "154803.091000", "154803.094000", "154803.097000", "154803.099000", "154803.102000", "154823.025000", "154823.028000", "154823.031000", "154823.034000", "154823.037000", "154823.040000", "154823.043000", "154823.046000", "154823.049000", "154823.052000", "154823.055000", "154823.058000", "154823.061000", "154903.025000", "154903.028000", "154903.031000", "154903.034000", "154903.037000", "154903.040000", "154903.050000", "154903.053000", "154903.056000", "154903.059000", "154903.062000", "154903.065000", "154903.068000", "154903.088000", "154903.091000", "154903.094000", "154903.097000", "154903.100000", "154903.103000", "154903.106000", "154903.108000", "154903.112000", "154903.115000", "154903.117000", "154903.120000", "154903.124000", "154903.127000", "154943.024000", "154943.027000", "154943.030000", "154943.033000", "154943.036000", "154943.039000", "154943.042000", "154943.045000", "154943.048000", "154943.051000", "154943.054000", "154943.057000", "154943.060000", "154943.063000", "154943.066000", "154943.069000", "154943.072000", "154943.075000", "154943.078000", "154943.081000", "154943.084000", "154943.087000", "154943.090000", "154943.093000", "154943.096000", "154943.099000", "155023.025000", "155023.028000", "155023.031000", "155023.034000", "155023.037000", "155023.040000", "155023.043000", "155023.046000", "155023.049000", "155023.052000", "155023.055000", "155023.058000", "155023.061000", "155023.064000", "155023.067000", "155023.070000", "155023.073000", "155023.076000", "155023.079000", "155023.082000", "155023.085000", "155023.088000", "155023.091000", "155023.094000", "155023.097000", "155023.100000", "155023.103000", "155037.017000", "155037.020000", "155037.023000", "155037.027000", "155037.030000", "155037.033000", "155037.036000", "155037.039000", "155037.042000", "155037.045000"],
      "InstanceCreationTime": ["154603.030000", "154603.033000", "154603.036000", "154603.040000", "154603.043000", "154603.046000", "154603.049000", "154603.058000", "154603.061000", "154603.064000", "154603.067000", "154603.070000", "154603.073000", "154603.076000", "154603.079000", "154603.082000", "154603.085000", "154603.088000", "154603.091000", "154603.098000", "154603.101000", "154603.104000", "154603.107000", "154603.110000", "154603.113000", "154603.116000", "154603.122000", "154603.125000", "154603.128000", "154603.131000", "154603.134000", "154643.025000", "154643.032000", "154643.035000", "154643.038000", "154643.041000", "154643.044000", "154643.047000", "154643.050000", "154643.053000", "154643.056000", "154643.059000", "154643.066000", "154643.069000", "154643.072000", "154643.075000", "154643.078000", "154643.081000", "154643.084000", "154643.087000", "154643.089000", "154643.092000", "154643.095000", "154643.098000", "154643.101000", "154643.104000", "154643.107000", "154723.024000", "154723.027000", "154723.030000", "154723.033000", "154723.036000", "154723.039000", "154723.042000", "154723.045000", "154723.048000", "154723.051000", "154723.054000", "154723.057000", "154723.060000", "154723.063000", "154723.066000", "154723.069000", "154723.072000", "154723.075000", "154723.077000", "154723.080000", "154723.083000", "154723.086000", "154723.089000", "154723.092000", "154723.095000", "154723.098000", "154723.101000", "154803.025000", "154803.028000", "154803.031000", "154803.034000", "154803.037000", "154803.040000", "154803.043000", "154803.046000", "154803.049000", "154803.052000", "154803.055000", "154803.058000", "154803.061000", "154803.064000", "154803.067000", "154803.070000", "154803.073000", "154803.076000", "154803.079000", "154803.082000", "154803.085000", "154803.088000", "154803.091000", "154803.094000", "154803.097000", "154803.099000", "154803.102000", "154823.025000", "154823.028000", "154823.031000", "154823.034000", "154823.037000", "154823.040000", "154823.043000", "154823.046000", "154823.049000", "154823.052000", "154823.055000", "154823.058000", "154823.061000", "154903.025000", "154903.028000", "154903.031000", "154903.034000", "154903.037000", "154903.040000", "154903.050000", "154903.053000", "154903.056000", "154903.059000", "154903.062000", "154903.065000", "154903.068000", "154903.088000", "154903.091000", "154903.094000", "154903.097000", "154903.100000", "154903.103000", "154903.106000", "154903.108000", "154903.112000", "154903.115000", "154903.117000", "154903.120000", "154903.124000", "154903.127000", "154943.024000", "154943.027000", "154943.030000", "154943.033000", "154943.036000", "154943.039000", "154943.042000", "154943.045000", "154943.048000", "154943.051000", "154943.054000", "154943.057000", "154943.060000", "154943.063000", "154943.066000", "154943.069000", "154943.072000", "154943.075000", "154943.078000", "154943.081000", "154943.084000", "154943.087000", "154943.090000", "154943.093000", "154943.096000", "154943.099000", "155023.025000", "155023.028000", "155023.031000", "155023.034000", "155023.037000", "155023.040000", "155023.043000", "155023.046000", "155023.049000", "155023.052000", "155023.055000", "155023.058000", "155023.061000", "155023.064000", "155023.067000", "155023.070000", "155023.073000", "155023.076000", "155023.079000", "155023.082000", "155023.085000", "155023.088000", "155023.091000", "155023.094000", "155023.097000", "155023.100000", "155023.103000", "155037.017000", "155037.020000", "155037.023000", "155037.027000", "155037.030000", "155037.033000", "155037.036000", "155037.039000", "155037.042000", "155037.045000"],
      "InstanceNumber": [1, 2, 3, 4, 5, 6, 7, 8, 9, 10, 11, 12, 13, 14, 15, 16, 17, 18, 19, 20, 21, 22, 23, 24, 25, 26, 27, 28, 29, 30, 31, 32, 33, 34, 35, 36, 37, 38, 39, 40, 41, 42, 43, 44, 45, 46, 47, 48, 49, 50, 51, 52, 53, 54, 55, 56, 57, 58, 59, 60, 61, 62, 63, 64, 65, 66, 67, 68, 69, 70, 71, 72, 73, 74, 75, 76, 77, 78, 79, 80, 81, 82, 83, 84, 85, 86, 87, 88, 89, 90, 91, 92, 93, 94, 95, 96, 97, 98, 99, 100, 101, 102, 103, 104, 105, 106, 107, 108, 109, 110, 111, 112, 113, 114, 115, 116, 117, 118, 119, 120, 121, 122, 123, 124, 125, 126, 127, 128, 129, 130, 131, 132, 133, 134, 135, 136, 137, 138, 139, 140, 141, 142, 143, 144, 145, 146, 147, 148, 149, 150, 151, 152, 153, 154, 155, 156, 157, 158, 159, 160, 161, 162, 163, 164, 165, 166, 167, 168, 169, 170, 171, 172, 173, 174, 175, 176, 177, 178, 179, 180, 181, 182, 183, 184, 185, 186, 187, 188, 189, 190, 191, 192, 193, 194, 195, 196, 197, 198, 199, 200, 201, 202, 203, 204, 205, 206, 207, 208, 209, 210, 211, 212, 213, 214],
      "LargestImagePixelValue": [2439, 2331, 2296, 2283, 2293, 2276, 2267, 2282, 2280, 2262, 2326, 2299, 2306, 2282, 2331, 2254, 2301, 2301, 2318, 2342, 2337, 2315, 2300, 2354, 2308, 2331, 2293, 2329, 2311, 2346, 2308, 2345, 2298, 2343, 2319, 2355, 2310, 2369, 2332, 2366, 2308, 2333, 2315, 2349, 2305, 2335, 2326, 2362, 2307, 2388, 2339, 2372, 2337, 2366, 2330, 2331, 2355, 2375, 2352, 2357, 2349, 2359, 2341, 2378, 2357, 2386, 2348, 2365, 2363, 2366, 2355, 2350, 2343, 2363, 2345, 2360, 2350, 2369, 2361, 2378, 2365, 2366, 2351, 2351, 2312, 2339, 2326, 2342, 2356, 2311, 2350, 2346, 2367, 2368, 2336, 2360, 2336, 2363, 2359, 2376, 2346, 2340, 2333, 2333, 2318, 2364, 2346, 2361, 2310, 2340, 2360, 2345, 2347, 2376, 2331, 2369, 2340, 2360, 2352, 2364, 2351, 2357, 2320, 2376, 2323, 2344, 2325, 2336, 2337, 2342, 2324, 2317, 2321, 2338, 2328, 2356, 2329, 2343, 2365, 2348, 2356, 2370, 2357, 2353, 2357, 2354, 2332, 2359, 2341, 2352, 2359, 2344, 2332, 2340, 2318, 2324, 2342, 2328, 2319, 2365, 2318, 2357, 2332, 2362, 2357, 2348, 2433, 2427, 2396, 2402, 2401, 2424, 2358, 2361, 2342, 2299, 2261, 2292, 2269, 2296, 2265, 2259, 2258, 2264, 2267, 2264, 2285, 2283, 2280, 2281, 2255, 2269, 2292, 2366, 2312, 2311, 2332, 2328, 2349, 2346, 2368, 2372, 2371, 2374, 2378, 2385, 2361, 2374, 2377, 2358, 2358, 2351, 2363, 2370],
      "WindowCenter": [750.0, 747.0, 746.0, 745.0, 745.0, 745.0, 745.0, 746.0, 747.0, 747.0, 748.0, 748.0, 749.0, 748.0, 749.0, 748.0, 749.0, 749.0, 749.0, 749.0, 748.0, 748.0, 747.0, 749.0, 748.0, 748.0, 748.0, 748.0, 749.0, 749.0, 748.0, 748.0, 748.0, 749.0, 749.0, 749.0, 749.0, 749.0, 749.0, 750.0, 749.0, 749.0, 748.0, 748.0, 748.0, 748.0, 749.0, 748.0, 748.0, 748.0, 748.0, 748.0, 748.0, 749.0, 749.0, 749.0, 749.0, 749.0, 749.0, 748.0, 748.0, 747.0, 748.0, 748.0, 749.0, 750.0, 749.0, 748.0, 748.0, 748.0, 748.0, 748.0, 748.0, 748.0, 748.0, 748.0, 748.0, 748.0, 748.0, 749.0, 749.0, 749.0, 749.0, 749.0, 748.0, 749.0, 748.0, 748.0, 747.0, 747.0, 748.0, 748.0, 748.0, 748.0, 748.0, 748.0, 748.0, 749.0, 748.0, 749.0, 747.0, 747.0, 746.0, 746.0, 746.0, 747.0, 747.0, 747.0, 747.0, 746.0, 746.0, 746.0, 746.0, 747.0, 746.0, 747.0, 748.0, 748.0, 749.0, 748.0, 748.0, 748.0, 748.0, 748.0, 748.0, 748.0, 747.0, 747.0, 747.0, 747.0, 747.0, 747.0, 747.0, 747.0, 747.0, 747.0, 747.0, 747.0, 747.0, 747.0, 748.0, 748.0, 747.0, 748.0, 747.0, 748.0, 748.0, 748.0, 748.0, 749.0, 749.0, 749.0, 748.0, 748.0, 748.0, 748.0, 748.0, 748.0, 747.0, 747.0, 747.0, 747.0, 747.0, 746.0, 746.0, 746.0, 745.0, 751.0, 750.0, 750.0, 749.0, 749.0, 748.0, 744.0, 747.0, 745.0, 743.0, 743.0, 743.0, 745.0, 745.0, 745.0, 746.0, 746.0, 746.0, 746.0, 746.0, 746.0, 746.0, 746.0, 746.0, 746.0, 746.0, 747.0, 744.0, 747.0, 746.0, 745.0, 745.0, 744.0, 743.0, 742.0, 741.0, 741.0, 741.0, 741.0, 742.0, 742.0, 743.0, 743.0, 744.0, 745.0, 744.0, 744.0],
      "WindowWidth": [1615.0, 1606.0, 1603.0, 1600.0, 1601.0, 1600.0, 1601.0, 1603.0, 1605.0, 1607.0, 1610.0, 1609.0, 1610.0, 1609.0, 1610.0, 1608.0, 1610.0, 1611.0, 1611.0, 1611.0, 1609.0, 1608.0, 1607.0, 1610.0, 1609.0, 1609.0, 1609.0, 1609.0, 1611.0, 1611.0, 1609.0, 1610.0, 1609.0, 1611.0, 1611.0, 1611.0, 1610.0, 1611.0, 1612.0, 1613.0, 1611.0, 1611.0, 1609.0, 1609.0, 1609.0, 1609.0, 1610.0, 1609.0, 1608.0, 1609.0, 1608.0, 1608.0, 1608.0, 1610.0, 1610.0, 1610.0, 1611.0, 1611.0, 1611.0, 1609.0, 1609.0, 1607.0, 1607.0, 1609.0, 1612.0, 1612.0, 1610.0, 1609.0, 1609.0, 1608.0, 1608.0, 1608.0, 1608.0, 1608.0, 1608.0, 1609.0, 1609.0, 1608.0, 1609.0, 1610.0, 1610.0, 1611.0, 1611.0, 1611.0, 1609.0, 1610.0, 1608.0, 1607.0, 1606.0, 1606.0, 1607.0, 1608.0, 1609.0, 1608.0, 1607.0, 1608.0, 1608.0, 1610.0, 1609.0, 1609.0, 1606.0, 1605.0, 1604.0, 1604.0, 1604.0, 1605.0, 1606.0, 1606.0, 1604.0, 1603.0, 1603.0, 1603.0, 1604.0, 1605.0, 1604.0, 1606.0, 1607.0, 1609.0, 1609.0, 1608.0, 1608.0, 1607.0, 1607.0, 1609.0, 1608.0, 1607.0, 1606.0, 1606.0, 1606.0, 1606.0, 1605.0, 1605.0, 1605.0, 1604.0, 1604.0, 1605.0, 1605.0, 1605.0, 1606.0, 1606.0, 1607.0, 1608.0, 1606.0, 1607.0, 1606.0, 1607.0, 1608.0, 1608.0, 1609.0, 1610.0, 1610.0, 1609.0, 1609.0, 1608.0, 1607.0, 1607.0, 1607.0, 1607.0, 1606.0, 1606.0, 1604.0, 1604.0, 1604.0, 1603.0, 1602.0, 1601.0, 1599.0, 1617.0, 1613.0, 1612.0, 1611.0, 1611.0, 1609.0, 1599.0, 1604.0, 1598.0, 1595.0, 1595.0, 1594.0, 1599.0, 1600.0, 1600.0, 1601.0, 1601.0, 1601.0, 1602.0, 1602.0, 1603.0, 1603.0, 1603.0, 1602.0, 1602.0, 1603.0, 1604.0, 1597.0, 1605.0, 1602.0, 1599.0, 1598.0, 1596.0, 1594.0, 1591.0, 1588.0, 1588.0, 1589.0, 1589.0, 1591.0, 1592.0, 1594.0, 1595.0, 1598.0, 1599.0, 1598.0, 1598.0]
    },
    "slices": {}
  }
}