{
  "AcquisitionMatrixPE": 72,
  "AcquisitionNumber": 1,
  "AcquisitionTime": "15:34:6.272500",
  "BandwidthPerPixelPhaseEncode": 17.943,
  "BaseResolution": 96,
  "BodyPartExamined": "BRAIN",
  "CoilCombinationMethod": "Sum of Squares",
  "ConsistencyInfo": "N4_VE11C_LATEST_20160120",
  "ConversionSoftware": "dcm2niix",
  "ConversionSoftwareVersion": "v1.0.20211006",
  "DerivedVendorReportedEchoSpacing": 0.000552897,
  "DeviceSerialNumber": "166011",
  "EchoTime": 0.03,
  "EchoTrainLength": 58,
  "EffectiveEchoSpacing": 0.000580542,
  "FlipAngle": 62,
  "ImageOrientationPatientDICOM": [0.997951, -0.0424054, 0.0479218, 0.0460148, 0.995975, -0.0769129],
  "ImageType": [
    "ORIGINAL",
    "PRIMARY",
    "M",
    "ND",
    "MOSAIC"
],
  "ImagingFrequency": 123.259,
  "InPlanePhaseEncodingDirectionDICOM": "COL",
  "InstitutionAddress": "West 130th Street 610,NY,NYC,US,10025",
  "InstitutionName": "MBBI",
  "MRAcquisitionType": "2D",
  "MagneticFieldStrength": 3,
  "Manufacturer": "Siemens",
  "ManufacturersModelName": "Prisma",
  "Modality": "MR",
  "MultibandAccelerationFactor": 3,
  "PartialFourier": 0.75,
  "PatientPosition": "HFS",
  "PercentPhaseFOV": 100,
  "PercentSampling": 75,
  "PhaseEncodingDirection": "j-",
  "PhaseEncodingSteps": 58,
  "PhaseOversampling": 0.05,
  "PhaseResolution": 0.75,
  "PixelBandwidth": 2265,
  "ProcedureStepDescription": "White^Word_recognition",
  "ProtocolName": "func_vwfate_run7",
  "PulseSequenceDetails": "%SiemensSeq%\\ep2d_bold",
  "ReceiveCoilActiveElements": "HC1-7",
  "ReceiveCoilName": "HeadNeck_64",
  "ReconMatrixPE": 96,
  "RefLinesPE": 40,
  "RepetitionTime": 1.5,
  "SAR": 0.0528371,
  "ScanOptions": "PFP\\FS",
  "ScanningSequence": "EP",
  "SequenceName": "*epfid2d1_72",
  "SequenceVariant": "SK\\OSP",
  "SeriesDescription": "func_vwfate_run7",
  "SeriesNumber": 8,
  "ShimSetting": [-1134, -1373, 635, 503, -81, -94, -66, 1],
  "SliceThickness": 2,
  "SliceTiming": [1.075, 0, 0.74, 0.065, 0.805, 0.1325, 0.8725, 0.2, 0.94, 0.2675, 1.0075, 0.4025, 1.1425, 0.47, 1.21, 0.5375, 1.2775, 0.605, 1.345, 0.6725, 1.4125, 0.335, 1.075, 0, 0.74, 0.065, 0.805, 0.1325, 0.8725, 0.2, 0.94, 0.2675, 1.0075, 0.4025, 1.1425, 0.47, 1.21, 0.5375, 1.2775, 0.605, 1.345, 0.6725, 1.4125, 0.335, 1.075, 0, 0.74, 0.065, 0.805, 0.1325, 0.8725, 0.2, 0.94, 0.2675, 1.0075, 0.4025, 1.1425, 0.47, 1.21, 0.5375, 1.2775, 0.605, 1.345, 0.6725, 1.4125, 0.335],
  "SoftwareVersions": "syngo MR E11",
  "SpacingBetweenSlices": 2,
  "StationName": "AWP166011",
  "TaskName": "vwfate",
  "TotalReadoutTime": 0.0551515,
  "TxRefAmp": 218.627,
  "dcmmeta_affine": [
    [-1.995901107788086, 0.0920296162366867, 0.08893490582704544, 93.01691436767578],
    [0.08481071889400482, 1.9919508695602417, -0.1579207330942154, -71.13549041748047],
    [0.09584367275238037, 0.1538257598876953, 1.9917709827423096, -79.84556579589844],
    [0.0, 0.0, 0.0, 1.0]
],
  "dcmmeta_reorient_transform": [
    [0.0, -1.0, 0.0, 95.0],
    [1.0, 0.0, 0.0, 0.0],
    [0.0, 0.0, 1.0, 0.0],
    [0.0, 0.0, 0.0, 1.0]
],
  "dcmmeta_shape": [96, 96, 66, 164],
  "dcmmeta_slice_dim": 2,
  "dcmmeta_version": 0.6,
  "global": {
    "const": {
      "AcquisitionMatrix": [96, 0, 0, 72],
      "AngioFlag": "N",
      "BitsAllocated": 16,
      "BitsStored": 12,
      "BodyPartExamined": "BRAIN",
      "Columns": 864,
      "EchoNumbers": 1,
      "EchoTime": 30.0,
      "EchoTrainLength": 58,
      "FlipAngle": 62.0,
      "HighBit": 11,
      "ImageOrientationPatient": [0.99795054127543, -0.0424053606739, 0.04792183796757, 0.04601480927358, 0.99597542424576, -0.076912883355],
      "ImagePositionPatient": [-903.52511607602, -850.44164857354, -42.96699557429],
      "ImageType": [
        "ORIGINAL",
        "PRIMARY",
        "M",
        "ND",
        "MOSAIC"
],
      "ImagedNucleus": "1H",
      "ImagingFrequency": 123.259055,
      "InPlanePhaseEncodingDirection": "COL",
      "MRAcquisitionType": "2D",
      "MagneticFieldStrength": 3.0,
      "Manufacturer": "SIEMENS",
      "ManufacturerModelName": "Prisma",
      "Modality": "MR",
      "NumberOfAverages": 1.0,
      "NumberOfPhaseEncodingSteps": 58,
      "PercentPhaseFieldOfView": 100.0,
      "PercentSampling": 75.0,
      "PerformedProcedureStepStartTime": "144432.138000",
      "PhotometricInterpretation": "MONOCHROME2",
      "PixelBandwidth": 2265.0,
      "PixelRepresentation": 0,
      "PixelSpacing": [2.0, 2.0],
      "ProtocolName": "func_vwfate_run7",
      "RepetitionTime": 1500.0,
      "Rows": 864,
      "SAR": 0.05283710063613,
      "SamplesPerPixel": 1,
      "ScanOptions": [
        "PFP",
        "FS"
],
      "ScanningSequence": "EP",
      "SequenceName": "*epfid2d1_72",
      "SequenceVariant": [
        "SK",
        "OSP"
],
      "SeriesDescription": "func_vwfate_run7",
      "SeriesNumber": 8,
      "SeriesTime": "153443.099000",
      "SliceLocation": -69.763930895034,
      "SliceThickness": 2.0,
      "SmallestImagePixelValue": 0,
      "SoftwareVersions": "syngo MR E11",
      "SpacingBetweenSlices": 1.9999999597331,
      "SpecificCharacterSet": "ISO_IR 100",
      "StudyID": "2",
      "StudyTime": "144432.099000",
      "TransmitCoilName": "Body",
      "VariableFlipAngleFlag": "N",
      "WindowCenterWidthExplanation": "Algo1",
      "dBdt": 0.0},
    "slices": {}
  },
  "time": {
    "samples": {
      "AcquisitionNumber": [1, 2, 3, 4, 5, 6, 7, 8, 9, 10, 11, 12, 13, 14, 15, 16, 17, 18, 19, 20, 21, 22, 23, 24, 25, 26, 27, 28, 29, 30, 31, 32, 33, 34, 35, 36, 37, 38, 39, 40, 41, 42, 43, 44, 45, 46, 47, 48, 49, 50, 51, 52, 53, 54, 55, 56, 57, 58, 59, 60, 61, 62, 63, 64, 65, 66, 67, 68, 69, 70, 71, 72, 73, 74, 75, 76, 77, 78, 79, 80, 81, 82, 83, 84, 85, 86, 87, 88, 89, 90, 91, 92, 93, 94, 95, 96, 97, 98, 99, 100, 101, 102, 103, 104, 105, 106, 107, 108, 109, 110, 111, 112, 113, 114, 115, 116, 117, 118, 119, 120, 121, 122, 123, 124, 125, 126, 127, 128, 129, 130, 131, 132, 133, 134, 135, 136, 137, 138, 139, 140, 141, 142, 143, 144, 145, 146, 147, 148, 149, 150, 151, 152, 153, 154, 155, 156, 157, 158, 159, 160, 161, 162, 163, 164],
      "AcquisitionTime": ["153406.272500", "153407.772500", "153409.272500", "153410.772500", "153412.272500", "153413.772500", "153415.272500", "153416.772500", "153418.272500", "153419.772500", "153421.272500", "153422.772500", "153424.272500", "153425.772500", "153427.272500", "153428.772500", "153430.272500", "153431.772500", "153433.272500", "153434.772500", "153436.272500", "153437.772500", "153439.272500", "153440.772500", "153442.272500", "153443.772500", "153445.272500", "153446.772500", "153448.272500", "153449.772500", "153451.272500", "153452.772500", "153454.272500", "153455.772500", "153457.272500", "153458.772500", "153500.272500", "153501.772500", "153503.272500", "153504.772500", "153506.272500", "153507.772500", "153509.272500", "153510.772500", "153512.272500", "153513.772500", "153515.272500", "153516.772500", "153518.272500", "153519.772500", "153521.272500", "153522.772500", "153524.272500", "153525.772500", "153527.272500", "153528.772500", "153530.272500", "153531.772500", "153533.272500", "153534.772500", "153536.272500", "153537.772500", "153539.272500", "153540.772500", "153542.272500", "153543.772500", "153545.272500", "153546.772500", "153548.272500", "153549.772500", "153551.272500", "153552.772500", "153554.272500", "153555.772500", "153557.272500", "153558.772500", "153600.272500", "153601.772500", "153603.272500", "153604.772500", "153606.272500", "153607.772500", "153609.272500", "153610.772500", "153612.272500", "153613.772500", "153615.272500", "153616.772500", "153618.272500", "153619.772500", "153621.272500", "153622.772500", "153624.272500", "153625.772500", "153627.272500", "153628.772500", "153630.272500", "153631.772500", "153633.272500", "153634.772500", "153636.272500", "153637.772500", "153639.272500", "153640.772500", "153642.272500", "153643.772500", "153645.272500", "153646.772500", "153648.272500", "153649.772500", "153651.272500", "153652.772500", "153654.272500", "153655.772500", "153657.272500", "153658.772500", "153700.272500", "153701.772500", "153703.272500", "153704.772500", "153706.272500", "153707.772500", "153709.272500", "153710.772500", "153712.272500", "153713.772500", "153715.272500", "153716.772500", "153718.272500", "153719.772500", "153721.272500", "153722.772500", "153724.272500", "153725.772500", "153727.272500", "153728.772500", "153730.272500", "153731.772500", "153733.272500", "153734.772500", "153736.272500", "153737.772500", "153739.272500", "153740.772500", "153742.272500", "153743.772500", "153745.272500", "153746.772500", "153748.272500", "153749.772500", "153751.272500", "153752.772500", "153754.272500", "153755.772500", "153757.272500", "153758.772500", "153800.272500", "153801.772500", "153803.272500", "153804.772500", "153806.272500", "153807.772500", "153809.272500", "153810.772500"],
      "ContentTime": ["153443.103000", "153443.107000", "153443.110000", "153443.113000", "153443.116000", "153443.119000", "153443.122000", "153443.125000", "153443.128000", "153443.131000", "153443.134000", "153443.141000", "153443.144000", "153443.147000", "153443.150000", "153443.153000", "153443.162000", "153443.166000", "153443.169000", "153443.171000", "153443.174000", "153443.178000", "153443.180000", "153443.184000", "153523.098000", "153523.101000", "153523.104000", "153523.107000", "153523.110000", "153523.113000", "153523.116000", "153523.119000", "153523.122000", "153523.125000", "153523.128000", "153523.131000", "153523.134000", "153523.137000", "153523.140000", "153523.143000", "153523.146000", "153523.149000", "153523.152000", "153523.155000", "153523.158000", "153523.161000", "153523.164000", "153523.167000", "153523.170000", "153523.173000", "153523.176000", "153603.097000", "153603.100000", "153603.103000", "153603.106000", "153603.109000", "153603.112000", "153603.115000", "153603.118000", "153603.121000", "153603.124000", "153603.128000", "153603.132000", "153603.135000", "153603.137000", "153603.140000", "153603.144000", "153603.147000", "153603.149000", "153603.157000", "153603.160000", "153603.163000", "153603.166000", "153603.169000", "153603.172000", "153603.175000", "153603.178000", "153643.098000", "153643.101000", "153643.104000", "153643.107000", "153643.110000", "153643.113000", "153643.116000", "153643.119000", "153643.122000", "153643.125000", "153643.128000", "153643.131000", "153643.134000", "153643.137000", "153643.140000", "153643.143000", "153643.146000", "153643.149000", "153643.152000", "153643.155000", "153643.158000", "153643.161000", "153643.164000", "153643.167000", "153643.170000", "153643.173000", "153643.176000", "153723.098000", "153723.101000", "153723.104000", "153723.107000", "153723.110000", "153723.113000", "153723.116000", "153723.119000", "153723.122000", "153723.125000", "153723.128000", "153723.131000", "153723.134000", "153723.137000", "153723.140000", "153723.143000", "153723.146000", "153723.149000", "153723.152000", "153723.155000", "153723.158000", "153723.161000", "153723.164000", "153723.167000", "153723.170000", "153723.173000", "153723.176000", "153803.097000", "153803.100000", "153803.111000", "153803.115000", "153803.118000", "153803.121000", "153803.123000", "153803.128000", "153803.131000", "153803.134000", "153803.137000", "153803.146000", "153803.149000", "153803.152000", "153803.155000", "153803.158000", "153803.161000", "153803.164000", "153803.167000", "153803.170000", "153803.173000", "153803.176000", "153803.179000", "153803.182000", "153803.185000", "153803.188000", "153812.389000", "153812.393000", "153812.396000", "153812.399000", "153812.402000", "153812.406000", "153812.409000"],
      "InstanceCreationTime": ["153443.103000", "153443.107000", "153443.110000", "153443.113000", "153443.116000", "153443.119000", "153443.122000", "153443.125000", "153443.128000", "153443.131000", "153443.134000", "153443.141000", "153443.144000", "153443.147000", "153443.150000", "153443.153000", "153443.162000", "153443.166000", "153443.169000", "153443.171000", "153443.174000", "153443.178000", "153443.180000", "153443.184000", "153523.098000", "153523.101000", "153523.104000", "153523.107000", "153523.110000", "153523.113000", "153523.116000", "153523.119000", "153523.122000", "153523.125000", "153523.128000", "153523.131000", "153523.134000", "153523.137000", "153523.140000", "153523.143000", "153523.146000", "153523.149000", "153523.152000", "153523.155000", "153523.158000", "153523.161000", "153523.164000", "153523.167000", "153523.170000", "153523.173000", "153523.176000", "153603.097000", "153603.100000", "153603.103000", "153603.106000", "153603.109000", "153603.112000", "153603.115000", "153603.118000", "153603.121000", "153603.124000", "153603.128000", "153603.132000", "153603.135000", "153603.137000", "153603.140000", "153603.144000", "153603.147000", "153603.149000", "153603.157000", "153603.160000", "153603.163000", "153603.166000", "153603.169000", "153603.172000", "153603.175000", "153603.178000", "153643.098000", "153643.101000", "153643.104000", "153643.107000", "153643.110000", "153643.113000", "153643.116000", "153643.119000", "153643.122000", "153643.125000", "153643.128000", "153643.131000", "153643.134000", "153643.137000", "153643.140000", "153643.143000", "153643.146000", "153643.149000", "153643.152000", "153643.155000", "153643.158000", "153643.161000", "153643.164000", "153643.167000", "153643.170000", "153643.173000", "153643.176000", "153723.098000", "153723.101000", "153723.104000", "153723.107000", "153723.110000", "153723.113000", "153723.116000", "153723.119000", "153723.122000", "153723.125000", "153723.128000", "153723.131000", "153723.134000", "153723.137000", "153723.140000", "153723.143000", "153723.146000", "153723.149000", "153723.152000", "153723.155000", "153723.158000", "153723.161000", "153723.164000", "153723.167000", "153723.170000", "153723.173000", "153723.176000", "153803.097000", "153803.100000", "153803.111000", "153803.115000", "153803.118000", "153803.121000", "153803.123000", "153803.128000", "153803.131000", "153803.134000", "153803.137000", "153803.146000", "153803.149000", "153803.152000", "153803.155000", "153803.158000", "153803.161000", "153803.164000", "153803.167000", "153803.170000", "153803.173000", "153803.176000", "153803.179000", "153803.182000", "153803.185000", "153803.188000", "153812.389000", "153812.393000", "153812.396000", "153812.399000", "153812.402000", "153812.406000", "153812.409000"],
      "InstanceNumber": [1, 2, 3, 4, 5, 6, 7, 8, 9, 10, 11, 12, 13, 14, 15, 16, 17, 18, 19, 20, 21, 22, 23, 24, 25, 26, 27, 28, 29, 30, 31, 32, 33, 34, 35, 36, 37, 38, 39, 40, 41, 42, 43, 44, 45, 46, 47, 48, 49, 50, 51, 52, 53, 54, 55, 56, 57, 58, 59, 60, 61, 62, 63, 64, 65, 66, 67, 68, 69, 70, 71, 72, 73, 74, 75, 76, 77, 78, 79, 80, 81, 82, 83, 84, 85, 86, 87, 88, 89, 90, 91, 92, 93, 94, 95, 96, 97, 98, 99, 100, 101, 102, 103, 104, 105, 106, 107, 108, 109, 110, 111, 112, 113, 114, 115, 116, 117, 118, 119, 120, 121, 122, 123, 124, 125, 126, 127, 128, 129, 130, 131, 132, 133, 134, 135, 136, 137, 138, 139, 140, 141, 142, 143, 144, 145, 146, 147, 148, 149, 150, 151, 152, 153, 154, 155, 156, 157, 158, 159, 160, 161, 162, 163, 164],
      "LargestImagePixelValue": [2678, 2585, 2574, 2544, 2554, 2531, 2545, 2530, 2530, 2534, 2523, 2566, 2543, 2528, 2547, 2543, 2553, 2532, 2555, 2512, 2516, 2525, 2512, 2532, 2517, 2537, 2543, 2530, 2547, 2494, 2565, 2527, 2541, 2534, 2530, 2529, 2545, 2556, 2528, 2514, 2567, 2530, 2535, 2521, 2506, 2541, 2532, 2543, 2519, 2490, 2532, 2523, 2517, 2544, 2503, 2533, 2541, 2526, 2540, 2532, 2553, 2542, 2521, 2562, 2523, 2538, 2524, 2532, 2527, 2536, 2542, 2519, 2532, 2520, 2526, 2516, 2525, 2534, 2518, 2527, 2532, 2504, 2498, 2473, 2532, 2498, 2564, 2513, 2533, 2534, 2518, 2515, 2513, 2504, 2527, 2519, 2527, 2538, 2508, 2547, 2502, 2540, 2529, 2500, 2547, 2541, 2538, 2536, 2505, 2545, 2514, 2515, 2535, 2531, 2560, 2533, 2526, 2537, 2509, 2538, 2533, 2516, 2538, 2528, 2502, 2530, 2540, 2543, 2518, 2500, 2529, 2493, 2488, 2488, 2503, 2518, 2505, 2512, 2525, 2512, 2502, 2528, 2511, 2517, 2498, 2477, 2538, 2509, 2514, 2501, 2491, 2492, 2483, 2511, 2474, 2516, 2479, 2382, 2473, 2542, 2454, 2544, 2492, 2546],
      "WindowCenter": [756.0, 754.0, 753.0, 753.0, 753.0, 753.0, 754.0, 754.0, 754.0, 754.0, 754.0, 754.0, 754.0, 754.0, 754.0, 754.0, 754.0, 754.0, 754.0, 754.0, 754.0, 754.0, 754.0, 754.0, 754.0, 754.0, 754.0, 754.0, 754.0, 754.0, 755.0, 754.0, 755.0, 754.0, 754.0, 754.0, 754.0, 754.0, 754.0, 753.0, 753.0, 753.0, 754.0, 753.0, 754.0, 754.0, 754.0, 754.0, 754.0, 754.0, 755.0, 755.0, 755.0, 754.0, 754.0, 754.0, 754.0, 753.0, 754.0, 754.0, 753.0, 753.0, 753.0, 753.0, 753.0, 753.0, 753.0, 753.0, 753.0, 753.0, 753.0, 753.0, 753.0, 753.0, 753.0, 753.0, 752.0, 752.0, 753.0, 753.0, 753.0, 753.0, 752.0, 752.0, 752.0, 752.0, 753.0, 752.0, 752.0, 752.0, 752.0, 753.0, 753.0, 752.0, 753.0, 753.0, 753.0, 753.0, 753.0, 753.0, 752.0, 753.0, 752.0, 752.0, 752.0, 752.0, 752.0, 752.0, 752.0, 753.0, 752.0, 753.0, 753.0, 753.0, 753.0, 753.0, 753.0, 753.0, 753.0, 753.0, 753.0, 753.0, 753.0, 752.0, 752.0, 752.0, 751.0, 751.0, 751.0, 751.0, 751.0, 751.0, 751.0, 751.0, 751.0, 751.0, 751.0, 751.0, 752.0, 752.0, 752.0, 751.0, 751.0, 752.0, 752.0, 752.0, 752.0, 752.0, 752.0, 751.0, 751.0, 750.0, 751.0, 751.0, 751.0, 751.0, 751.0, 749.0, 754.0, 754.0, 754.0, 754.0, 754.0, 754.0],
      "WindowWidth": [1630.0, 1624.0, 1622.0, 1621.0, 1622.0, 1621.0, 1624.0, 1624.0, 1624.0, 1624.0, 1624.0, 1625.0, 1625.0, 1624.0, 1624.0, 1625.0, 1624.0, 1624.0, 1625.0, 1623.0, 1624.0, 1623.0, 1624.0, 1624.0, 1624.0, 1625.0, 1624.0, 1625.0, 1625.0, 1625.0, 1626.0, 1625.0, 1626.0, 1625.0, 1625.0, 1624.0, 1625.0, 1624.0, 1623.0, 1622.0, 1623.0, 1622.0, 1623.0, 1623.0, 1624.0, 1623.0, 1624.0, 1624.0, 1625.0, 1624.0, 1626.0, 1626.0, 1625.0, 1625.0, 1623.0, 1624.0, 1624.0, 1622.0, 1623.0, 1623.0, 1622.0, 1621.0, 1622.0, 1622.0, 1622.0, 1621.0, 1621.0, 1621.0, 1620.0, 1622.0, 1622.0, 1622.0, 1621.0, 1620.0, 1621.0, 1620.0, 1619.0, 1620.0, 1620.0, 1620.0, 1622.0, 1621.0, 1620.0, 1619.0, 1619.0, 1619.0, 1620.0, 1618.0, 1619.0, 1618.0, 1618.0, 1621.0, 1620.0, 1620.0, 1620.0, 1620.0, 1622.0, 1622.0, 1621.0, 1620.0, 1619.0, 1620.0, 1618.0, 1620.0, 1619.0, 1619.0, 1619.0, 1619.0, 1619.0, 1621.0, 1619.0, 1620.0, 1619.0, 1620.0, 1620.0, 1620.0, 1621.0, 1621.0, 1620.0, 1621.0, 1620.0, 1621.0, 1620.0, 1619.0, 1618.0, 1617.0, 1616.0, 1614.0, 1615.0, 1615.0, 1616.0, 1615.0, 1616.0, 1614.0, 1615.0, 1615.0, 1615.0, 1616.0, 1617.0, 1618.0, 1618.0, 1616.0, 1616.0, 1617.0, 1617.0, 1618.0, 1618.0, 1617.0, 1617.0, 1615.0, 1615.0, 1614.0, 1616.0, 1616.0, 1615.0, 1616.0, 1614.0, 1609.0, 1623.0, 1623.0, 1623.0, 1624.0, 1623.0, 1623.0]
    },
    "slices": {}
  }
}