{
  "AcquisitionMatrixPE": 72,
  "AcquisitionNumber": 1,
  "AcquisitionTime": "15:39:20.257500",
  "BandwidthPerPixelPhaseEncode": 17.943,
  "BaseResolution": 96,
  "BodyPartExamined": "BRAIN",
  "CoilCombinationMethod": "Sum of Squares",
  "ConsistencyInfo": "N4_VE11C_LATEST_20160120",
  "ConversionSoftware": "dcm2niix",
  "ConversionSoftwareVersion": "v1.0.20211006",
  "DerivedVendorReportedEchoSpacing": 0.000552897,
  "DeviceSerialNumber": "166011",
  "EchoTime": 0.03,
  "EchoTrainLength": 58,
  "EffectiveEchoSpacing": 0.000580542,
  "FlipAngle": 62,
  "ImageOrientationPatientDICOM": [0.997951, -0.0424054, 0.0479218, 0.0460148, 0.995975, -0.0769129],
  "ImageType": [
    "ORIGINAL",
    "PRIMARY",
    "M",
    "ND",
    "MOSAIC"
],
  "ImagingFrequency": 123.259,
  "InPlanePhaseEncodingDirectionDICOM": "COL",
  "InstitutionAddress": "West 130th Street 610,NY,NYC,US,10025",
  "InstitutionName": "MBBI",
  "MRAcquisitionType": "2D",
  "MagneticFieldStrength": 3,
  "Manufacturer": "Siemens",
  "ManufacturersModelName": "Prisma",
  "Modality": "MR",
  "MultibandAccelerationFactor": 3,
  "PartialFourier": 0.75,
  "PatientPosition": "HFS",
  "PercentPhaseFOV": 100,
  "PercentSampling": 75,
  "PhaseEncodingDirection": "j-",
  "PhaseEncodingSteps": 58,
  "PhaseOversampling": 0.05,
  "PhaseResolution": 0.75,
  "PixelBandwidth": 2265,
  "ProcedureStepDescription": "White^Word_recognition",
  "ProtocolName": "func_vwfate_run8",
  "PulseSequenceDetails": "%SiemensSeq%\\ep2d_bold",
  "ReceiveCoilActiveElements": "HC1-7",
  "ReceiveCoilName": "HeadNeck_64",
  "ReconMatrixPE": 96,
  "RefLinesPE": 40,
  "RepetitionTime": 1.5,
  "SAR": 0.0528371,
  "ScanOptions": "PFP\\FS",
  "ScanningSequence": "EP",
  "SequenceName": "*epfid2d1_72",
  "SequenceVariant": "SK\\OSP",
  "SeriesDescription": "func_vwfate_run8",
  "SeriesNumber": 9,
  "ShimSetting": [-1134, -1373, 635, 503, -81, -94, -66, 1],
  "SliceThickness": 2,
  "SliceTiming": [1.075, 0, 0.74, 0.0675, 0.8075, 0.1325, 0.8725, 0.2, 0.94, 0.2675, 1.0075, 0.4025, 1.1425, 0.47, 1.21, 0.5375, 1.2775, 0.605, 1.345, 0.6725, 1.4125, 0.335, 1.075, 0, 0.74, 0.0675, 0.8075, 0.1325, 0.8725, 0.2, 0.94, 0.2675, 1.0075, 0.4025, 1.1425, 0.47, 1.21, 0.5375, 1.2775, 0.605, 1.345, 0.6725, 1.4125, 0.335, 1.075, 0, 0.74, 0.0675, 0.8075, 0.1325, 0.8725, 0.2, 0.94, 0.2675, 1.0075, 0.4025, 1.1425, 0.47, 1.21, 0.5375, 1.2775, 0.605, 1.345, 0.6725, 1.4125, 0.335],
  "SoftwareVersions": "syngo MR E11",
  "SpacingBetweenSlices": 2,
  "StationName": "AWP166011",
  "TaskName": "vwfate",
  "TotalReadoutTime": 0.0551515,
  "TxRefAmp": 218.627,
  "dcmmeta_affine": [
    [-1.995901107788086, 0.0920296162366867, 0.08893490582704544, 93.01691436767578],
    [0.08481071889400482, 1.9919508695602417, -0.1579207330942154, -71.13549041748047],
    [0.09584367275238037, 0.1538257598876953, 1.9917709827423096, -79.84556579589844],
    [0.0, 0.0, 0.0, 1.0]
],
  "dcmmeta_reorient_transform": [
    [0.0, -1.0, 0.0, 95.0],
    [1.0, 0.0, 0.0, 0.0],
    [0.0, 0.0, 1.0, 0.0],
    [0.0, 0.0, 0.0, 1.0]
],
  "dcmmeta_shape": [96, 96, 66, 164],
  "dcmmeta_slice_dim": 2,
  "dcmmeta_version": 0.6,
  "global": {
    "const": {
      "AcquisitionMatrix": [96, 0, 0, 72],
      "AngioFlag": "N",
      "BitsAllocated": 16,
      "BitsStored": 12,
      "BodyPartExamined": "BRAIN",
      "Columns": 864,
      "EchoNumbers": 1,
      "EchoTime": 30.0,
      "EchoTrainLength": 58,
      "FlipAngle": 62.0,
      "HighBit": 11,
      "ImageOrientationPatient": [0.99795054127543, -0.0424053606739, 0.04792183796757, 0.04601480927358, 0.99597542424576, -0.076912883355],
      "ImagePositionPatient": [-903.52511607602, -850.44164857354, -42.96699557429],
      "ImageType": [
        "ORIGINAL",
        "PRIMARY",
        "M",
        "ND",
        "MOSAIC"
],
      "ImagedNucleus": "1H",
      "ImagingFrequency": 123.259057,
      "InPlanePhaseEncodingDirection": "COL",
      "MRAcquisitionType": "2D",
      "MagneticFieldStrength": 3.0,
      "Manufacturer": "SIEMENS",
      "ManufacturerModelName": "Prisma",
      "Modality": "MR",
      "NumberOfAverages": 1.0,
      "NumberOfPhaseEncodingSteps": 58,
      "PercentPhaseFieldOfView": 100.0,
      "PercentSampling": 75.0,
      "PerformedProcedureStepStartTime": "144432.138000",
      "PhotometricInterpretation": "MONOCHROME2",
      "PixelBandwidth": 2265.0,
      "PixelRepresentation": 0,
      "PixelSpacing": [2.0, 2.0],
      "ProtocolName": "func_vwfate_run8",
      "RepetitionTime": 1500.0,
      "Rows": 864,
      "SAR": 0.05283710063613,
      "SamplesPerPixel": 1,
      "ScanOptions": [
        "PFP",
        "FS"
],
      "ScanningSequence": "EP",
      "SequenceName": "*epfid2d1_72",
      "SequenceVariant": [
        "SK",
        "OSP"
],
      "SeriesDescription": "func_vwfate_run8",
      "SeriesNumber": 9,
      "SeriesTime": "153937.493000",
      "SliceLocation": -69.763930895034,
      "SliceThickness": 2.0,
      "SmallestImagePixelValue": 0,
      "SoftwareVersions": "syngo MR E11",
      "SpacingBetweenSlices": 1.9999999597331,
      "SpecificCharacterSet": "ISO_IR 100",
      "StudyID": "2",
      "StudyTime": "144432.099000",
      "TransmitCoilName": "Body",
      "VariableFlipAngleFlag": "N",
      "WindowCenterWidthExplanation": "Algo1",
      "dBdt": 0.0},
    "slices": {}
  },
  "time": {
    "samples": {
      "AcquisitionNumber": [1, 2, 3, 4, 5, 6, 7, 8, 9, 10, 11, 12, 13, 14, 15, 16, 17, 18, 19, 20, 21, 22, 23, 24, 25, 26, 27, 28, 29, 30, 31, 32, 33, 34, 35, 36, 37, 38, 39, 40, 41, 42, 43, 44, 45, 46, 47, 48, 49, 50, 51, 52, 53, 54, 55, 56, 57, 58, 59, 60, 61, 62, 63, 64, 65, 66, 67, 68, 69, 70, 71, 72, 73, 74, 75, 76, 77, 78, 79, 80, 81, 82, 83, 84, 85, 86, 87, 88, 89, 90, 91, 92, 93, 94, 95, 96, 97, 98, 99, 100, 101, 102, 103, 104, 105, 106, 107, 108, 109, 110, 111, 112, 113, 114, 115, 116, 117, 118, 119, 120, 121, 122, 123, 124, 125, 126, 127, 128, 129, 130, 131, 132, 133, 134, 135, 136, 137, 138, 139, 140, 141, 142, 143, 144, 145, 146, 147, 148, 149, 150, 151, 152, 153, 154, 155, 156, 157, 158, 159, 160, 161, 162, 163, 164],
      "AcquisitionTime": ["153920.257500", "153921.757500", "153923.257500", "153924.757500", "153926.257500", "153927.757500", "153929.257500", "153930.757500", "153932.257500", "153933.757500", "153935.257500", "153936.757500", "153938.257500", "153939.757500", "153941.257500", "153942.757500", "153944.257500", "153945.757500", "153947.257500", "153948.757500", "153950.257500", "153951.757500", "153953.257500", "153954.757500", "153956.257500", "153957.757500", "153959.257500", "154000.757500", "154002.257500", "154003.757500", "154005.257500", "154006.757500", "154008.257500", "154009.757500", "154011.257500", "154012.757500", "154014.257500", "154015.757500", "154017.257500", "154018.757500", "154020.257500", "154021.757500", "154023.257500", "154024.757500", "154026.257500", "154027.757500", "154029.257500", "154030.757500", "154032.257500", "154033.757500", "154035.257500", "154036.757500", "154038.257500", "154039.757500", "154041.257500", "154042.757500", "154044.257500", "154045.757500", "154047.257500", "154048.757500", "154050.257500", "154051.757500", "154053.257500", "154054.757500", "154056.257500", "154057.757500", "154059.257500", "154100.757500", "154102.257500", "154103.757500", "154105.257500", "154106.757500", "154108.257500", "154109.757500", "154111.257500", "154112.757500", "154114.257500", "154115.757500", "154117.257500", "154118.757500", "154120.257500", "154121.757500", "154123.257500", "154124.757500", "154126.257500", "154127.757500", "154129.257500", "154130.757500", "154132.257500", "154133.757500", "154135.257500", "154136.757500", "154138.257500", "154139.757500", "154141.257500", "154142.757500", "154144.257500", "154145.757500", "154147.257500", "154148.757500", "154150.257500", "154151.757500", "154153.257500", "154154.757500", "154156.257500", "154157.757500", "154159.257500", "154200.757500", "154202.257500", "154203.757500", "154205.257500", "154206.757500", "154208.257500", "154209.757500", "154211.257500", "154212.757500", "154214.257500", "154215.757500", "154217.257500", "154218.757500", "154220.257500", "154221.757500", "154223.257500", "154224.757500", "154226.257500", "154227.757500", "154229.257500", "154230.757500", "154232.257500", "154233.757500", "154235.257500", "154236.757500", "154238.257500", "154239.757500", "154241.257500", "154242.757500", "154244.257500", "154245.757500", "154247.257500", "154248.757500", "154250.257500", "154251.757500", "154253.257500", "154254.757500", "154256.257500", "154257.757500", "154259.257500", "154300.757500", "154302.257500", "154303.757500", "154305.257500", "154306.757500", "154308.257500", "154309.757500", "154311.257500", "154312.757500", "154314.257500", "154315.757500", "154317.257500", "154318.757500", "154320.257500", "154321.757500", "154323.257500", "154324.757500"],
      "ContentTime": ["153937.497000", "153937.501000", "153937.504000", "153937.516000", "153937.518000", "153937.521000", "153937.532000", "153937.535000", "153937.538000", "153937.541000", "153937.544000", "154017.492000", "154017.496000", "154017.499000", "154017.502000", "154017.505000", "154017.508000", "154017.511000", "154017.514000", "154017.517000", "154017.527000", "154017.530000", "154017.533000", "154017.536000", "154017.540000", "154017.543000", "154017.546000", "154017.550000", "154017.553000", "154017.556000", "154017.559000", "154017.562000", "154017.565000", "154017.568000", "154017.571000", "154017.574000", "154017.577000", "154017.580000", "154057.492000", "154057.495000", "154057.498000", "154057.507000", "154057.511000", "154057.514000", "154057.517000", "154057.521000", "154057.524000", "154057.527000", "154057.530000", "154057.533000", "154057.536000", "154057.539000", "154057.542000", "154057.545000", "154057.548000", "154057.551000", "154057.553000", "154057.560000", "154057.563000", "154057.566000", "154057.569000", "154057.572000", "154057.582000", "154057.585000", "154057.588000", "154137.491000", "154137.494000", "154137.497000", "154137.500000", "154137.503000", "154137.506000", "154137.509000", "154137.512000", "154137.515000", "154137.531000", "154137.535000", "154137.538000", "154137.541000", "154137.544000", "154137.547000", "154137.550000", "154137.553000", "154137.556000", "154137.559000", "154137.562000", "154137.565000", "154137.568000", "154137.571000", "154137.574000", "154137.577000", "154137.580000", "154217.492000", "154217.495000", "154217.498000", "154217.501000", "154217.505000", "154217.508000", "154217.511000", "154217.514000", "154217.517000", "154217.520000", "154217.523000", "154217.525000", "154217.528000", "154217.532000", "154217.534000", "154217.537000", "154217.540000", "154217.543000", "154217.546000", "154217.549000", "154217.552000", "154217.555000", "154217.558000", "154217.561000", "154217.564000", "154217.567000", "154217.570000", "154257.492000", "154257.495000", "154257.498000", "154257.501000", "154257.504000", "154257.507000", "154257.510000", "154257.513000", "154257.516000", "154257.519000", "154257.522000", "154257.525000", "154257.528000", "154257.531000", "154257.534000", "154257.536000", "154257.540000", "154257.542000", "154257.545000", "154257.548000", "154257.551000", "154257.554000", "154257.557000", "154257.560000", "154257.563000", "154257.566000", "154257.569000", "154325.646000", "154325.649000", "154325.652000", "154325.655000", "154325.658000", "154325.661000", "154325.664000", "154325.667000", "154325.670000", "154325.674000", "154325.677000", "154325.680000", "154325.683000", "154325.687000", "154325.690000", "154325.694000", "154325.697000", "154325.700000", "154325.703000"],
      "InstanceCreationTime": ["153937.497000", "153937.501000", "153937.504000", "153937.516000", "153937.518000", "153937.521000", "153937.532000", "153937.535000", "153937.538000", "153937.541000", "153937.544000", "154017.492000", "154017.496000", "154017.499000", "154017.502000", "154017.505000", "154017.508000", "154017.511000", "154017.514000", "154017.517000", "154017.527000", "154017.530000", "154017.533000", "154017.536000", "154017.540000", "154017.543000", "154017.546000", "154017.550000", "154017.553000", "154017.556000", "154017.559000", "154017.562000", "154017.565000", "154017.568000", "154017.571000", "154017.574000", "154017.577000", "154017.580000", "154057.492000", "154057.495000", "154057.498000", "154057.507000", "154057.511000", "154057.514000", "154057.517000", "154057.521000", "154057.524000", "154057.527000", "154057.530000", "154057.533000", "154057.536000", "154057.539000", "154057.542000", "154057.545000", "154057.548000", "154057.551000", "154057.553000", "154057.560000", "154057.563000", "154057.566000", "154057.569000", "154057.572000", "154057.582000", "154057.585000", "154057.588000", "154137.491000", "154137.494000", "154137.497000", "154137.500000", "154137.503000", "154137.506000", "154137.509000", "154137.512000", "154137.515000", "154137.531000", "154137.535000", "154137.538000", "154137.541000", "154137.544000", "154137.547000", "154137.550000", "154137.553000", "154137.556000", "154137.559000", "154137.562000", "154137.565000", "154137.568000", "154137.571000", "154137.574000", "154137.577000", "154137.580000", "154217.492000", "154217.495000", "154217.498000", "154217.501000", "154217.505000", "154217.508000", "154217.511000", "154217.514000", "154217.517000", "154217.520000", "154217.523000", "154217.525000", "154217.528000", "154217.532000", "154217.534000", "154217.537000", "154217.540000", "154217.543000", "154217.546000", "154217.549000", "154217.552000", "154217.555000", "154217.558000", "154217.561000", "154217.564000", "154217.567000", "154217.570000", "154257.492000", "154257.495000", "154257.498000", "154257.501000", "154257.504000", "154257.507000", "154257.510000", "154257.513000", "154257.516000", "154257.519000", "154257.522000", "154257.525000", "154257.528000", "154257.531000", "154257.534000", "154257.536000", "154257.540000", "154257.542000", "154257.545000", "154257.548000", "154257.551000", "154257.554000", "154257.557000", "154257.560000", "154257.563000", "154257.566000", "154257.569000", "154325.646000", "154325.649000", "154325.652000", "154325.655000", "154325.658000", "154325.661000", "154325.664000", "154325.667000", "154325.670000", "154325.674000", "154325.677000", "154325.680000", "154325.683000", "154325.687000", "154325.690000", "154325.694000", "154325.697000", "154325.700000", "154325.703000"],
      "InstanceNumber": [1, 2, 3, 4, 5, 6, 7, 8, 9, 10, 11, 12, 13, 14, 15, 16, 17, 18, 19, 20, 21, 22, 23, 24, 25, 26, 27, 28, 29, 30, 31, 32, 33, 34, 35, 36, 37, 38, 39, 40, 41, 42, 43, 44, 45, 46, 47, 48, 49, 50, 51, 52, 53, 54, 55, 56, 57, 58, 59, 60, 61, 62, 63, 64, 65, 66, 67, 68, 69, 70, 71, 72, 73, 74, 75, 76, 77, 78, 79, 80, 81, 82, 83, 84, 85, 86, 87, 88, 89, 90, 91, 92, 93, 94, 95, 96, 97, 98, 99, 100, 101, 102, 103, 104, 105, 106, 107, 108, 109, 110, 111, 112, 113, 114, 115, 116, 117, 118, 119, 120, 121, 122, 123, 124, 125, 126, 127, 128, 129, 130, 131, 132, 133, 134, 135, 136, 137, 138, 139, 140, 141, 142, 143, 144, 145, 146, 147, 148, 149, 150, 151, 152, 153, 154, 155, 156, 157, 158, 159, 160, 161, 162, 163, 164],
      "LargestImagePixelValue": [2563, 2444, 2426, 2392, 2411, 2405, 2432, 2392, 2420, 2413, 2377, 2403, 2425, 2421, 2405, 2387, 2430, 2410, 2436, 2407, 2404, 2404, 2404, 2360, 2410, 2389, 2404, 2388, 2375, 2393, 2368, 2408, 2417, 2410, 2412, 2392, 2423, 2383, 2441, 2390, 2426, 2386, 2373, 2385, 2378, 2413, 2376, 2401, 2376, 2409, 2386, 2392, 2412, 2412, 2401, 2427, 2381, 2421, 2374, 2400, 2350, 2391, 2400, 2381, 2423, 2379, 2447, 2396, 2388, 2388, 2412, 2405, 2418, 2378, 2417, 2374, 2436, 2379, 2391, 2380, 2387, 2401, 2379, 2381, 2411, 2360, 2390, 2395, 2410, 2383, 2366, 2365, 2347, 2394, 2366, 2404, 2367, 2378, 2416, 2416, 2376, 2408, 2388, 2425, 2396, 2430, 2391, 2403, 2393, 2402, 2400, 2418, 2376, 2391, 2378, 2483, 2439, 2373, 2365, 2402, 2409, 2382, 2384, 2425, 2411, 2420, 2416, 2464, 2445, 2411, 2429, 2436, 2406, 2468, 2424, 2449, 2427, 2413, 2410, 2406, 2432, 2448, 2434, 2429, 2432, 2401, 2438, 2395, 2430, 2394, 2400, 2412, 2409, 2441, 2410, 2420, 2416, 2443, 2412, 2459, 2391, 2432, 2410, 2416],
      "WindowCenter": [756.0, 753.0, 752.0, 752.0, 752.0, 752.0, 752.0, 752.0, 752.0, 752.0, 751.0, 751.0, 751.0, 751.0, 752.0, 753.0, 753.0, 753.0, 753.0, 752.0, 751.0, 751.0, 751.0, 752.0, 753.0, 753.0, 753.0, 753.0, 752.0, 753.0, 752.0, 753.0, 753.0, 753.0, 753.0, 753.0, 753.0, 752.0, 752.0, 752.0, 752.0, 752.0, 752.0, 752.0, 752.0, 752.0, 752.0, 752.0, 751.0, 752.0, 751.0, 752.0, 752.0, 752.0, 752.0, 753.0, 753.0, 753.0, 753.0, 753.0, 753.0, 753.0, 752.0, 752.0, 752.0, 752.0, 753.0, 752.0, 753.0, 753.0, 753.0, 753.0, 753.0, 753.0, 753.0, 753.0, 754.0, 753.0, 753.0, 752.0, 752.0, 752.0, 751.0, 751.0, 752.0, 751.0, 752.0, 752.0, 752.0, 751.0, 751.0, 751.0, 751.0, 751.0, 752.0, 752.0, 752.0, 753.0, 753.0, 753.0, 754.0, 754.0, 753.0, 752.0, 752.0, 752.0, 751.0, 751.0, 751.0, 752.0, 752.0, 752.0, 752.0, 752.0, 753.0, 753.0, 754.0, 750.0, 752.0, 756.0, 754.0, 752.0, 750.0, 747.0, 746.0, 747.0, 747.0, 748.0, 748.0, 748.0, 749.0, 750.0, 751.0, 751.0, 752.0, 752.0, 752.0, 752.0, 752.0, 751.0, 752.0, 752.0, 753.0, 753.0, 752.0, 752.0, 752.0, 752.0, 752.0, 752.0, 752.0, 752.0, 753.0, 753.0, 752.0, 753.0, 753.0, 753.0, 753.0, 753.0, 753.0, 754.0, 753.0, 754.0],
      "WindowWidth": [1631.0, 1622.0, 1620.0, 1619.0, 1620.0, 1619.0, 1620.0, 1620.0, 1619.0, 1620.0, 1617.0, 1617.0, 1617.0, 1617.0, 1619.0, 1621.0, 1622.0, 1622.0, 1621.0, 1618.0, 1616.0, 1618.0, 1617.0, 1620.0, 1622.0, 1622.0, 1621.0, 1621.0, 1620.0, 1621.0, 1619.0, 1621.0, 1622.0, 1622.0, 1622.0, 1622.0, 1622.0, 1620.0, 1620.0, 1618.0, 1619.0, 1618.0, 1619.0, 1618.0, 1619.0, 1620.0, 1619.0, 1619.0, 1617.0, 1618.0, 1617.0, 1619.0, 1620.0, 1620.0, 1620.0, 1621.0, 1621.0, 1622.0, 1621.0, 1622.0, 1620.0, 1621.0, 1619.0, 1619.0, 1619.0, 1620.0, 1621.0, 1619.0, 1621.0, 1620.0, 1622.0, 1622.0, 1621.0, 1621.0, 1621.0, 1621.0, 1623.0, 1621.0, 1621.0, 1620.0, 1620.0, 1619.0, 1617.0, 1616.0, 1619.0, 1617.0, 1620.0, 1619.0, 1619.0, 1617.0, 1617.0, 1617.0, 1617.0, 1617.0, 1618.0, 1620.0, 1620.0, 1621.0, 1623.0, 1622.0, 1623.0, 1623.0, 1621.0, 1619.0, 1617.0, 1618.0, 1617.0, 1617.0, 1617.0, 1618.0, 1619.0, 1619.0, 1619.0, 1619.0, 1620.0, 1622.0, 1623.0, 1613.0, 1618.0, 1630.0, 1624.0, 1618.0, 1611.0, 1605.0, 1603.0, 1604.0, 1605.0, 1607.0, 1606.0, 1608.0, 1612.0, 1614.0, 1616.0, 1617.0, 1618.0, 1619.0, 1618.0, 1619.0, 1618.0, 1617.0, 1620.0, 1619.0, 1621.0, 1620.0, 1620.0, 1619.0, 1618.0, 1618.0, 1619.0, 1618.0, 1619.0, 1619.0, 1620.0, 1621.0, 1620.0, 1621.0, 1621.0, 1622.0, 1622.0, 1622.0, 1622.0, 1623.0, 1623.0, 1623.0]
    },
    "slices": {}
  }
}