{
  "AcquisitionMatrixPE": 72,
  "AcquisitionNumber": 1,
  "AcquisitionTime": "15:00:26.535000",
  "BandwidthPerPixelPhaseEncode": 17.943,
  "BaseResolution": 96,
  "BodyPartExamined": "BRAIN",
  "CoilCombinationMethod": "Sum of Squares",
  "ConsistencyInfo": "N4_VE11C_LATEST_20160120",
  "ConversionSoftware": "dcm2niix",
  "ConversionSoftwareVersion": "v1.0.20211006",
  "DerivedVendorReportedEchoSpacing": 0.000552897,
  "DeviceSerialNumber": "166011",
  "EchoTime": 0.03,
  "EchoTrainLength": 58,
  "EffectiveEchoSpacing": 0.000580542,
  "FlipAngle": 62,
  "ImageOrientationPatientDICOM": [0.998285, -0.0509035, -0.0289046, 0.0483003, 0.995247, -0.0845553],
  "ImageType": [
    "ORIGINAL",
    "PRIMARY",
    "M",
    "ND",
    "MOSAIC"
],
  "ImagingFrequency": 123.259,
  "InPlanePhaseEncodingDirectionDICOM": "COL",
  "InstitutionAddress": "West 130th Street 610,NY,NYC,US,10025",
  "InstitutionName": "MBBI",
  "MRAcquisitionType": "2D",
  "MagneticFieldStrength": 3,
  "Manufacturer": "Siemens",
  "ManufacturersModelName": "Prisma",
  "Modality": "MR",
  "MultibandAccelerationFactor": 3,
  "PartialFourier": 0.75,
  "PatientPosition": "HFS",
  "PercentPhaseFOV": 100,
  "PercentSampling": 75,
  "PhaseEncodingDirection": "j-",
  "PhaseEncodingSteps": 58,
  "PhaseOversampling": 0.05,
  "PhaseResolution": 0.75,
  "PixelBandwidth": 2265,
  "ProcedureStepDescription": "White^Word_recognition",
  "ProtocolName": "func_language_run3",
  "PulseSequenceDetails": "%SiemensSeq%\\ep2d_bold",
  "ReceiveCoilActiveElements": "HC1-7",
  "ReceiveCoilName": "HeadNeck_64",
  "ReconMatrixPE": 96,
  "RefLinesPE": 40,
  "RepetitionTime": 1.5,
  "SAR": 0.0549547,
  "ScanOptions": "PFP\\FS",
  "ScanningSequence": "EP",
  "SequenceName": "*epfid2d1_72",
  "SequenceVariant": "SK\\OSP",
  "SeriesDescription": "func_language_run3",
  "SeriesNumber": 13,
  "ShimSetting": [-1147, -1371, 719, 576, -90, 40, 79, 18],
  "SliceThickness": 2,
  "SliceTiming": [1.0775, 0, 0.74, 0.0675, 0.8075, 0.135, 0.875, 0.2025, 0.9425, 0.27, 1.01, 0.405, 1.145, 0.4725, 1.2125, 0.54, 1.28, 0.6075, 1.3475, 0.675, 1.415, 0.3375, 1.0775, 0, 0.74, 0.0675, 0.8075, 0.135, 0.875, 0.2025, 0.9425, 0.27, 1.01, 0.405, 1.145, 0.4725, 1.2125, 0.54, 1.28, 0.6075, 1.3475, 0.675, 1.415, 0.3375, 1.0775, 0, 0.74, 0.0675, 0.8075, 0.135, 0.875, 0.2025, 0.9425, 0.27, 1.01, 0.405, 1.145, 0.4725, 1.2125, 0.54, 1.28, 0.6075, 1.3475, 0.675, 1.415, 0.3375],
  "SoftwareVersions": "syngo MR E11",
  "SpacingBetweenSlices": 2,
  "StationName": "AWP166011",
  "TaskName": "langLoc",
  "TotalReadoutTime": 0.0551515,
  "TxRefAmp": 226.56,
  "dcmmeta_affine": [
    [-1.9965704679489136, 0.09660068154335022, -0.06614277511835098, 95.80487823486328],
    [0.10180695354938507, 1.9904948472976685, -0.1660284399986267, -67.62619018554688],
    [-0.05780920013785362, 0.16911064088344574, 1.9919989109039307, -55.34726333618164],
    [0.0, 0.0, 0.0, 1.0]
],
  "dcmmeta_reorient_transform": [
    [0.0, -1.0, 0.0, 95.0],
    [1.0, 0.0, 0.0, 0.0],
    [0.0, 0.0, 1.0, 0.0],
    [0.0, 0.0, 0.0, 1.0]
],
  "dcmmeta_shape": [96, 96, 66, 239],
  "dcmmeta_slice_dim": 2,
  "dcmmeta_version": 0.6,
  "global": {
    "const": {
      "AcquisitionMatrix": [96, 0, 0, 72],
      "AngioFlag": "N",
      "BitsAllocated": 16,
      "BitsStored": 12,
      "BodyPartExamined": "BRAIN",
      "Columns": 864,
      "EchoNumbers": 1,
      "EchoTime": 30.0,
      "EchoTrainLength": 58,
      "FlipAngle": 62.0,
      "HighBit": 11,
      "ImageOrientationPatient": [0.99828520982126, -0.0509034765491, -0.028904600453, 0.04830034212717, 0.99524744398236, -0.0845553203351],
      "ImagePositionPatient": [-908.75964436147, -846.72699439614, 47.855467141988],
      "ImageType": [
        "ORIGINAL",
        "PRIMARY",
        "M",
        "ND",
        "MOSAIC"
],
      "ImagedNucleus": "1H",
      "ImagingFrequency": 123.259484,
      "InPlanePhaseEncodingDirection": "COL",
      "MRAcquisitionType": "2D",
      "MagneticFieldStrength": 3.0,
      "Manufacturer": "SIEMENS",
      "ManufacturerModelName": "Prisma",
      "Modality": "MR",
      "NumberOfAverages": 1.0,
      "NumberOfPhaseEncodingSteps": 58,
      "PercentPhaseFieldOfView": 100.0,
      "PercentSampling": 75.0,
      "PerformedProcedureStepStartTime": "140204.993000",
      "PhotometricInterpretation": "MONOCHROME2",
      "PixelBandwidth": 2265.0,
      "PixelRepresentation": 0,
      "PixelSpacing": [2.0, 2.0],
      "ProtocolName": "func_language_run3",
      "RepetitionTime": 1500.0,
      "Rows": 864,
      "SAR": 0.0549547486315,
      "SamplesPerPixel": 1,
      "ScanOptions": [
        "PFP",
        "FS"
],
      "ScanningSequence": "EP",
      "SequenceName": "*epfid2d1_72",
      "SequenceVariant": [
        "SK",
        "OSP"
],
      "SeriesDescription": "func_language_run3",
      "SeriesNumber": 13,
      "SeriesTime": "150113.218000",
      "SliceLocation": -52.680308825603,
      "SliceThickness": 2.0,
      "SmallestImagePixelValue": 0,
      "SoftwareVersions": "syngo MR E11",
      "SpacingBetweenSlices": 1.9999999607778,
      "SpecificCharacterSet": "ISO_IR 100",
      "StudyID": "2",
      "StudyTime": "140204.927000",
      "TransmitCoilName": "Body",
      "VariableFlipAngleFlag": "N",
      "WindowCenterWidthExplanation": "Algo1",
      "dBdt": 0.0},
    "slices": {}
  },
  "time": {
    "samples": {
      "AcquisitionNumber": [1, 2, 3, 4, 5, 6, 7, 8, 9, 10, 11, 12, 13, 14, 15, 16, 17, 18, 19, 20, 21, 22, 23, 24, 25, 26, 27, 28, 29, 30, 31, 32, 33, 34, 35, 36, 37, 38, 39, 40, 41, 42, 43, 44, 45, 46, 47, 48, 49, 50, 51, 52, 53, 54, 55, 56, 57, 58, 59, 60, 61, 62, 63, 64, 65, 66, 67, 68, 69, 70, 71, 72, 73, 74, 75, 76, 77, 78, 79, 80, 81, 82, 83, 84, 85, 86, 87, 88, 89, 90, 91, 92, 93, 94, 95, 96, 97, 98, 99, 100, 101, 102, 103, 104, 105, 106, 107, 108, 109, 110, 111, 112, 113, 114, 115, 116, 117, 118, 119, 120, 121, 122, 123, 124, 125, 126, 127, 128, 129, 130, 131, 132, 133, 134, 135, 136, 137, 138, 139, 140, 141, 142, 143, 144, 145, 146, 147, 148, 149, 150, 151, 152, 153, 154, 155, 156, 157, 158, 159, 160, 161, 162, 163, 164, 165, 166, 167, 168, 169, 170, 171, 172, 173, 174, 175, 176, 177, 178, 179, 180, 181, 182, 183, 184, 185, 186, 187, 188, 189, 190, 191, 192, 193, 194, 195, 196, 197, 198, 199, 200, 201, 202, 203, 204, 205, 206, 207, 208, 209, 210, 211, 212, 213, 214, 215, 216, 217, 218, 219, 220, 221, 222, 223, 224, 225, 226, 227, 228, 229, 230, 231, 232, 233, 234, 235, 236, 237, 238, 239],
      "AcquisitionTime": ["150026.535000", "150028.035000", "150029.535000", "150031.035000", "150032.535000", "150034.035000", "150035.535000", "150037.035000", "150038.535000", "150040.035000", "150041.535000", "150043.035000", "150044.535000", "150046.035000", "150047.535000", "150049.035000", "150050.535000", "150052.035000", "150053.535000", "150055.035000", "150056.535000", "150058.035000", "150059.535000", "150101.035000", "150102.535000", "150104.035000", "150105.535000", "150107.035000", "150108.535000", "150110.035000", "150111.535000", "150113.035000", "150114.535000", "150116.035000", "150117.535000", "150119.035000", "150120.535000", "150122.035000", "150123.535000", "150125.035000", "150126.535000", "150128.035000", "150129.535000", "150131.035000", "150132.535000", "150134.035000", "150135.535000", "150137.035000", "150138.535000", "150140.035000", "150141.535000", "150143.035000", "150144.535000", "150146.035000", "150147.535000", "150149.035000", "150150.535000", "150152.035000", "150153.535000", "150155.035000", "150156.535000", "150158.035000", "150159.535000", "150201.035000", "150202.535000", "150204.035000", "150205.535000", "150207.035000", "150208.535000", "150210.035000", "150211.535000", "150213.035000", "150214.535000", "150216.035000", "150217.535000", "150219.035000", "150220.535000", "150222.035000", "150223.535000", "150225.035000", "150226.535000", "150228.035000", "150229.535000", "150231.035000", "150232.535000", "150234.035000", "150235.535000", "150237.035000", "150238.535000", "150240.035000", "150241.535000", "150243.035000", "150244.535000", "150246.035000", "150247.535000", "150249.035000", "150250.535000", "150252.035000", "150253.535000", "150255.035000", "150256.535000", "150258.035000", "150259.535000", "150301.035000", "150302.535000", "150304.035000", "150305.535000", "150307.035000", "150308.535000", "150310.035000", "150311.535000", "150313.035000", "150314.535000", "150316.035000", "150317.535000", "150319.035000", "150320.535000", "150322.035000", "150323.535000", "150325.035000", "150326.535000", "150328.035000", "150329.535000", "150331.035000", "150332.535000", "150334.035000", "150335.535000", "150337.035000", "150338.535000", "150340.035000", "150341.535000", "150343.035000", "150344.535000", "150346.035000", "150347.535000", "150349.035000", "150350.535000", "150352.035000", "150353.535000", "150355.035000", "150356.535000", "150358.035000", "150359.535000", "150401.035000", "150402.535000", "150404.035000", "150405.535000", "150407.035000", "150408.535000", "150410.035000", "150411.535000", "150413.035000", "150414.535000", "150416.035000", "150417.535000", "150419.035000", "150420.535000", "150422.035000", "150423.535000", "150425.035000", "150426.535000", "150428.035000", "150429.535000", "150431.035000", "150432.535000", "150434.035000", "150435.535000", "150437.035000", "150438.535000", "150440.035000", "150441.535000", "150443.035000", "150444.535000", "150446.035000", "150447.535000", "150449.035000", "150450.535000", "150452.035000", "150453.535000", "150455.035000", "150456.535000", "150458.035000", "150459.535000", "150501.035000", "150502.535000", "150504.035000", "150505.535000", "150507.035000", "150508.535000", "150510.035000", "150511.535000", "150513.035000", "150514.535000", "150516.035000", "150517.535000", "150519.035000", "150520.535000", "150522.035000", "150523.535000", "150525.035000", "150526.535000", "150528.035000", "150529.535000", "150531.035000", "150532.535000", "150534.035000", "150535.535000", "150537.035000", "150538.535000", "150540.035000", "150541.535000", "150543.035000", "150544.535000", "150546.035000", "150547.535000", "150549.035000", "150550.535000", "150552.035000", "150553.535000", "150555.035000", "150556.535000", "150558.035000", "150559.535000", "150601.035000", "150602.535000", "150604.035000", "150605.535000", "150607.035000", "150608.535000", "150610.035000", "150611.535000", "150613.035000", "150614.535000", "150616.035000", "150617.535000", "150619.035000", "150620.535000", "150622.035000", "150623.535000"],
      "ContentTime": ["150113.222000", "150113.226000", "150113.229000", "150113.232000", "150113.235000", "150113.238000", "150113.241000", "150113.244000", "150113.247000", "150113.250000", "150113.255000", "150113.258000", "150113.262000", "150113.265000", "150113.268000", "150113.271000", "150113.274000", "150113.277000", "150113.280000", "150113.284000", "150113.287000", "150113.295000", "150113.298000", "150113.302000", "150113.305000", "150113.308000", "150113.311000", "150113.314000", "150113.317000", "150113.320000", "150113.323000", "150153.216000", "150153.219000", "150153.222000", "150153.226000", "150153.229000", "150153.232000", "150153.235000", "150153.238000", "150153.242000", "150153.245000", "150153.248000", "150153.251000", "150153.255000", "150153.258000", "150153.267000", "150153.271000", "150153.275000", "150153.279000", "150153.282000", "150153.285000", "150153.288000", "150153.292000", "150153.295000", "150153.298000", "150153.301000", "150153.304000", "150233.216000", "150233.219000", "150233.222000", "150233.226000", "150233.229000", "150233.232000", "150233.235000", "150233.238000", "150233.241000", "150233.244000", "150233.247000", "150233.250000", "150233.253000", "150233.256000", "150233.259000", "150233.262000", "150233.265000", "150233.268000", "150233.271000", "150233.275000", "150233.278000", "150233.281000", "150233.284000", "150233.287000", "150233.290000", "150233.293000", "150233.296000", "150253.217000", "150253.220000", "150253.224000", "150253.227000", "150253.230000", "150253.233000", "150253.236000", "150253.239000", "150253.242000", "150253.245000", "150253.248000", "150253.257000", "150253.260000", "150333.217000", "150333.220000", "150333.224000", "150333.227000", "150333.230000", "150333.233000", "150333.236000", "150333.239000", "150333.242000", "150333.245000", "150333.248000", "150333.251000", "150333.254000", "150333.257000", "150333.260000", "150333.264000", "150333.267000", "150333.270000", "150333.273000", "150333.276000", "150333.279000", "150333.282000", "150333.285000", "150333.288000", "150333.291000", "150333.294000", "150333.297000", "150413.216000", "150413.219000", "150413.223000", "150413.226000", "150413.229000", "150413.232000", "150413.235000", "150413.238000", "150413.241000", "150413.244000", "150413.247000", "150413.250000", "150413.253000", "150413.257000", "150413.260000", "150413.263000", "150413.266000", "150413.269000", "150413.272000", "150413.275000", "150413.278000", "150413.281000", "150413.284000", "150413.287000", "150413.290000", "150413.293000", "150413.297000", "150453.216000", "150453.219000", "150453.222000", "150453.225000", "150453.228000", "150453.231000", "150453.234000", "150453.237000", "150453.240000", "150453.243000", "150453.247000", "150453.250000", "150453.253000", "150453.256000", "150453.259000", "150453.262000", "150453.265000", "150453.268000", "150453.271000", "150453.274000", "150453.278000", "150453.282000", "150453.286000", "150453.289000", "150453.292000", "150453.295000", "150533.217000", "150533.220000", "150533.224000", "150533.227000", "150533.230000", "150533.233000", "150533.236000", "150533.239000", "150533.242000", "150533.245000", "150533.248000", "150533.251000", "150533.254000", "150533.257000", "150533.261000", "150533.264000", "150533.267000", "150533.270000", "150533.273000", "150533.276000", "150533.279000", "150533.282000", "150533.285000", "150533.288000", "150533.291000", "150533.294000", "150533.297000", "150613.217000", "150613.221000", "150613.224000", "150613.227000", "150613.230000", "150613.233000", "150613.236000", "150613.239000", "150613.242000", "150613.245000", "150613.248000", "150613.251000", "150613.254000", "150613.258000", "150613.261000", "150613.264000", "150613.267000", "150613.270000", "150613.273000", "150613.276000", "150613.279000", "150613.282000", "150613.285000", "150613.288000", "150613.291000", "150613.294000", "150613.297000", "150624.773000", "150624.777000", "150624.780000", "150624.784000", "150624.787000", "150624.790000", "150624.793000", "150624.796000"],
      "InstanceCreationTime": ["150113.222000", "150113.226000", "150113.229000", "150113.232000", "150113.235000", "150113.238000", "150113.241000", "150113.244000", "150113.247000", "150113.250000", "150113.255000", "150113.258000", "150113.262000", "150113.265000", "150113.268000", "150113.271000", "150113.274000", "150113.277000", "150113.280000", "150113.284000", "150113.287000", "150113.295000", "150113.298000", "150113.302000", "150113.305000", "150113.308000", "150113.311000", "150113.314000", "150113.317000", "150113.320000", "150113.323000", "150153.216000", "150153.219000", "150153.222000", "150153.226000", "150153.229000", "150153.232000", "150153.235000", "150153.238000", "150153.242000", "150153.245000", "150153.248000", "150153.251000", "150153.255000", "150153.258000", "150153.267000", "150153.271000", "150153.275000", "150153.279000", "150153.282000", "150153.285000", "150153.288000", "150153.292000", "150153.295000", "150153.298000", "150153.301000", "150153.304000", "150233.216000", "150233.219000", "150233.222000", "150233.226000", "150233.229000", "150233.232000", "150233.235000", "150233.238000", "150233.241000", "150233.244000", "150233.247000", "150233.250000", "150233.253000", "150233.256000", "150233.259000", "150233.262000", "150233.265000", "150233.268000", "150233.271000", "150233.275000", "150233.278000", "150233.281000", "150233.284000", "150233.287000", "150233.290000", "150233.293000", "150233.296000", "150253.217000", "150253.220000", "150253.224000", "150253.227000", "150253.230000", "150253.233000", "150253.236000", "150253.239000", "150253.242000", "150253.245000", "150253.248000", "150253.257000", "150253.260000", "150333.217000", "150333.220000", "150333.224000", "150333.227000", "150333.230000", "150333.233000", "150333.236000", "150333.239000", "150333.242000", "150333.245000", "150333.248000", "150333.251000", "150333.254000", "150333.257000", "150333.260000", "150333.264000", "150333.267000", "150333.270000", "150333.273000", "150333.276000", "150333.279000", "150333.282000", "150333.285000", "150333.288000", "150333.291000", "150333.294000", "150333.297000", "150413.216000", "150413.219000", "150413.223000", "150413.226000", "150413.229000", "150413.232000", "150413.235000", "150413.238000", "150413.241000", "150413.244000", "150413.247000", "150413.250000", "150413.253000", "150413.257000", "150413.260000", "150413.263000", "150413.266000", "150413.269000", "150413.272000", "150413.275000", "150413.278000", "150413.281000", "150413.284000", "150413.287000", "150413.290000", "150413.293000", "150413.297000", "150453.216000", "150453.219000", "150453.222000", "150453.225000", "150453.228000", "150453.231000", "150453.234000", "150453.237000", "150453.240000", "150453.243000", "150453.247000", "150453.250000", "150453.253000", "150453.256000", "150453.259000", "150453.262000", "150453.265000", "150453.268000", "150453.271000", "150453.274000", "150453.278000", "150453.282000", "150453.286000", "150453.289000", "150453.292000", "150453.295000", "150533.217000", "150533.220000", "150533.224000", "150533.227000", "150533.230000", "150533.233000", "150533.236000", "150533.239000", "150533.242000", "150533.245000", "150533.248000", "150533.251000", "150533.254000", "150533.257000", "150533.261000", "150533.264000", "150533.267000", "150533.270000", "150533.273000", "150533.276000", "150533.279000", "150533.282000", "150533.285000", "150533.288000", "150533.291000", "150533.294000", "150533.297000", "150613.217000", "150613.221000", "150613.224000", "150613.227000", "150613.230000", "150613.233000", "150613.236000", "150613.239000", "150613.242000", "150613.245000", "150613.248000", "150613.251000", "150613.254000", "150613.258000", "150613.261000", "150613.264000", "150613.267000", "150613.270000", "150613.273000", "150613.276000", "150613.279000", "150613.282000", "150613.285000", "150613.288000", "150613.291000", "150613.294000", "150613.297000", "150624.773000", "150624.777000", "150624.780000", "150624.784000", "150624.787000", "150624.790000", "150624.793000", "150624.796000"],
      "InstanceNumber": [1, 2, 3, 4, 5, 6, 7, 8, 9, 10, 11, 12, 13, 14, 15, 16, 17, 18, 19, 20, 21, 22, 23, 24, 25, 26, 27, 28, 29, 30, 31, 32, 33, 34, 35, 36, 37, 38, 39, 40, 41, 42, 43, 44, 45, 46, 47, 48, 49, 50, 51, 52, 53, 54, 55, 56, 57, 58, 59, 60, 61, 62, 63, 64, 65, 66, 67, 68, 69, 70, 71, 72, 73, 74, 75, 76, 77, 78, 79, 80, 81, 82, 83, 84, 85, 86, 87, 88, 89, 90, 91, 92, 93, 94, 95, 96, 97, 98, 99, 100, 101, 102, 103, 104, 105, 106, 107, 108, 109, 110, 111, 112, 113, 114, 115, 116, 117, 118, 119, 120, 121, 122, 123, 124, 125, 126, 127, 128, 129, 130, 131, 132, 133, 134, 135, 136, 137, 138, 139, 140, 141, 142, 143, 144, 145, 146, 147, 148, 149, 150, 151, 152, 153, 154, 155, 156, 157, 158, 159, 160, 161, 162, 163, 164, 165, 166, 167, 168, 169, 170, 171, 172, 173, 174, 175, 176, 177, 178, 179, 180, 181, 182, 183, 184, 185, 186, 187, 188, 189, 190, 191, 192, 193, 194, 195, 196, 197, 198, 199, 200, 201, 202, 203, 204, 205, 206, 207, 208, 209, 210, 211, 212, 213, 214, 215, 216, 217, 218, 219, 220, 221, 222, 223, 224, 225, 226, 227, 228, 229, 230, 231, 232, 233, 234, 235, 236, 237, 238, 239],
      "LargestImagePixelValue": [2724, 2420, 2335, 2303, 2683, 2686, 2759, 2647, 2655, 2670, 2687, 2624, 2609, 2622, 2596, 2579, 2593, 2576, 2533, 2527, 2529, 2532, 2557, 2552, 2553, 2535, 2562, 2543, 2541, 2546, 2564, 2554, 2533, 2547, 2547, 2586, 2590, 2588, 2582, 2589, 2587, 2571, 2584, 2583, 2476, 2596, 2574, 2584, 2593, 2586, 2582, 2595, 2595, 2577, 2602, 2596, 2584, 2588, 2415, 2606, 2430, 2439, 2489, 2470, 2425, 2394, 2397, 2410, 2632, 2601, 2626, 2543, 2603, 2623, 2603, 2642, 2609, 2627, 2647, 2634, 2646, 2631, 2662, 2629, 2634, 2611, 2633, 2629, 2612, 2627, 2604, 2623, 2599, 2626, 2622, 2633, 2614, 2560, 2664, 2619, 2610, 2561, 2521, 2525, 2534, 2517, 2551, 2532, 2533, 2535, 2532, 2503, 2512, 2508, 2505, 2536, 2559, 2614, 2542, 2554, 2549, 2538, 2476, 2485, 2641, 2449, 2427, 2779, 2481, 2603, 2632, 2616, 2644, 2630, 2637, 2595, 2623, 2578, 2578, 2544, 2577, 2527, 2457, 2438, 2430, 2505, 2636, 2474, 2468, 2475, 2485, 2490, 2496, 2390, 2582, 2529, 2538, 2518, 2484, 2517, 2409, 2355, 2401, 2387, 2420, 2360, 2420, 2459, 2434, 2453, 2412, 2423, 2345, 2451, 2431, 2374, 2422, 2415, 2399, 2487, 2512, 2439, 2567, 2166, 2377, 2536, 2429, 2379, 2343, 2340, 2335, 2322, 2329, 2343, 2331, 2309, 2335, 2355, 2336, 2378, 2410, 2375, 2315, 2287, 2297, 2278, 2304, 2311, 2264, 2264, 2227, 2489, 2434, 2417, 2474, 2458, 2454, 2408, 2403, 2418, 2409, 2415, 2439, 2426, 2380, 2336, 2358, 2360, 2366, 2405, 2388, 2425, 2451, 2505, 2442, 2385, 2359, 2403, 2391],
      "WindowCenter": [672.0, 671.0, 664.0, 664.0, 673.0, 675.0, 677.0, 676.0, 675.0, 675.0, 675.0, 675.0, 675.0, 675.0, 676.0, 676.0, 677.0, 677.0, 677.0, 676.0, 676.0, 676.0, 676.0, 677.0, 677.0, 677.0, 676.0, 676.0, 676.0, 675.0, 674.0, 674.0, 674.0, 675.0, 674.0, 673.0, 673.0, 672.0, 671.0, 672.0, 674.0, 674.0, 673.0, 672.0, 672.0, 676.0, 674.0, 674.0, 675.0, 674.0, 673.0, 673.0, 673.0, 673.0, 673.0, 674.0, 674.0, 675.0, 672.0, 671.0, 673.0, 664.0, 670.0, 671.0, 669.0, 668.0, 668.0, 668.0, 661.0, 678.0, 674.0, 674.0, 675.0, 673.0, 673.0, 673.0, 673.0, 674.0, 674.0, 673.0, 673.0, 673.0, 674.0, 674.0, 675.0, 675.0, 676.0, 675.0, 676.0, 676.0, 677.0, 677.0, 677.0, 677.0, 677.0, 677.0, 677.0, 676.0, 673.0, 675.0, 673.0, 671.0, 670.0, 669.0, 669.0, 668.0, 668.0, 668.0, 668.0, 668.0, 668.0, 668.0, 669.0, 669.0, 669.0, 669.0, 672.0, 672.0, 672.0, 673.0, 672.0, 671.0, 670.0, 661.0, 668.0, 666.0, 670.0, 672.0, 670.0, 668.0, 666.0, 666.0, 666.0, 665.0, 665.0, 666.0, 666.0, 667.0, 669.0, 668.0, 668.0, 668.0, 667.0, 667.0, 667.0, 668.0, 666.0, 670.0, 668.0, 668.0, 667.0, 668.0, 668.0, 665.0, 670.0, 671.0, 670.0, 663.0, 665.0, 665.0, 663.0, 663.0, 665.0, 664.0, 665.0, 665.0, 667.0, 666.0, 666.0, 665.0, 665.0, 665.0, 666.0, 666.0, 667.0, 667.0, 666.0, 666.0, 665.0, 666.0, 665.0, 663.0, 668.0, 644.0, 659.0, 664.0, 661.0, 658.0, 656.0, 654.0, 653.0, 654.0, 655.0, 655.0, 655.0, 655.0, 657.0, 659.0, 658.0, 657.0, 661.0, 660.0, 660.0, 659.0, 660.0, 658.0, 658.0, 658.0, 658.0, 659.0, 646.0, 667.0, 664.0, 663.0, 664.0, 664.0, 663.0, 662.0, 661.0, 661.0, 662.0, 663.0, 663.0, 663.0, 663.0, 664.0, 657.0, 669.0, 671.0, 671.0, 670.0, 668.0, 669.0, 670.0, 669.0, 667.0, 666.0, 665.0, 666.0],
      "WindowWidth": [1440.0, 1436.0, 1417.0, 1419.0, 1442.0, 1445.0, 1451.0, 1447.0, 1445.0, 1445.0, 1445.0, 1445.0, 1446.0, 1447.0, 1447.0, 1448.0, 1450.0, 1452.0, 1451.0, 1449.0, 1449.0, 1448.0, 1448.0, 1449.0, 1451.0, 1450.0, 1448.0, 1447.0, 1447.0, 1445.0, 1443.0, 1443.0, 1444.0, 1444.0, 1443.0, 1441.0, 1439.0, 1437.0, 1436.0, 1438.0, 1443.0, 1442.0, 1441.0, 1438.0, 1437.0, 1448.0, 1443.0, 1443.0, 1445.0, 1442.0, 1441.0, 1439.0, 1441.0, 1439.0, 1441.0, 1443.0, 1444.0, 1444.0, 1438.0, 1435.0, 1440.0, 1418.0, 1434.0, 1434.0, 1430.0, 1428.0, 1427.0, 1428.0, 1409.0, 1453.0, 1443.0, 1444.0, 1444.0, 1441.0, 1441.0, 1440.0, 1440.0, 1442.0, 1442.0, 1439.0, 1439.0, 1439.0, 1441.0, 1442.0, 1445.0, 1445.0, 1447.0, 1446.0, 1448.0, 1449.0, 1450.0, 1451.0, 1450.0, 1450.0, 1450.0, 1451.0, 1450.0, 1448.0, 1439.0, 1443.0, 1440.0, 1435.0, 1432.0, 1429.0, 1428.0, 1428.0, 1427.0, 1426.0, 1426.0, 1427.0, 1426.0, 1427.0, 1428.0, 1430.0, 1429.0, 1428.0, 1437.0, 1437.0, 1438.0, 1439.0, 1438.0, 1435.0, 1432.0, 1409.0, 1425.0, 1421.0, 1433.0, 1438.0, 1432.0, 1426.0, 1421.0, 1420.0, 1421.0, 1419.0, 1420.0, 1421.0, 1422.0, 1425.0, 1429.0, 1427.0, 1426.0, 1425.0, 1425.0, 1423.0, 1425.0, 1426.0, 1422.0, 1431.0, 1428.0, 1426.0, 1424.0, 1425.0, 1427.0, 1419.0, 1432.0, 1434.0, 1433.0, 1416.0, 1420.0, 1420.0, 1415.0, 1415.0, 1418.0, 1418.0, 1419.0, 1420.0, 1423.0, 1423.0, 1421.0, 1419.0, 1418.0, 1420.0, 1421.0, 1421.0, 1423.0, 1423.0, 1422.0, 1422.0, 1420.0, 1421.0, 1420.0, 1414.0, 1426.0, 1371.0, 1406.0, 1416.0, 1410.0, 1403.0, 1397.0, 1392.0, 1390.0, 1392.0, 1394.0, 1395.0, 1394.0, 1396.0, 1400.0, 1403.0, 1403.0, 1398.0, 1408.0, 1406.0, 1406.0, 1405.0, 1406.0, 1403.0, 1403.0, 1403.0, 1403.0, 1404.0, 1373.0, 1424.0, 1416.0, 1415.0, 1416.0, 1415.0, 1413.0, 1412.0, 1410.0, 1410.0, 1411.0, 1414.0, 1415.0, 1414.0, 1415.0, 1416.0, 1400.0, 1430.0, 1433.0, 1435.0, 1431.0, 1427.0, 1430.0, 1432.0, 1428.0, 1424.0, 1423.0, 1420.0, 1421.0]
    },
    "slices": {}
  }
}