{
  "AcquisitionMatrixPE": 72,
  "AcquisitionNumber": 1,
  "AcquisitionTime": "08:54:22.825000",
  "BandwidthPerPixelPhaseEncode": 17.943,
  "BaseResolution": 96,
  "BodyPartExamined": "BRAIN",
  "CoilCombinationMethod": "Sum of Squares",
  "ConsistencyInfo": "N4_VE11C_LATEST_20160120",
  "ConversionSoftware": "dcm2niix",
  "ConversionSoftwareVersion": "v1.0.20211006",
  "DerivedVendorReportedEchoSpacing": 0.000552897,
  "DeviceSerialNumber": "166011",
  "DwellTime": 2.3e-06,
  "EchoTime": 0.03,
  "EchoTrainLength": 58,
  "EffectiveEchoSpacing": 0.000580542,
  "FlipAngle": 62,
  "ImageOrientationPatientDICOM": [0.999971, -0.0065392, 0.00391154, 0.00680666, 0.997323, -0.0728003],
  "ImageOrientationText": "Tra>Cor(-4.2)>Sag(0.2)",
  "ImageType": [
    "ORIGINAL",
    "PRIMARY",
    "M",
    "ND",
    "MOSAIC"
],
  "ImagingFrequency": 123.259,
  "InPlanePhaseEncodingDirectionDICOM": "COL",
  "InstitutionAddress": "West 130th Street 610,NY,NYC,US,10025",
  "InstitutionName": "MBBI",
  "InstitutionalDepartmentName": "Department",
  "MRAcquisitionType": "2D",
  "MagneticFieldStrength": 3,
  "Manufacturer": "Siemens",
  "ManufacturersModelName": "Prisma",
  "Modality": "MR",
  "MultibandAccelerationFactor": 3,
  "PartialFourier": 0.75,
  "PatientPosition": "HFS",
  "PercentPhaseFOV": 100,
  "PercentSampling": 75,
  "PhaseEncodingDirection": "j-",
  "PhaseEncodingSteps": 58,
  "PhaseOversampling": 0.05,
  "PhaseResolution": 0.75,
  "PixelBandwidth": 2265,
  "ProcedureStepDescription": "White^Word_recognition",
  "ProtocolName": "func_catLoc_run4",
  "PulseSequenceDetails": "%SiemensSeq%\\ep2d_bold",
  "ReceiveCoilActiveElements": "HC1-7",
  "ReceiveCoilName": "HeadNeck_64",
  "ReconMatrixPE": 96,
  "RefLinesPE": 40,
  "RepetitionTime": 1.5,
  "SAR": 0.0508514,
  "ScanOptions": "PFP\\FS",
  "ScanningSequence": "EP",
  "SequenceName": "*epfid2d1_72",
  "SequenceVariant": "SK\\OSP",
  "SeriesDescription": "func_catLoc_run4",
  "SeriesNumber": 13,
  "ShimSetting": [-1164, -1380, 676, 491, -111, -44, -31, -3],
  "SliceThickness": 2,
  "SliceTiming": [1.0775, 0, 0.74, 0.0675, 0.8075, 0.135, 0.875, 0.2025, 0.9425, 0.27, 1.01, 0.405, 1.145, 0.4725, 1.2125, 0.54, 1.28, 0.6075, 1.3475, 0.6725, 1.4125, 0.3375, 1.0775, 0, 0.74, 0.0675, 0.8075, 0.135, 0.875, 0.2025, 0.9425, 0.27, 1.01, 0.405, 1.145, 0.4725, 1.2125, 0.54, 1.28, 0.6075, 1.3475, 0.6725, 1.4125, 0.3375, 1.0775, 0, 0.74, 0.0675, 0.8075, 0.135, 0.875, 0.2025, 0.9425, 0.27, 1.01, 0.405, 1.145, 0.4725, 1.2125, 0.54, 1.28, 0.6075, 1.3475, 0.6725, 1.4125, 0.3375],
  "SoftwareVersions": "syngo MR E11",
  "SpacingBetweenSlices": 2,
  "StationName": "AWP166011",
  "TaskName": "catLoc",
  "TotalReadoutTime": 0.0551515,
  "TxRefAmp": 217.84,
  "dcmmeta_affine": [
    [-1.9999419450759888, 0.013613312505185604, 0.006850022356957197, 100.11261749267578],
    [0.013078401796519756, 1.994646668434143, -0.14564962685108185, -80.90928649902344],
    [0.007823074236512184, 0.1456006020307541, 1.9946776628494263, -43.19398880004883],
    [0.0, 0.0, 0.0, 1.0]
],
  "dcmmeta_reorient_transform": [
    [0.0, -1.0, 0.0, 95.0],
    [1.0, 0.0, 0.0, 0.0],
    [0.0, 0.0, 1.0, 0.0],
    [0.0, 0.0, 0.0, 1.0]
],
  "dcmmeta_shape": [96, 96, 66, 214],
  "dcmmeta_slice_dim": 2,
  "dcmmeta_version": 0.6,
  "global": {
    "const": {
      "AcquisitionMatrix": [96, 0, 0, 72],
      "AngioFlag": "N",
      "BitsAllocated": 16,
      "BitsStored": 12,
      "BodyPartExamined": "BRAIN",
      "Columns": 864,
      "EchoNumbers": 1,
      "EchoTime": 30.0,
      "EchoTrainLength": 58,
      "FlipAngle": 62.0,
      "HighBit": 11,
      "ImageOrientationPatient": [0.99997096894396, -0.0065392007578, 0.00391153713022, 0.00680665603668, 0.99732331038122, -0.0728003022236],
      "ImagePositionPatient": [-874.61109936373, -869.50433720785, 23.544638981845],
      "ImageType": [
        "ORIGINAL",
        "PRIMARY",
        "M",
        "ND",
        "MOSAIC"
],
      "ImagedNucleus": "1H",
      "ImagingFrequency": 123.259498,
      "InPlanePhaseEncodingDirection": "COL",
      "MRAcquisitionType": "2D",
      "MagneticFieldStrength": 3.0,
      "Manufacturer": "SIEMENS",
      "ManufacturerModelName": "Prisma",
      "Modality": "MR",
      "NumberOfAverages": 1.0,
      "NumberOfPhaseEncodingSteps": 58,
      "PercentPhaseFieldOfView": 100.0,
      "PercentSampling": 75.0,
      "PerformedProcedureStepStartTime": "075246.446000",
      "PhotometricInterpretation": "MONOCHROME2",
      "PixelBandwidth": 2265.0,
      "PixelRepresentation": 0,
      "PixelSpacing": [2.0, 2.0],
      "ProtocolName": "func_catLoc_run4",
      "RepetitionTime": 1500.0,
      "Rows": 864,
      "SAR": 0.05085144876191,
      "SamplesPerPixel": 1,
      "ScanOptions": [
        "PFP",
        "FS"
],
      "ScanningSequence": "EP",
      "SequenceName": "*epfid2d1_72",
      "SequenceVariant": [
        "SK",
        "OSP"
],
      "SeriesDescription": "func_catLoc_run4",
      "SeriesNumber": 13,
      "SeriesTime": "085502.616000",
      "SliceLocation": -36.843954443276,
      "SliceThickness": 2.0,
      "SmallestImagePixelValue": 0,
      "SoftwareVersions": "syngo MR E11",
      "SpacingBetweenSlices": 1.999999941407,
      "SpecificCharacterSet": "ISO_IR 100",
      "StudyID": "2",
      "StudyTime": "075246.375000",
      "TransmitCoilName": "Body",
      "VariableFlipAngleFlag": "N",
      "WindowCenterWidthExplanation": "Algo1",
      "dBdt": 0.0},
    "slices": {}
  },
  "time": {
    "samples": {
      "AcquisitionNumber": [1, 2, 3, 4, 5, 6, 7, 8, 9, 10, 11, 12, 13, 14, 15, 16, 17, 18, 19, 20, 21, 22, 23, 24, 25, 26, 27, 28, 29, 30, 31, 32, 33, 34, 35, 36, 37, 38, 39, 40, 41, 42, 43, 44, 45, 46, 47, 48, 49, 50, 51, 52, 53, 54, 55, 56, 57, 58, 59, 60, 61, 62, 63, 64, 65, 66, 67, 68, 69, 70, 71, 72, 73, 74, 75, 76, 77, 78, 79, 80, 81, 82, 83, 84, 85, 86, 87, 88, 89, 90, 91, 92, 93, 94, 95, 96, 97, 98, 99, 100, 101, 102, 103, 104, 105, 106, 107, 108, 109, 110, 111, 112, 113, 114, 115, 116, 117, 118, 119, 120, 121, 122, 123, 124, 125, 126, 127, 128, 129, 130, 131, 132, 133, 134, 135, 136, 137, 138, 139, 140, 141, 142, 143, 144, 145, 146, 147, 148, 149, 150, 151, 152, 153, 154, 155, 156, 157, 158, 159, 160, 161, 162, 163, 164, 165, 166, 167, 168, 169, 170, 171, 172, 173, 174, 175, 176, 177, 178, 179, 180, 181, 182, 183, 184, 185, 186, 187, 188, 189, 190, 191, 192, 193, 194, 195, 196, 197, 198, 199, 200, 201, 202, 203, 204, 205, 206, 207, 208, 209, 210, 211, 212, 213, 214],
      "AcquisitionTime": ["085422.825000", "085424.325000", "085425.825000", "085427.325000", "085428.825000", "085430.325000", "085431.825000", "085433.325000", "085434.825000", "085436.325000", "085437.825000", "085439.325000", "085440.825000", "085442.325000", "085443.825000", "085445.325000", "085446.825000", "085448.325000", "085449.825000", "085451.325000", "085452.825000", "085454.325000", "085455.825000", "085457.325000", "085458.825000", "085500.325000", "085501.825000", "085503.325000", "085504.825000", "085506.325000", "085507.825000", "085509.325000", "085510.825000", "085512.325000", "085513.825000", "085515.325000", "085516.825000", "085518.325000", "085519.825000", "085521.325000", "085522.825000", "085524.325000", "085525.825000", "085527.325000", "085528.825000", "085530.325000", "085531.825000", "085533.325000", "085534.825000", "085536.325000", "085537.825000", "085539.325000", "085540.825000", "085542.325000", "085543.825000", "085545.325000", "085546.825000", "085548.325000", "085549.825000", "085551.325000", "085552.825000", "085554.325000", "085555.825000", "085557.325000", "085558.825000", "085600.325000", "085601.825000", "085603.325000", "085604.825000", "085606.325000", "085607.825000", "085609.325000", "085610.825000", "085612.325000", "085613.825000", "085615.325000", "085616.825000", "085618.325000", "085619.825000", "085621.325000", "085622.825000", "085624.325000", "085625.825000", "085627.325000", "085628.825000", "085630.325000", "085631.825000", "085633.325000", "085634.825000", "085636.325000", "085637.825000", "085639.325000", "085640.825000", "085642.325000", "085643.825000", "085645.325000", "085646.825000", "085648.325000", "085649.825000", "085651.325000", "085652.825000", "085654.325000", "085655.825000", "085657.325000", "085658.825000", "085700.325000", "085701.825000", "085703.325000", "085704.825000", "085706.325000", "085707.825000", "085709.325000", "085710.825000", "085712.325000", "085713.825000", "085715.325000", "085716.825000", "085718.325000", "085719.825000", "085721.325000", "085722.825000", "085724.325000", "085725.825000", "085727.325000", "085728.825000", "085730.325000", "085731.825000", "085733.325000", "085734.825000", "085736.325000", "085737.825000", "085739.325000", "085740.825000", "085742.325000", "085743.825000", "085745.325000", "085746.825000", "085748.325000", "085749.825000", "085751.325000", "085752.825000", "085754.325000", "085755.825000", "085757.325000", "085758.825000", "085800.325000", "085801.825000", "085803.325000", "085804.825000", "085806.325000", "085807.825000", "085809.325000", "085810.825000", "085812.325000", "085813.825000", "085815.325000", "085816.825000", "085818.325000", "085819.825000", "085821.325000", "085822.825000", "085824.325000", "085825.825000", "085827.325000", "085828.825000", "085830.325000", "085831.825000", "085833.325000", "085834.825000", "085836.325000", "085837.825000", "085839.325000", "085840.825000", "085842.325000", "085843.825000", "085845.325000", "085846.825000", "085848.325000", "085849.825000", "085851.325000", "085852.825000", "085854.325000", "085855.825000", "085857.325000", "085858.825000", "085900.325000", "085901.825000", "085903.325000", "085904.825000", "085906.325000", "085907.825000", "085909.325000", "085910.825000", "085912.325000", "085913.825000", "085915.325000", "085916.825000", "085918.325000", "085919.825000", "085921.325000", "085922.825000", "085924.325000", "085925.825000", "085927.325000", "085928.825000", "085930.325000", "085931.825000", "085933.325000", "085934.825000", "085936.325000", "085937.825000", "085939.325000", "085940.825000", "085942.325000"],
      "ContentTime": ["085502.620000", "085502.631000", "085502.634000", "085502.637000", "085502.642000", "085502.646000", "085502.649000", "085502.652000", "085502.655000", "085502.658000", "085502.661000", "085502.665000", "085502.668000", "085502.671000", "085502.674000", "085502.677000", "085502.680000", "085502.688000", "085502.691000", "085502.694000", "085502.697000", "085502.700000", "085502.703000", "085502.707000", "085502.710000", "085502.713000", "085542.615000", "085542.625000", "085542.628000", "085542.631000", "085542.634000", "085542.637000", "085542.641000", "085542.644000", "085542.647000", "085542.650000", "085542.653000", "085542.656000", "085542.659000", "085542.662000", "085542.666000", "085542.669000", "085542.672000", "085542.675000", "085542.678000", "085542.688000", "085542.691000", "085542.694000", "085542.697000", "085542.700000", "085542.703000", "085542.706000", "085542.709000", "085622.615000", "085622.619000", "085622.622000", "085622.625000", "085622.628000", "085622.631000", "085622.634000", "085622.637000", "085622.640000", "085622.643000", "085622.647000", "085622.650000", "085622.653000", "085622.658000", "085622.661000", "085622.664000", "085622.667000", "085622.670000", "085622.673000", "085622.676000", "085622.679000", "085622.682000", "085622.685000", "085622.688000", "085622.691000", "085622.694000", "085622.697000", "085702.615000", "085702.618000", "085702.621000", "085702.624000", "085702.627000", "085702.631000", "085702.634000", "085702.637000", "085702.640000", "085702.643000", "085702.646000", "085702.649000", "085702.652000", "085702.655000", "085702.658000", "085702.661000", "085702.664000", "085702.667000", "085702.671000", "085702.674000", "085702.677000", "085702.680000", "085702.683000", "085702.686000", "085702.689000", "085702.692000", "085742.615000", "085742.618000", "085742.621000", "085742.625000", "085742.628000", "085742.631000", "085742.634000", "085742.637000", "085742.640000", "085742.643000", "085742.647000", "085742.650000", "085742.653000", "085742.656000", "085742.659000", "085742.662000", "085742.665000", "085742.668000", "085742.671000", "085742.674000", "085742.677000", "085742.680000", "085742.684000", "085742.687000", "085742.690000", "085742.702000", "085742.706000", "085822.615000", "085822.619000", "085822.622000", "085822.625000", "085822.628000", "085822.631000", "085822.634000", "085822.637000", "085822.640000", "085822.643000", "085822.646000", "085822.649000", "085822.652000", "085822.656000", "085822.659000", "085822.662000", "085822.665000", "085822.668000", "085822.671000", "085822.674000", "085822.677000", "085822.680000", "085822.683000", "085822.686000", "085822.689000", "085822.693000", "085822.696000", "085902.615000", "085902.618000", "085902.622000", "085902.625000", "085902.628000", "085902.631000", "085902.634000", "085902.637000", "085902.640000", "085902.643000", "085902.647000", "085902.650000", "085902.653000", "085902.656000", "085902.659000", "085902.662000", "085902.665000", "085902.668000", "085902.671000", "085902.675000", "085902.678000", "085902.681000", "085902.684000", "085902.687000", "085902.690000", "085902.693000", "085942.615000", "085942.618000", "085942.622000", "085942.625000", "085942.628000", "085942.631000", "085942.634000", "085942.637000", "085942.641000", "085942.644000", "085942.647000", "085942.650000", "085942.653000", "085942.656000", "085942.659000", "085942.662000", "085942.665000", "085942.668000", "085942.671000", "085942.674000", "085942.677000", "085942.680000", "085942.684000", "085942.687000", "085942.690000", "085942.693000", "085942.696000", "085943.360000"],
      "InstanceCreationTime": ["085502.620000", "085502.631000", "085502.634000", "085502.637000", "085502.642000", "085502.646000", "085502.649000", "085502.652000", "085502.655000", "085502.658000", "085502.661000", "085502.665000", "085502.668000", "085502.671000", "085502.674000", "085502.677000", "085502.680000", "085502.688000", "085502.691000", "085502.694000", "085502.697000", "085502.700000", "085502.703000", "085502.707000", "085502.710000", "085502.713000", "085542.615000", "085542.625000", "085542.628000", "085542.631000", "085542.634000", "085542.637000", "085542.641000", "085542.644000", "085542.647000", "085542.650000", "085542.653000", "085542.656000", "085542.659000", "085542.662000", "085542.666000", "085542.669000", "085542.672000", "085542.675000", "085542.678000", "085542.688000", "085542.691000", "085542.694000", "085542.697000", "085542.700000", "085542.703000", "085542.706000", "085542.709000", "085622.615000", "085622.619000", "085622.622000", "085622.625000", "085622.628000", "085622.631000", "085622.634000", "085622.637000", "085622.640000", "085622.643000", "085622.647000", "085622.650000", "085622.653000", "085622.658000", "085622.661000", "085622.664000", "085622.667000", "085622.670000", "085622.673000", "085622.676000", "085622.679000", "085622.682000", "085622.685000", "085622.688000", "085622.691000", "085622.694000", "085622.697000", "085702.615000", "085702.618000", "085702.621000", "085702.624000", "085702.627000", "085702.631000", "085702.634000", "085702.637000", "085702.640000", "085702.643000", "085702.646000", "085702.649000", "085702.652000", "085702.655000", "085702.658000", "085702.661000", "085702.664000", "085702.667000", "085702.671000", "085702.674000", "085702.677000", "085702.680000", "085702.683000", "085702.686000", "085702.689000", "085702.692000", "085742.615000", "085742.618000", "085742.621000", "085742.625000", "085742.628000", "085742.631000", "085742.634000", "085742.637000", "085742.640000", "085742.643000", "085742.647000", "085742.650000", "085742.653000", "085742.656000", "085742.659000", "085742.662000", "085742.665000", "085742.668000", "085742.671000", "085742.674000", "085742.677000", "085742.680000", "085742.684000", "085742.687000", "085742.690000", "085742.702000", "085742.706000", "085822.615000", "085822.619000", "085822.622000", "085822.625000", "085822.628000", "085822.631000", "085822.634000", "085822.637000", "085822.640000", "085822.643000", "085822.646000", "085822.649000", "085822.652000", "085822.656000", "085822.659000", "085822.662000", "085822.665000", "085822.668000", "085822.671000", "085822.674000", "085822.677000", "085822.680000", "085822.683000", "085822.686000", "085822.689000", "085822.693000", "085822.696000", "085902.615000", "085902.618000", "085902.622000", "085902.625000", "085902.628000", "085902.631000", "085902.634000", "085902.637000", "085902.640000", "085902.643000", "085902.647000", "085902.650000", "085902.653000", "085902.656000", "085902.659000", "085902.662000", "085902.665000", "085902.668000", "085902.671000", "085902.675000", "085902.678000", "085902.681000", "085902.684000", "085902.687000", "085902.690000", "085902.693000", "085942.615000", "085942.618000", "085942.622000", "085942.625000", "085942.628000", "085942.631000", "085942.634000", "085942.637000", "085942.641000", "085942.644000", "085942.647000", "085942.650000", "085942.653000", "085942.656000", "085942.659000", "085942.662000", "085942.665000", "085942.668000", "085942.671000", "085942.674000", "085942.677000", "085942.680000", "085942.684000", "085942.687000", "085942.690000", "085942.693000", "085942.696000", "085943.360000"],
      "InstanceNumber": [1, 2, 3, 4, 5, 6, 7, 8, 9, 10, 11, 12, 13, 14, 15, 16, 17, 18, 19, 20, 21, 22, 23, 24, 25, 26, 27, 28, 29, 30, 31, 32, 33, 34, 35, 36, 37, 38, 39, 40, 41, 42, 43, 44, 45, 46, 47, 48, 49, 50, 51, 52, 53, 54, 55, 56, 57, 58, 59, 60, 61, 62, 63, 64, 65, 66, 67, 68, 69, 70, 71, 72, 73, 74, 75, 76, 77, 78, 79, 80, 81, 82, 83, 84, 85, 86, 87, 88, 89, 90, 91, 92, 93, 94, 95, 96, 97, 98, 99, 100, 101, 102, 103, 104, 105, 106, 107, 108, 109, 110, 111, 112, 113, 114, 115, 116, 117, 118, 119, 120, 121, 122, 123, 124, 125, 126, 127, 128, 129, 130, 131, 132, 133, 134, 135, 136, 137, 138, 139, 140, 141, 142, 143, 144, 145, 146, 147, 148, 149, 150, 151, 152, 153, 154, 155, 156, 157, 158, 159, 160, 161, 162, 163, 164, 165, 166, 167, 168, 169, 170, 171, 172, 173, 174, 175, 176, 177, 178, 179, 180, 181, 182, 183, 184, 185, 186, 187, 188, 189, 190, 191, 192, 193, 194, 195, 196, 197, 198, 199, 200, 201, 202, 203, 204, 205, 206, 207, 208, 209, 210, 211, 212, 213, 214],
      "LargestImagePixelValue": [3892, 3793, 3777, 3580, 3625, 3731, 3697, 3649, 3747, 3700, 3679, 3690, 3629, 3676, 3610, 3558, 3629, 3602, 3647, 3603, 3634, 3627, 3591, 3592, 3543, 3576, 3527, 3557, 3545, 3520, 3597, 3548, 3560, 3593, 3595, 3616, 3564, 3585, 3676, 3627, 3596, 3638, 3644, 3617, 3656, 3662, 3642, 3697, 3675, 3637, 3641, 3654, 3617, 3596, 3670, 3623, 3690, 3659, 3626, 3677, 3655, 3695, 3620, 3666, 3601, 3597, 3574, 3539, 3601, 3571, 3533, 3618, 3551, 3658, 3605, 3666, 3631, 3574, 3663, 3603, 3618, 3619, 3603, 3637, 3622, 3619, 3570, 3678, 3654, 3613, 3639, 3608, 3678, 3620, 3625, 3648, 3624, 3597, 3634, 3596, 3590, 3611, 3594, 3628, 3574, 3575, 3596, 3565, 3623, 3544, 3630, 3595, 3623, 3638, 3579, 3652, 3576, 3660, 3610, 3588, 3613, 3615, 3561, 3587, 3574, 3541, 3531, 3554, 3564, 3561, 3591, 3554, 3546, 3547, 3571, 3559, 3543, 3620, 3612, 3578, 3520, 3580, 3526, 3531, 3625, 3719, 3574, 3578, 3558, 3629, 3577, 3614, 3639, 3620, 3752, 3674, 3610, 3689, 3694, 3693, 3734, 3735, 3688, 3715, 3651, 3560, 3496, 3552, 3537, 3566, 3543, 3637, 3498, 3479, 3559, 3476, 3509, 3549, 3652, 3680, 3618, 3595, 3547, 3565, 3547, 3590, 3557, 3598, 3592, 3515, 3562, 3546, 3577, 3533, 3510, 3563, 3504, 3559, 3542, 3531, 3477, 3528, 3521, 3472, 3558, 3511, 3555, 3521, 3511, 3574, 3564, 3532, 3591, 3588],
      "WindowCenter": [759.0, 758.0, 757.0, 757.0, 755.0, 754.0, 751.0, 750.0, 750.0, 750.0, 750.0, 753.0, 754.0, 756.0, 756.0, 755.0, 755.0, 754.0, 754.0, 753.0, 754.0, 754.0, 754.0, 754.0, 754.0, 755.0, 755.0, 755.0, 755.0, 755.0, 755.0, 754.0, 754.0, 755.0, 755.0, 756.0, 755.0, 754.0, 754.0, 752.0, 752.0, 751.0, 751.0, 752.0, 752.0, 752.0, 752.0, 753.0, 752.0, 752.0, 752.0, 752.0, 751.0, 751.0, 752.0, 752.0, 752.0, 752.0, 751.0, 752.0, 753.0, 754.0, 754.0, 754.0, 755.0, 756.0, 755.0, 755.0, 755.0, 754.0, 753.0, 753.0, 752.0, 753.0, 751.0, 751.0, 752.0, 753.0, 754.0, 754.0, 753.0, 752.0, 752.0, 752.0, 753.0, 755.0, 755.0, 755.0, 754.0, 752.0, 751.0, 751.0, 751.0, 750.0, 750.0, 751.0, 751.0, 752.0, 752.0, 751.0, 751.0, 750.0, 750.0, 751.0, 753.0, 755.0, 755.0, 755.0, 754.0, 753.0, 753.0, 752.0, 753.0, 752.0, 752.0, 752.0, 752.0, 753.0, 754.0, 754.0, 755.0, 755.0, 755.0, 755.0, 754.0, 754.0, 753.0, 753.0, 753.0, 753.0, 753.0, 752.0, 752.0, 752.0, 751.0, 751.0, 752.0, 753.0, 752.0, 752.0, 752.0, 753.0, 753.0, 752.0, 751.0, 751.0, 752.0, 752.0, 753.0, 751.0, 748.0, 747.0, 745.0, 745.0, 745.0, 751.0, 752.0, 757.0, 757.0, 754.0, 751.0, 750.0, 748.0, 749.0, 752.0, 756.0, 758.0, 758.0, 757.0, 757.0, 756.0, 757.0, 756.0, 756.0, 756.0, 756.0, 756.0, 755.0, 754.0, 753.0, 753.0, 755.0, 756.0, 757.0, 756.0, 755.0, 754.0, 754.0, 754.0, 754.0, 755.0, 756.0, 755.0, 756.0, 756.0, 756.0, 754.0, 754.0, 753.0, 753.0, 754.0, 755.0, 756.0, 756.0, 755.0, 755.0, 755.0, 755.0, 755.0, 755.0, 754.0, 753.0, 753.0, 753.0],
      "WindowWidth": [1673.0, 1669.0, 1667.0, 1663.0, 1659.0, 1655.0, 1648.0, 1645.0, 1645.0, 1644.0, 1645.0, 1651.0, 1655.0, 1662.0, 1661.0, 1659.0, 1658.0, 1655.0, 1654.0, 1654.0, 1654.0, 1656.0, 1655.0, 1656.0, 1655.0, 1657.0, 1658.0, 1659.0, 1660.0, 1659.0, 1657.0, 1656.0, 1655.0, 1657.0, 1658.0, 1661.0, 1658.0, 1657.0, 1654.0, 1650.0, 1649.0, 1648.0, 1649.0, 1649.0, 1649.0, 1649.0, 1650.0, 1652.0, 1651.0, 1650.0, 1650.0, 1650.0, 1649.0, 1648.0, 1650.0, 1650.0, 1651.0, 1650.0, 1648.0, 1650.0, 1652.0, 1656.0, 1656.0, 1655.0, 1659.0, 1661.0, 1660.0, 1659.0, 1658.0, 1655.0, 1652.0, 1652.0, 1650.0, 1651.0, 1648.0, 1647.0, 1649.0, 1652.0, 1657.0, 1656.0, 1653.0, 1651.0, 1650.0, 1651.0, 1653.0, 1659.0, 1658.0, 1658.0, 1654.0, 1650.0, 1647.0, 1646.0, 1647.0, 1645.0, 1645.0, 1646.0, 1648.0, 1648.0, 1648.0, 1648.0, 1647.0, 1644.0, 1643.0, 1648.0, 1652.0, 1658.0, 1658.0, 1658.0, 1656.0, 1654.0, 1654.0, 1650.0, 1651.0, 1650.0, 1649.0, 1649.0, 1650.0, 1654.0, 1654.0, 1656.0, 1659.0, 1659.0, 1658.0, 1658.0, 1656.0, 1654.0, 1653.0, 1652.0, 1653.0, 1651.0, 1652.0, 1649.0, 1649.0, 1648.0, 1647.0, 1648.0, 1649.0, 1651.0, 1649.0, 1649.0, 1651.0, 1652.0, 1652.0, 1649.0, 1648.0, 1647.0, 1649.0, 1650.0, 1652.0, 1648.0, 1639.0, 1635.0, 1629.0, 1630.0, 1633.0, 1648.0, 1652.0, 1665.0, 1663.0, 1655.0, 1648.0, 1643.0, 1639.0, 1642.0, 1650.0, 1660.0, 1666.0, 1668.0, 1665.0, 1662.0, 1661.0, 1664.0, 1661.0, 1661.0, 1662.0, 1659.0, 1659.0, 1659.0, 1656.0, 1653.0, 1653.0, 1658.0, 1661.0, 1663.0, 1661.0, 1659.0, 1655.0, 1655.0, 1654.0, 1655.0, 1659.0, 1659.0, 1659.0, 1660.0, 1661.0, 1661.0, 1656.0, 1654.0, 1652.0, 1653.0, 1656.0, 1659.0, 1661.0, 1660.0, 1659.0, 1657.0, 1658.0, 1658.0, 1658.0, 1657.0, 1655.0, 1653.0, 1653.0, 1652.0]
    },
    "slices": {}
  }
}