{
  "AcquisitionMatrixPE": 72,
  "AcquisitionNumber": 1,
  "AcquisitionTime": "08:57:40.432500",
  "BandwidthPerPixelPhaseEncode": 17.943,
  "BaseResolution": 96,
  "BodyPartExamined": "BRAIN",
  "CoilCombinationMethod": "Sum of Squares",
  "ConsistencyInfo": "N4_VE11C_LATEST_20160120",
  "ConversionSoftware": "dcm2niix",
  "ConversionSoftwareVersion": "v1.0.20211006",
  "DerivedVendorReportedEchoSpacing": 0.000552897,
  "DeviceSerialNumber": "166011",
  "EchoTime": 0.03,
  "EchoTrainLength": 58,
  "EffectiveEchoSpacing": 0.000580542,
  "FlipAngle": 62,
  "ImageOrientationPatientDICOM": [0.999867, -0.0133987, -0.00931608, 0.0106455, 0.9682, -0.249951],
  "ImageType": [
    "ORIGINAL",
    "PRIMARY",
    "M",
    "ND",
    "MOSAIC"
],
  "ImagingFrequency": 123.259,
  "InPlanePhaseEncodingDirectionDICOM": "COL",
  "InstitutionAddress": "West 130th Street 610,NY,NYC,US,10025",
  "InstitutionName": "MBBI",
  "MRAcquisitionType": "2D",
  "MagneticFieldStrength": 3,
  "Manufacturer": "Siemens",
  "ManufacturersModelName": "Prisma",
  "Modality": "MR",
  "MultibandAccelerationFactor": 3,
  "PartialFourier": 0.75,
  "PatientPosition": "HFS",
  "PercentPhaseFOV": 100,
  "PercentSampling": 75,
  "PhaseEncodingDirection": "j-",
  "PhaseEncodingSteps": 58,
  "PhaseOversampling": 0.05,
  "PhaseResolution": 0.75,
  "PixelBandwidth": 2265,
  "ProcedureStepDescription": "White^Word_recognition",
  "ProtocolName": "func_vwfate_run7",
  "PulseSequenceDetails": "%SiemensSeq%\\ep2d_bold",
  "ReceiveCoilActiveElements": "HC1-7",
  "ReceiveCoilName": "HeadNeck_64",
  "ReconMatrixPE": 96,
  "RefLinesPE": 40,
  "RepetitionTime": 1.5,
  "SAR": 0.0480244,
  "ScanOptions": "PFP\\FS",
  "ScanningSequence": "EP",
  "SequenceName": "*epfid2d1_72",
  "SequenceVariant": "SK\\OSP",
  "SeriesDescription": "func_vwfate_run7",
  "SeriesNumber": 8,
  "ShimSetting": [-1160, -1346, 686, 501, -86, 177, -45, -24],
  "SliceThickness": 2,
  "SliceTiming": [1.0775, 0, 0.74, 0.0675, 0.8075, 0.135, 0.875, 0.2025, 0.9425, 0.27, 1.01, 0.405, 1.145, 0.4725, 1.2125, 0.5375, 1.2775, 0.605, 1.345, 0.6725, 1.4125, 0.3375, 1.0775, 0, 0.74, 0.0675, 0.8075, 0.135, 0.875, 0.2025, 0.9425, 0.27, 1.01, 0.405, 1.145, 0.4725, 1.2125, 0.5375, 1.2775, 0.605, 1.345, 0.6725, 1.4125, 0.3375, 1.0775, 0, 0.74, 0.0675, 0.8075, 0.135, 0.875, 0.2025, 0.9425, 0.27, 1.01, 0.405, 1.145, 0.4725, 1.2125, 0.5375, 1.2775, 0.605, 1.345, 0.6725, 1.4125, 0.3375],
  "SoftwareVersions": "syngo MR E11",
  "SpacingBetweenSlices": 2,
  "StationName": "AWP166011",
  "TaskName": "vwfate",
  "TotalReadoutTime": 0.0551515,
  "TxRefAmp": 226.123,
  "dcmmeta_affine": [
    [-1.9997336864471436, 0.02129092812538147, -0.024737687781453133, 96.25889587402344],
    [0.026797372847795486, 1.936400055885315, -0.4996366500854492, -64.47509765625],
    [-0.01863216608762741, 0.49990156292915344, 1.9364274740219116, -84.03739929199219],
    [0.0, 0.0, 0.0, 1.0]
],
  "dcmmeta_reorient_transform": [
    [0.0, -1.0, 0.0, 95.0],
    [1.0, 0.0, 0.0, 0.0],
    [0.0, 0.0, 1.0, 0.0],
    [0.0, 0.0, 0.0, 1.0]
],
  "dcmmeta_shape": [96, 96, 66, 164],
  "dcmmeta_slice_dim": 2,
  "dcmmeta_version": 0.6,
  "global": {
    "const": {
      "AcquisitionMatrix": [96, 0, 0, 72],
      "AngioFlag": "N",
      "BitsAllocated": 16,
      "BitsStored": 12,
      "BodyPartExamined": "BRAIN",
      "Columns": 864,
      "EchoNumbers": 1,
      "EchoTime": 30.0,
      "EchoTrainLength": 58,
      "FlipAngle": 62.0,
      "HighBit": 11,
      "ImageOrientationPatient": [0.99986683403485, -0.0133986861909, -0.0093160831618, 0.01064546367403, 0.96820002263558, -0.2499507756972],
      "ImagePositionPatient": [-874.35497600859, -852.77033421089, 162.57019901923],
      "ImageType": [
        "ORIGINAL",
        "PRIMARY",
        "M",
        "ND",
        "MOSAIC"
],
      "ImagedNucleus": "1H",
      "ImagingFrequency": 123.259486,
      "InPlanePhaseEncodingDirection": "COL",
      "MRAcquisitionType": "2D",
      "MagneticFieldStrength": 3.0,
      "Manufacturer": "SIEMENS",
      "ManufacturerModelName": "Prisma",
      "Modality": "MR",
      "NumberOfAverages": 1.0,
      "NumberOfPhaseEncodingSteps": 58,
      "PercentPhaseFieldOfView": 100.0,
      "PercentSampling": 75.0,
      "PerformedProcedureStepStartTime": "082814.837000",
      "PhotometricInterpretation": "MONOCHROME2",
      "PixelBandwidth": 2265.0,
      "PixelRepresentation": 0,
      "PixelSpacing": [2.0, 2.0],
      "ProtocolName": "func_vwfate_run7",
      "RepetitionTime": 1500.0,
      "Rows": 864,
      "SAR": 0.04802437708027,
      "SamplesPerPixel": 1,
      "ScanOptions": [
        "PFP",
        "FS"
],
      "ScanningSequence": "EP",
      "SequenceName": "*epfid2d1_72",
      "SequenceVariant": [
        "SK",
        "OSP"
],
      "SeriesDescription": "func_vwfate_run7",
      "SeriesNumber": 8,
      "SeriesTime": "085820.302000",
      "SliceLocation": -66.449711474887,
      "SliceThickness": 2.0,
      "SmallestImagePixelValue": 0,
      "SoftwareVersions": "syngo MR E11",
      "SpacingBetweenSlices": 2.0000000315333,
      "SpecificCharacterSet": "ISO_IR 100",
      "StudyID": "2",
      "StudyTime": "082814.776000",
      "TransmitCoilName": "Body",
      "VariableFlipAngleFlag": "N",
      "WindowCenterWidthExplanation": "Algo1",
      "dBdt": 0.0},
    "slices": {}
  },
  "time": {
    "samples": {
      "AcquisitionNumber": [1, 2, 3, 4, 5, 6, 7, 8, 9, 10, 11, 12, 13, 14, 15, 16, 17, 18, 19, 20, 21, 22, 23, 24, 25, 26, 27, 28, 29, 30, 31, 32, 33, 34, 35, 36, 37, 38, 39, 40, 41, 42, 43, 44, 45, 46, 47, 48, 49, 50, 51, 52, 53, 54, 55, 56, 57, 58, 59, 60, 61, 62, 63, 64, 65, 66, 67, 68, 69, 70, 71, 72, 73, 74, 75, 76, 77, 78, 79, 80, 81, 82, 83, 84, 85, 86, 87, 88, 89, 90, 91, 92, 93, 94, 95, 96, 97, 98, 99, 100, 101, 102, 103, 104, 105, 106, 107, 108, 109, 110, 111, 112, 113, 114, 115, 116, 117, 118, 119, 120, 121, 122, 123, 124, 125, 126, 127, 128, 129, 130, 131, 132, 133, 134, 135, 136, 137, 138, 139, 140, 141, 142, 143, 144, 145, 146, 147, 148, 149, 150, 151, 152, 153, 154, 155, 156, 157, 158, 159, 160, 161, 162, 163, 164],
      "AcquisitionTime": ["085740.432500", "085741.932500", "085743.432500", "085744.932500", "085746.432500", "085747.932500", "085749.432500", "085750.932500", "085752.432500", "085753.932500", "085755.432500", "085756.932500", "085758.432500", "085759.932500", "085801.432500", "085802.932500", "085804.432500", "085805.932500", "085807.432500", "085808.932500", "085810.432500", "085811.932500", "085813.432500", "085814.932500", "085816.432500", "085817.932500", "085819.432500", "085820.932500", "085822.432500", "085823.932500", "085825.432500", "085826.932500", "085828.432500", "085829.932500", "085831.432500", "085832.932500", "085834.432500", "085835.932500", "085837.432500", "085838.932500", "085840.432500", "085841.932500", "085843.432500", "085844.932500", "085846.432500", "085847.932500", "085849.432500", "085850.932500", "085852.432500", "085853.932500", "085855.432500", "085856.932500", "085858.432500", "085859.932500", "085901.432500", "085902.932500", "085904.432500", "085905.932500", "085907.432500", "085908.932500", "085910.432500", "085911.932500", "085913.432500", "085914.932500", "085916.432500", "085917.932500", "085919.432500", "085920.932500", "085922.432500", "085923.932500", "085925.432500", "085926.932500", "085928.432500", "085929.932500", "085931.432500", "085932.932500", "085934.432500", "085935.932500", "085937.432500", "085938.932500", "085940.432500", "085941.932500", "085943.432500", "085944.932500", "085946.432500", "085947.932500", "085949.432500", "085950.932500", "085952.432500", "085953.932500", "085955.432500", "085956.932500", "085958.432500", "085959.932500", "090001.432500", "090002.932500", "090004.432500", "090005.932500", "090007.432500", "090008.932500", "090010.432500", "090011.932500", "090013.432500", "090014.932500", "090016.432500", "090017.932500", "090019.432500", "090020.932500", "090022.432500", "090023.932500", "090025.432500", "090026.932500", "090028.432500", "090029.932500", "090031.432500", "090032.932500", "090034.432500", "090035.932500", "090037.432500", "090038.932500", "090040.432500", "090041.932500", "090043.432500", "090044.932500", "090046.432500", "090047.932500", "090049.432500", "090050.932500", "090052.432500", "090053.932500", "090055.432500", "090056.932500", "090058.432500", "090059.932500", "090101.432500", "090102.932500", "090104.432500", "090105.932500", "090107.432500", "090108.932500", "090110.432500", "090111.932500", "090113.432500", "090114.932500", "090116.432500", "090117.932500", "090119.432500", "090120.932500", "090122.432500", "090123.932500", "090125.432500", "090126.932500", "090128.432500", "090129.932500", "090131.432500", "090132.932500", "090134.432500", "090135.932500", "090137.432500", "090138.932500", "090140.432500", "090141.932500", "090143.432500", "090144.932500"],
      "ContentTime": ["085820.306000", "085820.310000", "085820.313000", "085820.316000", "085820.329000", "085820.345000", "085820.348000", "085820.351000", "085820.354000", "085820.357000", "085820.360000", "085820.370000", "085820.373000", "085820.376000", "085820.379000", "085820.382000", "085820.386000", "085820.390000", "085820.393000", "085820.396000", "085820.399000", "085820.402000", "085820.405000", "085820.411000", "085820.414000", "085820.417000", "085900.300000", "085900.303000", "085900.306000", "085900.310000", "085900.313000", "085900.316000", "085900.319000", "085900.322000", "085900.325000", "085900.328000", "085900.331000", "085900.334000", "085900.337000", "085900.340000", "085900.343000", "085900.346000", "085900.349000", "085900.352000", "085900.356000", "085900.359000", "085900.362000", "085900.365000", "085900.380000", "085900.383000", "085900.386000", "085900.389000", "085900.392000", "085940.300000", "085940.303000", "085940.306000", "085940.310000", "085940.313000", "085940.316000", "085940.319000", "085940.322000", "085940.325000", "085940.328000", "085940.331000", "085940.334000", "085940.337000", "085940.340000", "085940.343000", "085940.346000", "085940.349000", "085940.352000", "085940.355000", "085940.358000", "085940.361000", "085940.365000", "085940.368000", "085940.371000", "085940.374000", "085940.377000", "085940.380000", "090020.301000", "090020.304000", "090020.307000", "090020.310000", "090020.313000", "090020.317000", "090020.320000", "090020.323000", "090020.326000", "090020.329000", "090020.332000", "090020.335000", "090020.338000", "090020.341000", "090020.344000", "090020.347000", "090020.350000", "090020.353000", "090020.356000", "090020.359000", "090020.362000", "090020.365000", "090020.369000", "090020.372000", "090020.375000", "090020.378000", "090100.300000", "090100.303000", "090100.306000", "090100.323000", "090100.326000", "090100.329000", "090100.332000", "090100.335000", "090100.338000", "090100.341000", "090100.344000", "090100.347000", "090100.350000", "090100.353000", "090100.357000", "090100.360000", "090100.366000", "090100.369000", "090100.372000", "090100.375000", "090100.378000", "090100.381000", "090100.384000", "090100.387000", "090100.390000", "090100.393000", "090100.397000", "090140.300000", "090140.303000", "090140.306000", "090140.309000", "090140.312000", "090140.316000", "090140.319000", "090140.322000", "090140.325000", "090140.328000", "090140.331000", "090140.334000", "090140.338000", "090140.341000", "090140.344000", "090140.347000", "090140.350000", "090140.353000", "090140.356000", "090140.359000", "090140.362000", "090140.365000", "090140.368000", "090140.371000", "090140.374000", "090140.378000", "090140.381000", "090146.161000", "090146.165000", "090146.168000", "090146.172000"],
      "InstanceCreationTime": ["085820.306000", "085820.310000", "085820.313000", "085820.316000", "085820.329000", "085820.345000", "085820.348000", "085820.351000", "085820.354000", "085820.357000", "085820.360000", "085820.370000", "085820.373000", "085820.376000", "085820.379000", "085820.382000", "085820.386000", "085820.390000", "085820.393000", "085820.396000", "085820.399000", "085820.402000", "085820.405000", "085820.411000", "085820.414000", "085820.417000", "085900.300000", "085900.303000", "085900.306000", "085900.310000", "085900.313000", "085900.316000", "085900.319000", "085900.322000", "085900.325000", "085900.328000", "085900.331000", "085900.334000", "085900.337000", "085900.340000", "085900.343000", "085900.346000", "085900.349000", "085900.352000", "085900.356000", "085900.359000", "085900.362000", "085900.365000", "085900.380000", "085900.383000", "085900.386000", "085900.389000", "085900.392000", "085940.300000", "085940.303000", "085940.306000", "085940.310000", "085940.313000", "085940.316000", "085940.319000", "085940.322000", "085940.325000", "085940.328000", "085940.331000", "085940.334000", "085940.337000", "085940.340000", "085940.343000", "085940.346000", "085940.349000", "085940.352000", "085940.355000", "085940.358000", "085940.361000", "085940.365000", "085940.368000", "085940.371000", "085940.374000", "085940.377000", "085940.380000", "090020.301000", "090020.304000", "090020.307000", "090020.310000", "090020.313000", "090020.317000", "090020.320000", "090020.323000", "090020.326000", "090020.329000", "090020.332000", "090020.335000", "090020.338000", "090020.341000", "090020.344000", "090020.347000", "090020.350000", "090020.353000", "090020.356000", "090020.359000", "090020.362000", "090020.365000", "090020.369000", "090020.372000", "090020.375000", "090020.378000", "090100.300000", "090100.303000", "090100.306000", "090100.323000", "090100.326000", "090100.329000", "090100.332000", "090100.335000", "090100.338000", "090100.341000", "090100.344000", "090100.347000", "090100.350000", "090100.353000", "090100.357000", "090100.360000", "090100.366000", "090100.369000", "090100.372000", "090100.375000", "090100.378000", "090100.381000", "090100.384000", "090100.387000", "090100.390000", "090100.393000", "090100.397000", "090140.300000", "090140.303000", "090140.306000", "090140.309000", "090140.312000", "090140.316000", "090140.319000", "090140.322000", "090140.325000", "090140.328000", "090140.331000", "090140.334000", "090140.338000", "090140.341000", "090140.344000", "090140.347000", "090140.350000", "090140.353000", "090140.356000", "090140.359000", "090140.362000", "090140.365000", "090140.368000", "090140.371000", "090140.374000", "090140.378000", "090140.381000", "090146.161000", "090146.165000", "090146.168000", "090146.172000"],
      "InstanceNumber": [1, 2, 3, 4, 5, 6, 7, 8, 9, 10, 11, 12, 13, 14, 15, 16, 17, 18, 19, 20, 21, 22, 23, 24, 25, 26, 27, 28, 29, 30, 31, 32, 33, 34, 35, 36, 37, 38, 39, 40, 41, 42, 43, 44, 45, 46, 47, 48, 49, 50, 51, 52, 53, 54, 55, 56, 57, 58, 59, 60, 61, 62, 63, 64, 65, 66, 67, 68, 69, 70, 71, 72, 73, 74, 75, 76, 77, 78, 79, 80, 81, 82, 83, 84, 85, 86, 87, 88, 89, 90, 91, 92, 93, 94, 95, 96, 97, 98, 99, 100, 101, 102, 103, 104, 105, 106, 107, 108, 109, 110, 111, 112, 113, 114, 115, 116, 117, 118, 119, 120, 121, 122, 123, 124, 125, 126, 127, 128, 129, 130, 131, 132, 133, 134, 135, 136, 137, 138, 139, 140, 141, 142, 143, 144, 145, 146, 147, 148, 149, 150, 151, 152, 153, 154, 155, 156, 157, 158, 159, 160, 161, 162, 163, 164],
      "LargestImagePixelValue": [3064, 2984, 2966, 2918, 2931, 2905, 2917, 2928, 2927, 2907, 2929, 2889, 2905, 2908, 2917, 2905, 2939, 2946, 2929, 2936, 2934, 2930, 2928, 2933, 2929, 2930, 2915, 2934, 2908, 2917, 2933, 2934, 2928, 2927, 2934, 2933, 2930, 2926, 2954, 2947, 2931, 2930, 2931, 2920, 2930, 2939, 2925, 2938, 2928, 2929, 2918, 2935, 2950, 2942, 2917, 2929, 2941, 2931, 2933, 2933, 2948, 2933, 2921, 2929, 2926, 2915, 2940, 2920, 2917, 2920, 2921, 2927, 2928, 2923, 2927, 2907, 2930, 2919, 2940, 2929, 2925, 2945, 2920, 2914, 2936, 2949, 2929, 2930, 2939, 2929, 2923, 2939, 2934, 2933, 2913, 2928, 2922, 2932, 2920, 2930, 2931, 2917, 2924, 2909, 2918, 2935, 2924, 2926, 2915, 2947, 2933, 2927, 2947, 2915, 2939, 2919, 2922, 2921, 2921, 2941, 2926, 2930, 2921, 2926, 2920, 2893, 2913, 2930, 2928, 2924, 2913, 2928, 2934, 2930, 2911, 2939, 2915, 2930, 2930, 2922, 2919, 2923, 2918, 2919, 2917, 2913, 2911, 2925, 2916, 2921, 2930, 2921, 2903, 2918, 2898, 2914, 2920, 2909, 2912, 2903, 2893, 2901, 2903, 2929],
      "WindowCenter": [757.0, 754.0, 752.0, 751.0, 751.0, 750.0, 751.0, 751.0, 752.0, 752.0, 752.0, 751.0, 751.0, 751.0, 751.0, 751.0, 751.0, 751.0, 751.0, 752.0, 752.0, 752.0, 752.0, 753.0, 752.0, 752.0, 752.0, 752.0, 752.0, 753.0, 754.0, 755.0, 754.0, 754.0, 753.0, 753.0, 752.0, 752.0, 753.0, 754.0, 754.0, 754.0, 753.0, 752.0, 752.0, 752.0, 752.0, 753.0, 753.0, 752.0, 752.0, 752.0, 752.0, 752.0, 752.0, 752.0, 753.0, 754.0, 754.0, 752.0, 751.0, 751.0, 751.0, 750.0, 751.0, 750.0, 750.0, 749.0, 749.0, 750.0, 751.0, 752.0, 753.0, 752.0, 750.0, 750.0, 750.0, 750.0, 751.0, 751.0, 750.0, 750.0, 749.0, 750.0, 752.0, 754.0, 753.0, 752.0, 751.0, 751.0, 751.0, 751.0, 752.0, 751.0, 751.0, 750.0, 750.0, 751.0, 751.0, 751.0, 751.0, 751.0, 751.0, 750.0, 751.0, 751.0, 751.0, 750.0, 750.0, 751.0, 751.0, 752.0, 752.0, 752.0, 752.0, 751.0, 751.0, 751.0, 751.0, 752.0, 752.0, 752.0, 752.0, 751.0, 750.0, 749.0, 750.0, 751.0, 751.0, 751.0, 751.0, 750.0, 750.0, 749.0, 750.0, 750.0, 751.0, 751.0, 749.0, 748.0, 747.0, 747.0, 748.0, 748.0, 749.0, 748.0, 748.0, 749.0, 749.0, 750.0, 750.0, 749.0, 748.0, 748.0, 748.0, 749.0, 749.0, 750.0, 749.0, 747.0, 747.0, 747.0, 749.0, 750.0],
      "WindowWidth": [1623.0, 1616.0, 1612.0, 1609.0, 1608.0, 1607.0, 1608.0, 1609.0, 1610.0, 1610.0, 1610.0, 1609.0, 1609.0, 1609.0, 1608.0, 1608.0, 1608.0, 1608.0, 1608.0, 1610.0, 1610.0, 1611.0, 1611.0, 1614.0, 1611.0, 1611.0, 1610.0, 1610.0, 1611.0, 1614.0, 1616.0, 1617.0, 1617.0, 1616.0, 1614.0, 1612.0, 1612.0, 1610.0, 1613.0, 1615.0, 1617.0, 1615.0, 1614.0, 1610.0, 1610.0, 1610.0, 1611.0, 1613.0, 1613.0, 1612.0, 1611.0, 1611.0, 1611.0, 1610.0, 1611.0, 1610.0, 1613.0, 1614.0, 1614.0, 1610.0, 1608.0, 1606.0, 1607.0, 1606.0, 1607.0, 1606.0, 1604.0, 1603.0, 1602.0, 1605.0, 1609.0, 1611.0, 1612.0, 1610.0, 1606.0, 1605.0, 1604.0, 1605.0, 1607.0, 1607.0, 1605.0, 1604.0, 1602.0, 1605.0, 1610.0, 1615.0, 1613.0, 1611.0, 1609.0, 1608.0, 1607.0, 1608.0, 1609.0, 1608.0, 1607.0, 1606.0, 1605.0, 1606.0, 1607.0, 1607.0, 1607.0, 1607.0, 1607.0, 1606.0, 1607.0, 1608.0, 1607.0, 1605.0, 1604.0, 1606.0, 1608.0, 1610.0, 1610.0, 1609.0, 1609.0, 1607.0, 1607.0, 1607.0, 1609.0, 1610.0, 1610.0, 1611.0, 1609.0, 1606.0, 1604.0, 1604.0, 1606.0, 1608.0, 1608.0, 1608.0, 1606.0, 1605.0, 1605.0, 1604.0, 1605.0, 1606.0, 1606.0, 1607.0, 1603.0, 1600.0, 1598.0, 1598.0, 1599.0, 1600.0, 1602.0, 1601.0, 1600.0, 1601.0, 1603.0, 1605.0, 1604.0, 1602.0, 1600.0, 1600.0, 1599.0, 1602.0, 1603.0, 1604.0, 1601.0, 1598.0, 1596.0, 1598.0, 1602.0, 1604.0]
    },
    "slices": {}
  }
}