{
  "AcquisitionMatrixPE": 72,
  "AcquisitionNumber": 1,
  "AcquisitionTime": "09:22:10.735000",
  "BandwidthPerPixelPhaseEncode": 17.943,
  "BaseResolution": 96,
  "BodyPartExamined": "BRAIN",
  "CoilCombinationMethod": "Sum of Squares",
  "ConsistencyInfo": "N4_VE11C_LATEST_20160120",
  "ConversionSoftware": "dcm2niix",
  "ConversionSoftwareVersion": "v1.0.20211006",
  "DerivedVendorReportedEchoSpacing": 0.000552897,
  "DeviceSerialNumber": "166011",
  "EchoTime": 0.03,
  "EchoTrainLength": 58,
  "EffectiveEchoSpacing": 0.000580542,
  "FlipAngle": 62,
  "ImageOrientationPatientDICOM": [0.999867, -0.0133987, -0.00931608, 0.0106455, 0.9682, -0.249951],
  "ImageType": [
    "ORIGINAL",
    "PRIMARY",
    "M",
    "ND",
    "MOSAIC"
],
  "ImagingFrequency": 123.259,
  "InPlanePhaseEncodingDirectionDICOM": "COL",
  "InstitutionAddress": "West 130th Street 610,NY,NYC,US,10025",
  "InstitutionName": "MBBI",
  "MRAcquisitionType": "2D",
  "MagneticFieldStrength": 3,
  "Manufacturer": "Siemens",
  "ManufacturersModelName": "Prisma",
  "Modality": "MR",
  "MultibandAccelerationFactor": 3,
  "PartialFourier": 0.75,
  "PatientPosition": "HFS",
  "PercentPhaseFOV": 100,
  "PercentSampling": 75,
  "PhaseEncodingDirection": "j-",
  "PhaseEncodingSteps": 58,
  "PhaseOversampling": 0.05,
  "PhaseResolution": 0.75,
  "PixelBandwidth": 2265,
  "ProcedureStepDescription": "White^Word_recognition",
  "ProtocolName": "func_vwfate_run10",
  "PulseSequenceDetails": "%SiemensSeq%\\ep2d_bold",
  "ReceiveCoilActiveElements": "HC1-7",
  "ReceiveCoilName": "HeadNeck_64",
  "ReconMatrixPE": 96,
  "RefLinesPE": 40,
  "RepetitionTime": 1.5,
  "SAR": 0.0480244,
  "ScanOptions": "PFP\\FS",
  "ScanningSequence": "EP",
  "SequenceName": "*epfid2d1_72",
  "SequenceVariant": "SK\\OSP",
  "SeriesDescription": "func_vwfate_run10",
  "SeriesNumber": 12,
  "ShimSetting": [-1160, -1346, 686, 501, -86, 177, -45, -24],
  "SliceThickness": 2,
  "SliceTiming": [1.075, 0, 0.74, 0.0675, 0.8075, 0.135, 0.875, 0.2025, 0.9425, 0.27, 1.01, 0.4025, 1.1425, 0.47, 1.21, 0.5375, 1.2775, 0.605, 1.345, 0.6725, 1.4125, 0.335, 1.075, 0, 0.74, 0.0675, 0.8075, 0.135, 0.875, 0.2025, 0.9425, 0.27, 1.01, 0.4025, 1.1425, 0.47, 1.21, 0.5375, 1.2775, 0.605, 1.345, 0.6725, 1.4125, 0.335, 1.075, 0, 0.74, 0.0675, 0.8075, 0.135, 0.875, 0.2025, 0.9425, 0.27, 1.01, 0.4025, 1.1425, 0.47, 1.21, 0.5375, 1.2775, 0.605, 1.345, 0.6725, 1.4125, 0.335],
  "SoftwareVersions": "syngo MR E11",
  "SpacingBetweenSlices": 2,
  "StationName": "AWP166011",
  "TaskName": "vwfate",
  "TotalReadoutTime": 0.0551515,
  "TxRefAmp": 226.123,
  "dcmmeta_affine": [
    [-1.9997336864471436, 0.02129092812538147, -0.024737687781453133, 96.25889587402344],
    [0.026797372847795486, 1.936400055885315, -0.4996366500854492, -64.47509765625],
    [-0.01863216608762741, 0.49990156292915344, 1.9364274740219116, -84.03739929199219],
    [0.0, 0.0, 0.0, 1.0]
],
  "dcmmeta_reorient_transform": [
    [0.0, -1.0, 0.0, 95.0],
    [1.0, 0.0, 0.0, 0.0],
    [0.0, 0.0, 1.0, 0.0],
    [0.0, 0.0, 0.0, 1.0]
],
  "dcmmeta_shape": [96, 96, 66, 164],
  "dcmmeta_slice_dim": 2,
  "dcmmeta_version": 0.6,
  "global": {
    "const": {
      "AcquisitionMatrix": [96, 0, 0, 72],
      "AngioFlag": "N",
      "BitsAllocated": 16,
      "BitsStored": 12,
      "BodyPartExamined": "BRAIN",
      "Columns": 864,
      "EchoNumbers": 1,
      "EchoTime": 30.0,
      "EchoTrainLength": 58,
      "FlipAngle": 62.0,
      "HighBit": 11,
      "ImageOrientationPatient": [0.99986683403485, -0.0133986861909, -0.0093160831618, 0.01064546367403, 0.96820002263558, -0.2499507756972],
      "ImagePositionPatient": [-874.35497600859, -852.77033421089, 162.57019901923],
      "ImageType": [
        "ORIGINAL",
        "PRIMARY",
        "M",
        "ND",
        "MOSAIC"
],
      "ImagedNucleus": "1H",
      "ImagingFrequency": 123.2595,
      "InPlanePhaseEncodingDirection": "COL",
      "MRAcquisitionType": "2D",
      "MagneticFieldStrength": 3.0,
      "Manufacturer": "SIEMENS",
      "ManufacturerModelName": "Prisma",
      "Modality": "MR",
      "NumberOfAverages": 1.0,
      "NumberOfPhaseEncodingSteps": 58,
      "PercentPhaseFieldOfView": 100.0,
      "PercentSampling": 75.0,
      "PerformedProcedureStepStartTime": "082814.837000",
      "PhotometricInterpretation": "MONOCHROME2",
      "PixelBandwidth": 2265.0,
      "PixelRepresentation": 0,
      "PixelSpacing": [2.0, 2.0],
      "ProtocolName": "func_vwfate_run10",
      "RepetitionTime": 1500.0,
      "Rows": 864,
      "SAR": 0.04802437708027,
      "SamplesPerPixel": 1,
      "ScanOptions": [
        "PFP",
        "FS"
],
      "ScanningSequence": "EP",
      "SequenceName": "*epfid2d1_72",
      "SequenceVariant": [
        "SK",
        "OSP"
],
      "SeriesDescription": "func_vwfate_run10",
      "SeriesNumber": 12,
      "SeriesTime": "092232.296000",
      "SliceLocation": -66.449711474887,
      "SliceThickness": 2.0,
      "SmallestImagePixelValue": 0,
      "SoftwareVersions": "syngo MR E11",
      "SpacingBetweenSlices": 2.0000000315333,
      "SpecificCharacterSet": "ISO_IR 100",
      "StudyID": "2",
      "StudyTime": "082814.776000",
      "TransmitCoilName": "Body",
      "VariableFlipAngleFlag": "N",
      "WindowCenterWidthExplanation": "Algo1",
      "dBdt": 0.0},
    "slices": {}
  },
  "time": {
    "samples": {
      "AcquisitionNumber": [1, 2, 3, 4, 5, 6, 7, 8, 9, 10, 11, 12, 13, 14, 15, 16, 17, 18, 19, 20, 21, 22, 23, 24, 25, 26, 27, 28, 29, 30, 31, 32, 33, 34, 35, 36, 37, 38, 39, 40, 41, 42, 43, 44, 45, 46, 47, 48, 49, 50, 51, 52, 53, 54, 55, 56, 57, 58, 59, 60, 61, 62, 63, 64, 65, 66, 67, 68, 69, 70, 71, 72, 73, 74, 75, 76, 77, 78, 79, 80, 81, 82, 83, 84, 85, 86, 87, 88, 89, 90, 91, 92, 93, 94, 95, 96, 97, 98, 99, 100, 101, 102, 103, 104, 105, 106, 107, 108, 109, 110, 111, 112, 113, 114, 115, 116, 117, 118, 119, 120, 121, 122, 123, 124, 125, 126, 127, 128, 129, 130, 131, 132, 133, 134, 135, 136, 137, 138, 139, 140, 141, 142, 143, 144, 145, 146, 147, 148, 149, 150, 151, 152, 153, 154, 155, 156, 157, 158, 159, 160, 161, 162, 163, 164],
      "AcquisitionTime": ["092210.735000", "092212.235000", "092213.735000", "092215.235000", "092216.735000", "092218.235000", "092219.735000", "092221.235000", "092222.735000", "092224.235000", "092225.735000", "092227.235000", "092228.735000", "092230.235000", "092231.735000", "092233.235000", "092234.735000", "092236.235000", "092237.735000", "092239.235000", "092240.735000", "092242.235000", "092243.735000", "092245.235000", "092246.735000", "092248.235000", "092249.735000", "092251.235000", "092252.735000", "092254.235000", "092255.735000", "092257.235000", "092258.735000", "092300.235000", "092301.735000", "092303.235000", "092304.735000", "092306.235000", "092307.735000", "092309.235000", "092310.735000", "092312.235000", "092313.735000", "092315.235000", "092316.735000", "092318.235000", "092319.735000", "092321.235000", "092322.735000", "092324.235000", "092325.735000", "092327.235000", "092328.735000", "092330.235000", "092331.735000", "092333.235000", "092334.735000", "092336.235000", "092337.735000", "092339.235000", "092340.735000", "092342.235000", "092343.735000", "092345.235000", "092346.735000", "092348.235000", "092349.735000", "092351.235000", "092352.735000", "092354.235000", "092355.735000", "092357.235000", "092358.735000", "092400.235000", "092401.735000", "092403.235000", "092404.735000", "092406.235000", "092407.735000", "092409.235000", "092410.735000", "092412.235000", "092413.735000", "092415.235000", "092416.735000", "092418.235000", "092419.735000", "092421.235000", "092422.735000", "092424.235000", "092425.735000", "092427.235000", "092428.735000", "092430.235000", "092431.735000", "092433.235000", "092434.735000", "092436.235000", "092437.735000", "092439.235000", "092440.735000", "092442.235000", "092443.735000", "092445.235000", "092446.735000", "092448.235000", "092449.735000", "092451.235000", "092452.735000", "092454.235000", "092455.735000", "092457.235000", "092458.735000", "092500.235000", "092501.735000", "092503.235000", "092504.735000", "092506.235000", "092507.735000", "092509.235000", "092510.735000", "092512.235000", "092513.735000", "092515.235000", "092516.735000", "092518.235000", "092519.735000", "092521.235000", "092522.735000", "092524.235000", "092525.735000", "092527.235000", "092528.735000", "092530.235000", "092531.735000", "092533.235000", "092534.735000", "092536.235000", "092537.735000", "092539.235000", "092540.735000", "092542.235000", "092543.735000", "092545.235000", "092546.735000", "092548.235000", "092549.735000", "092551.235000", "092552.735000", "092554.235000", "092555.735000", "092557.235000", "092558.735000", "092600.235000", "092601.735000", "092603.235000", "092604.735000", "092606.235000", "092607.735000", "092609.235000", "092610.735000", "092612.235000", "092613.735000", "092615.235000"],
      "ContentTime": ["092232.300000", "092232.304000", "092232.317000", "092232.320000", "092232.323000", "092232.326000", "092232.329000", "092232.332000", "092232.335000", "092232.338000", "092232.341000", "092232.344000", "092232.348000", "092232.351000", "092312.294000", "092312.298000", "092312.301000", "092312.304000", "092312.307000", "092312.310000", "092312.313000", "092312.316000", "092312.319000", "092312.322000", "092312.340000", "092312.343000", "092312.346000", "092312.350000", "092312.353000", "092312.356000", "092312.359000", "092312.362000", "092312.365000", "092312.368000", "092312.371000", "092312.374000", "092312.377000", "092312.380000", "092312.383000", "092312.386000", "092312.389000", "092352.294000", "092352.297000", "092352.310000", "092352.313000", "092352.316000", "092352.319000", "092352.323000", "092352.326000", "092352.329000", "092352.332000", "092352.335000", "092352.340000", "092352.343000", "092352.346000", "092352.349000", "092352.352000", "092352.355000", "092352.358000", "092352.361000", "092352.364000", "092352.367000", "092352.370000", "092352.373000", "092352.376000", "092352.379000", "092352.382000", "092432.295000", "092432.298000", "092432.301000", "092432.304000", "092432.307000", "092432.311000", "092432.314000", "092432.317000", "092432.320000", "092432.323000", "092432.326000", "092432.329000", "092432.332000", "092432.335000", "092432.338000", "092432.341000", "092432.344000", "092432.347000", "092432.350000", "092432.353000", "092432.356000", "092432.359000", "092432.362000", "092432.365000", "092432.368000", "092432.371000", "092432.374000", "092512.294000", "092512.297000", "092512.300000", "092512.303000", "092512.306000", "092512.313000", "092512.316000", "092512.318000", "092512.322000", "092512.325000", "092512.328000", "092512.331000", "092512.334000", "092512.337000", "092512.340000", "092512.343000", "092512.346000", "092512.349000", "092512.352000", "092512.355000", "092512.358000", "092512.361000", "092512.364000", "092512.367000", "092512.370000", "092512.373000", "092512.376000", "092552.294000", "092552.297000", "092552.300000", "092552.304000", "092552.307000", "092552.310000", "092552.313000", "092552.316000", "092552.319000", "092552.322000", "092552.325000", "092552.328000", "092552.331000", "092552.334000", "092552.337000", "092552.340000", "092552.343000", "092552.346000", "092552.357000", "092552.360000", "092552.363000", "092552.366000", "092552.369000", "092552.372000", "092552.375000", "092552.378000", "092616.724000", "092616.728000", "092616.732000", "092616.735000", "092616.741000", "092616.745000", "092616.748000", "092616.752000", "092616.755000", "092616.758000", "092616.762000", "092616.765000", "092616.768000", "092616.771000", "092616.774000", "092616.777000", "092616.781000"],
      "InstanceCreationTime": ["092232.300000", "092232.304000", "092232.317000", "092232.320000", "092232.323000", "092232.326000", "092232.329000", "092232.332000", "092232.335000", "092232.338000", "092232.341000", "092232.344000", "092232.348000", "092232.351000", "092312.294000", "092312.298000", "092312.301000", "092312.304000", "092312.307000", "092312.310000", "092312.313000", "092312.316000", "092312.319000", "092312.322000", "092312.340000", "092312.343000", "092312.346000", "092312.350000", "092312.353000", "092312.356000", "092312.359000", "092312.362000", "092312.365000", "092312.368000", "092312.371000", "092312.374000", "092312.377000", "092312.380000", "092312.383000", "092312.386000", "092312.389000", "092352.294000", "092352.297000", "092352.310000", "092352.313000", "092352.316000", "092352.319000", "092352.323000", "092352.326000", "092352.329000", "092352.332000", "092352.335000", "092352.340000", "092352.343000", "092352.346000", "092352.349000", "092352.352000", "092352.355000", "092352.358000", "092352.361000", "092352.364000", "092352.367000", "092352.370000", "092352.373000", "092352.376000", "092352.379000", "092352.382000", "092432.295000", "092432.298000", "092432.301000", "092432.304000", "092432.307000", "092432.311000", "092432.314000", "092432.317000", "092432.320000", "092432.323000", "092432.326000", "092432.329000", "092432.332000", "092432.335000", "092432.338000", "092432.341000", "092432.344000", "092432.347000", "092432.350000", "092432.353000", "092432.356000", "092432.359000", "092432.362000", "092432.365000", "092432.368000", "092432.371000", "092432.374000", "092512.294000", "092512.297000", "092512.300000", "092512.303000", "092512.306000", "092512.313000", "092512.316000", "092512.318000", "092512.322000", "092512.325000", "092512.328000", "092512.331000", "092512.334000", "092512.337000", "092512.340000", "092512.343000", "092512.346000", "092512.349000", "092512.352000", "092512.355000", "092512.358000", "092512.361000", "092512.364000", "092512.367000", "092512.370000", "092512.373000", "092512.376000", "092552.294000", "092552.297000", "092552.300000", "092552.304000", "092552.307000", "092552.310000", "092552.313000", "092552.316000", "092552.319000", "092552.322000", "092552.325000", "092552.328000", "092552.331000", "092552.334000", "092552.337000", "092552.340000", "092552.343000", "092552.346000", "092552.357000", "092552.360000", "092552.363000", "092552.366000", "092552.369000", "092552.372000", "092552.375000", "092552.378000", "092616.724000", "092616.728000", "092616.732000", "092616.735000", "092616.741000", "092616.745000", "092616.748000", "092616.752000", "092616.755000", "092616.758000", "092616.762000", "092616.765000", "092616.768000", "092616.771000", "092616.774000", "092616.777000", "092616.781000"],
      "InstanceNumber": [1, 2, 3, 4, 5, 6, 7, 8, 9, 10, 11, 12, 13, 14, 15, 16, 17, 18, 19, 20, 21, 22, 23, 24, 25, 26, 27, 28, 29, 30, 31, 32, 33, 34, 35, 36, 37, 38, 39, 40, 41, 42, 43, 44, 45, 46, 47, 48, 49, 50, 51, 52, 53, 54, 55, 56, 57, 58, 59, 60, 61, 62, 63, 64, 65, 66, 67, 68, 69, 70, 71, 72, 73, 74, 75, 76, 77, 78, 79, 80, 81, 82, 83, 84, 85, 86, 87, 88, 89, 90, 91, 92, 93, 94, 95, 96, 97, 98, 99, 100, 101, 102, 103, 104, 105, 106, 107, 108, 109, 110, 111, 112, 113, 114, 115, 116, 117, 118, 119, 120, 121, 122, 123, 124, 125, 126, 127, 128, 129, 130, 131, 132, 133, 134, 135, 136, 137, 138, 139, 140, 141, 142, 143, 144, 145, 146, 147, 148, 149, 150, 151, 152, 153, 154, 155, 156, 157, 158, 159, 160, 161, 162, 163, 164],
      "LargestImagePixelValue": [3032, 3015, 2966, 2967, 2953, 2946, 2942, 2939, 2938, 2925, 2923, 2928, 2938, 2924, 2922, 2932, 2943, 2909, 2963, 2934, 2940, 2937, 2927, 2941, 2971, 2924, 2885, 2885, 2894, 2863, 2909, 2882, 2897, 2903, 2900, 2929, 2923, 2910, 2893, 2916, 2892, 2932, 2903, 2919, 2910, 2918, 2912, 2930, 2894, 2952, 2929, 2936, 2933, 2936, 2923, 2930, 2939, 2929, 2930, 2958, 2963, 2919, 2918, 2921, 2914, 2891, 2784, 2714, 2743, 2792, 2815, 2805, 2832, 2830, 2816, 2857, 2869, 2879, 2856, 2834, 2849, 2856, 2888, 2886, 2907, 2894, 2912, 2881, 2905, 2921, 2905, 2910, 2919, 2906, 2918, 2916, 2918, 2917, 2931, 2924, 2923, 2904, 2926, 2899, 2919, 2917, 2907, 2937, 2928, 2915, 2925, 2930, 2930, 2933, 2931, 2932, 2918, 2896, 2910, 2917, 2916, 2901, 2889, 2957, 2918, 2903, 2908, 2894, 2896, 2910, 2908, 2896, 2908, 2906, 2919, 2931, 2930, 2929, 2951, 2961, 2955, 2925, 2935, 2962, 2812, 2836, 2811, 2800, 2792, 2820, 2839, 2847, 2830, 2845, 2845, 2815, 2806, 2837, 2832, 2826, 2853, 2859, 2859, 2737],
      "WindowCenter": [751.0, 749.0, 748.0, 747.0, 746.0, 746.0, 747.0, 748.0, 748.0, 747.0, 747.0, 746.0, 748.0, 748.0, 747.0, 748.0, 748.0, 749.0, 749.0, 749.0, 749.0, 749.0, 750.0, 751.0, 750.0, 750.0, 749.0, 749.0, 749.0, 747.0, 748.0, 749.0, 748.0, 748.0, 748.0, 749.0, 749.0, 750.0, 749.0, 749.0, 748.0, 748.0, 748.0, 749.0, 749.0, 749.0, 748.0, 748.0, 748.0, 749.0, 749.0, 748.0, 749.0, 749.0, 750.0, 750.0, 749.0, 749.0, 749.0, 748.0, 749.0, 748.0, 748.0, 747.0, 739.0, 748.0, 746.0, 745.0, 744.0, 743.0, 743.0, 744.0, 745.0, 744.0, 743.0, 743.0, 744.0, 745.0, 747.0, 747.0, 748.0, 747.0, 747.0, 747.0, 748.0, 749.0, 750.0, 751.0, 751.0, 751.0, 750.0, 751.0, 750.0, 751.0, 752.0, 751.0, 750.0, 749.0, 747.0, 747.0, 747.0, 747.0, 749.0, 748.0, 748.0, 747.0, 746.0, 746.0, 746.0, 746.0, 747.0, 747.0, 746.0, 745.0, 745.0, 745.0, 746.0, 746.0, 746.0, 746.0, 746.0, 747.0, 747.0, 748.0, 746.0, 745.0, 744.0, 744.0, 743.0, 744.0, 744.0, 745.0, 745.0, 744.0, 743.0, 743.0, 743.0, 744.0, 745.0, 746.0, 747.0, 747.0, 747.0, 748.0, 748.0, 749.0, 749.0, 748.0, 747.0, 746.0, 746.0, 746.0, 746.0, 746.0, 744.0, 744.0, 743.0, 743.0, 744.0, 744.0, 745.0, 745.0, 745.0, 744.0],
      "WindowWidth": [1610.0, 1604.0, 1600.0, 1598.0, 1595.0, 1594.0, 1598.0, 1600.0, 1600.0, 1598.0, 1596.0, 1596.0, 1599.0, 1599.0, 1599.0, 1600.0, 1600.0, 1602.0, 1603.0, 1601.0, 1601.0, 1602.0, 1605.0, 1608.0, 1605.0, 1603.0, 1603.0, 1602.0, 1601.0, 1598.0, 1600.0, 1602.0, 1600.0, 1600.0, 1600.0, 1602.0, 1602.0, 1604.0, 1602.0, 1602.0, 1599.0, 1600.0, 1600.0, 1603.0, 1602.0, 1601.0, 1599.0, 1599.0, 1600.0, 1601.0, 1601.0, 1600.0, 1601.0, 1603.0, 1604.0, 1603.0, 1602.0, 1601.0, 1602.0, 1600.0, 1601.0, 1600.0, 1600.0, 1596.0, 1578.0, 1600.0, 1594.0, 1592.0, 1590.0, 1586.0, 1588.0, 1591.0, 1591.0, 1589.0, 1586.0, 1587.0, 1589.0, 1593.0, 1598.0, 1598.0, 1599.0, 1598.0, 1598.0, 1597.0, 1599.0, 1603.0, 1606.0, 1607.0, 1608.0, 1608.0, 1606.0, 1606.0, 1606.0, 1607.0, 1609.0, 1608.0, 1604.0, 1601.0, 1598.0, 1596.0, 1597.0, 1598.0, 1602.0, 1601.0, 1599.0, 1597.0, 1594.0, 1593.0, 1593.0, 1594.0, 1596.0, 1597.0, 1595.0, 1592.0, 1591.0, 1592.0, 1594.0, 1595.0, 1596.0, 1594.0, 1596.0, 1596.0, 1596.0, 1601.0, 1595.0, 1593.0, 1590.0, 1589.0, 1588.0, 1589.0, 1590.0, 1592.0, 1592.0, 1589.0, 1587.0, 1587.0, 1587.0, 1589.0, 1593.0, 1596.0, 1597.0, 1597.0, 1598.0, 1600.0, 1600.0, 1603.0, 1602.0, 1599.0, 1596.0, 1593.0, 1595.0, 1595.0, 1595.0, 1593.0, 1589.0, 1588.0, 1587.0, 1588.0, 1588.0, 1589.0, 1592.0, 1591.0, 1591.0, 1588.0]
    },
    "slices": {}
  }
}