{
  "AcquisitionMatrixPE": 72,
  "AcquisitionNumber": 1,
  "AcquisitionTime": "09:02:55.557500",
  "BandwidthPerPixelPhaseEncode": 17.943,
  "BaseResolution": 96,
  "BodyPartExamined": "BRAIN",
  "CoilCombinationMethod": "Sum of Squares",
  "ConsistencyInfo": "N4_VE11C_LATEST_20160120",
  "ConversionSoftware": "dcm2niix",
  "ConversionSoftwareVersion": "v1.0.20211006",
  "DerivedVendorReportedEchoSpacing": 0.000552897,
  "DeviceSerialNumber": "166011",
  "EchoTime": 0.03,
  "EchoTrainLength": 58,
  "EffectiveEchoSpacing": 0.000580542,
  "FlipAngle": 62,
  "ImageOrientationPatientDICOM": [0.999867, -0.0133987, -0.00931608, 0.0106455, 0.9682, -0.249951],
  "ImageType": [
    "ORIGINAL",
    "PRIMARY",
    "M",
    "ND",
    "MOSAIC"
],
  "ImagingFrequency": 123.259,
  "InPlanePhaseEncodingDirectionDICOM": "COL",
  "InstitutionAddress": "West 130th Street 610,NY,NYC,US,10025",
  "InstitutionName": "MBBI",
  "MRAcquisitionType": "2D",
  "MagneticFieldStrength": 3,
  "Manufacturer": "Siemens",
  "ManufacturersModelName": "Prisma",
  "Modality": "MR",
  "MultibandAccelerationFactor": 3,
  "PartialFourier": 0.75,
  "PatientPosition": "HFS",
  "PercentPhaseFOV": 100,
  "PercentSampling": 75,
  "PhaseEncodingDirection": "j-",
  "PhaseEncodingSteps": 58,
  "PhaseOversampling": 0.05,
  "PhaseResolution": 0.75,
  "PixelBandwidth": 2265,
  "ProcedureStepDescription": "White^Word_recognition",
  "ProtocolName": "func_vwfate_run8",
  "PulseSequenceDetails": "%SiemensSeq%\\ep2d_bold",
  "ReceiveCoilActiveElements": "HC1-7",
  "ReceiveCoilName": "HeadNeck_64",
  "ReconMatrixPE": 96,
  "RefLinesPE": 40,
  "RepetitionTime": 1.5,
  "SAR": 0.0480244,
  "ScanOptions": "PFP\\FS",
  "ScanningSequence": "EP",
  "SequenceName": "*epfid2d1_72",
  "SequenceVariant": "SK\\OSP",
  "SeriesDescription": "func_vwfate_run8",
  "SeriesNumber": 9,
  "ShimSetting": [-1160, -1346, 686, 501, -86, 177, -45, -24],
  "SliceThickness": 2,
  "SliceTiming": [1.075, 0, 0.74, 0.0675, 0.8075, 0.135, 0.875, 0.2025, 0.9425, 0.2675, 1.0075, 0.4025, 1.1425, 0.47, 1.21, 0.5375, 1.2775, 0.605, 1.345, 0.6725, 1.4125, 0.335, 1.075, 0, 0.74, 0.0675, 0.8075, 0.135, 0.875, 0.2025, 0.9425, 0.2675, 1.0075, 0.4025, 1.1425, 0.47, 1.21, 0.5375, 1.2775, 0.605, 1.345, 0.6725, 1.4125, 0.335, 1.075, 0, 0.74, 0.0675, 0.8075, 0.135, 0.875, 0.2025, 0.9425, 0.2675, 1.0075, 0.4025, 1.1425, 0.47, 1.21, 0.5375, 1.2775, 0.605, 1.345, 0.6725, 1.4125, 0.335],
  "SoftwareVersions": "syngo MR E11",
  "SpacingBetweenSlices": 2,
  "StationName": "AWP166011",
  "TaskName": "vwfate",
  "TotalReadoutTime": 0.0551515,
  "TxRefAmp": 226.123,
  "dcmmeta_affine": [
    [-1.9997336864471436, 0.02129092812538147, -0.024737687781453133, 96.25889587402344],
    [0.026797372847795486, 1.936400055885315, -0.4996366500854492, -64.47509765625],
    [-0.01863216608762741, 0.49990156292915344, 1.9364274740219116, -84.03739929199219],
    [0.0, 0.0, 0.0, 1.0]
],
  "dcmmeta_reorient_transform": [
    [0.0, -1.0, 0.0, 95.0],
    [1.0, 0.0, 0.0, 0.0],
    [0.0, 0.0, 1.0, 0.0],
    [0.0, 0.0, 0.0, 1.0]
],
  "dcmmeta_shape": [96, 96, 66, 164],
  "dcmmeta_slice_dim": 2,
  "dcmmeta_version": 0.6,
  "global": {
    "const": {
      "AcquisitionMatrix": [96, 0, 0, 72],
      "AngioFlag": "N",
      "BitsAllocated": 16,
      "BitsStored": 12,
      "BodyPartExamined": "BRAIN",
      "Columns": 864,
      "EchoNumbers": 1,
      "EchoTime": 30.0,
      "EchoTrainLength": 58,
      "FlipAngle": 62.0,
      "HighBit": 11,
      "ImageOrientationPatient": [0.99986683403485, -0.0133986861909, -0.0093160831618, 0.01064546367403, 0.96820002263558, -0.2499507756972],
      "ImagePositionPatient": [-874.35497600859, -852.77033421089, 162.57019901923],
      "ImageType": [
        "ORIGINAL",
        "PRIMARY",
        "M",
        "ND",
        "MOSAIC"
],
      "ImagedNucleus": "1H",
      "ImagingFrequency": 123.25949,
      "InPlanePhaseEncodingDirection": "COL",
      "MRAcquisitionType": "2D",
      "MagneticFieldStrength": 3.0,
      "Manufacturer": "SIEMENS",
      "ManufacturerModelName": "Prisma",
      "Modality": "MR",
      "NumberOfAverages": 1.0,
      "NumberOfPhaseEncodingSteps": 58,
      "PercentPhaseFieldOfView": 100.0,
      "PercentSampling": 75.0,
      "PerformedProcedureStepStartTime": "082814.837000",
      "PhotometricInterpretation": "MONOCHROME2",
      "PixelBandwidth": 2265.0,
      "PixelRepresentation": 0,
      "PixelSpacing": [2.0, 2.0],
      "ProtocolName": "func_vwfate_run8",
      "RepetitionTime": 1500.0,
      "Rows": 864,
      "SAR": 0.04802437708027,
      "SamplesPerPixel": 1,
      "ScanOptions": [
        "PFP",
        "FS"
],
      "ScanningSequence": "EP",
      "SequenceName": "*epfid2d1_72",
      "SequenceVariant": [
        "SK",
        "OSP"
],
      "SeriesDescription": "func_vwfate_run8",
      "SeriesNumber": 9,
      "SeriesTime": "090312.296000",
      "SliceLocation": -66.449711474887,
      "SliceThickness": 2.0,
      "SmallestImagePixelValue": 0,
      "SoftwareVersions": "syngo MR E11",
      "SpacingBetweenSlices": 2.0000000315333,
      "SpecificCharacterSet": "ISO_IR 100",
      "StudyID": "2",
      "StudyTime": "082814.776000",
      "TransmitCoilName": "Body",
      "VariableFlipAngleFlag": "N",
      "WindowCenterWidthExplanation": "Algo1",
      "dBdt": 0.0},
    "slices": {}
  },
  "time": {
    "samples": {
      "AcquisitionNumber": [1, 2, 3, 4, 5, 6, 7, 8, 9, 10, 11, 12, 13, 14, 15, 16, 17, 18, 19, 20, 21, 22, 23, 24, 25, 26, 27, 28, 29, 30, 31, 32, 33, 34, 35, 36, 37, 38, 39, 40, 41, 42, 43, 44, 45, 46, 47, 48, 49, 50, 51, 52, 53, 54, 55, 56, 57, 58, 59, 60, 61, 62, 63, 64, 65, 66, 67, 68, 69, 70, 71, 72, 73, 74, 75, 76, 77, 78, 79, 80, 81, 82, 83, 84, 85, 86, 87, 88, 89, 90, 91, 92, 93, 94, 95, 96, 97, 98, 99, 100, 101, 102, 103, 104, 105, 106, 107, 108, 109, 110, 111, 112, 113, 114, 115, 116, 117, 118, 119, 120, 121, 122, 123, 124, 125, 126, 127, 128, 129, 130, 131, 132, 133, 134, 135, 136, 137, 138, 139, 140, 141, 142, 143, 144, 145, 146, 147, 148, 149, 150, 151, 152, 153, 154, 155, 156, 157, 158, 159, 160, 161, 162, 163, 164],
      "AcquisitionTime": ["090255.557500", "090257.057500", "090258.557500", "090300.057500", "090301.557500", "090303.057500", "090304.557500", "090306.057500", "090307.557500", "090309.057500", "090310.557500", "090312.057500", "090313.557500", "090315.057500", "090316.557500", "090318.057500", "090319.557500", "090321.057500", "090322.557500", "090324.057500", "090325.557500", "090327.057500", "090328.557500", "090330.057500", "090331.557500", "090333.057500", "090334.557500", "090336.057500", "090337.557500", "090339.057500", "090340.557500", "090342.057500", "090343.557500", "090345.057500", "090346.557500", "090348.057500", "090349.557500", "090351.057500", "090352.557500", "090354.057500", "090355.557500", "090357.057500", "090358.557500", "090400.057500", "090401.557500", "090403.057500", "090404.557500", "090406.057500", "090407.557500", "090409.057500", "090410.557500", "090412.057500", "090413.557500", "090415.057500", "090416.557500", "090418.057500", "090419.557500", "090421.057500", "090422.557500", "090424.057500", "090425.557500", "090427.057500", "090428.557500", "090430.057500", "090431.557500", "090433.057500", "090434.557500", "090436.057500", "090437.557500", "090439.057500", "090440.557500", "090442.057500", "090443.557500", "090445.057500", "090446.557500", "090448.057500", "090449.557500", "090451.057500", "090452.557500", "090454.057500", "090455.557500", "090457.057500", "090458.557500", "090500.057500", "090501.557500", "090503.057500", "090504.557500", "090506.057500", "090507.557500", "090509.057500", "090510.557500", "090512.057500", "090513.557500", "090515.057500", "090516.557500", "090518.057500", "090519.557500", "090521.057500", "090522.557500", "090524.057500", "090525.557500", "090527.057500", "090528.557500", "090530.057500", "090531.557500", "090533.057500", "090534.557500", "090536.057500", "090537.557500", "090539.057500", "090540.557500", "090542.057500", "090543.557500", "090545.057500", "090546.557500", "090548.057500", "090549.557500", "090551.057500", "090552.557500", "090554.057500", "090555.557500", "090557.057500", "090558.557500", "090600.057500", "090601.557500", "090603.057500", "090604.557500", "090606.057500", "090607.557500", "090609.057500", "090610.557500", "090612.057500", "090613.557500", "090615.057500", "090616.557500", "090618.057500", "090619.557500", "090621.057500", "090622.557500", "090624.057500", "090625.557500", "090627.057500", "090628.557500", "090630.057500", "090631.557500", "090633.057500", "090634.557500", "090636.057500", "090637.557500", "090639.057500", "090640.557500", "090642.057500", "090643.557500", "090645.057500", "090646.557500", "090648.057500", "090649.557500", "090651.057500", "090652.557500", "090654.057500", "090655.557500", "090657.057500", "090658.557500", "090700.057500"],
      "ContentTime": ["090312.300000", "090312.304000", "090312.307000", "090312.320000", "090312.323000", "090312.327000", "090312.341000", "090312.344000", "090312.346000", "090312.350000", "090312.353000", "090352.295000", "090352.298000", "090352.302000", "090352.305000", "090352.308000", "090352.311000", "090352.314000", "090352.317000", "090352.320000", "090352.323000", "090352.326000", "090352.330000", "090352.332000", "090352.336000", "090352.339000", "090352.342000", "090352.345000", "090352.348000", "090352.351000", "090352.363000", "090352.366000", "090352.369000", "090352.372000", "090352.375000", "090352.378000", "090352.381000", "090352.384000", "090432.294000", "090432.297000", "090432.301000", "090432.304000", "090432.307000", "090432.310000", "090432.313000", "090432.316000", "090432.319000", "090432.322000", "090432.325000", "090432.328000", "090432.332000", "090432.335000", "090432.338000", "090432.341000", "090432.344000", "090432.347000", "090432.350000", "090432.353000", "090432.356000", "090432.359000", "090432.362000", "090432.365000", "090432.377000", "090432.385000", "090432.388000", "090512.294000", "090512.297000", "090512.301000", "090512.304000", "090512.307000", "090512.310000", "090512.313000", "090512.316000", "090512.319000", "090512.323000", "090512.326000", "090512.329000", "090512.332000", "090512.335000", "090512.338000", "090512.341000", "090512.344000", "090512.347000", "090512.350000", "090512.354000", "090512.357000", "090512.360000", "090512.371000", "090512.374000", "090512.377000", "090512.380000", "090552.295000", "090552.298000", "090552.301000", "090552.305000", "090552.308000", "090552.311000", "090552.314000", "090552.317000", "090552.320000", "090552.323000", "090552.326000", "090552.329000", "090552.332000", "090552.335000", "090552.339000", "090552.342000", "090552.345000", "090552.348000", "090552.351000", "090552.354000", "090552.357000", "090552.360000", "090552.363000", "090552.367000", "090552.370000", "090552.373000", "090552.376000", "090632.295000", "090632.298000", "090632.301000", "090632.304000", "090632.307000", "090632.310000", "090632.314000", "090632.317000", "090632.320000", "090632.323000", "090632.326000", "090632.329000", "090632.332000", "090632.335000", "090632.338000", "090632.341000", "090632.344000", "090632.347000", "090632.350000", "090632.353000", "090632.356000", "090632.359000", "090632.363000", "090632.366000", "090632.369000", "090632.371000", "090632.375000", "090700.746000", "090700.750000", "090700.753000", "090700.756000", "090700.759000", "090700.763000", "090700.766000", "090700.769000", "090700.773000", "090700.776000", "090700.779000", "090700.783000", "090700.786000", "090700.791000", "090700.794000", "090700.797000", "090700.801000", "090700.804000", "090700.808000"],
      "InstanceCreationTime": ["090312.300000", "090312.304000", "090312.307000", "090312.320000", "090312.323000", "090312.327000", "090312.341000", "090312.344000", "090312.346000", "090312.350000", "090312.353000", "090352.295000", "090352.298000", "090352.302000", "090352.305000", "090352.308000", "090352.311000", "090352.314000", "090352.317000", "090352.320000", "090352.323000", "090352.326000", "090352.330000", "090352.332000", "090352.336000", "090352.339000", "090352.342000", "090352.345000", "090352.348000", "090352.351000", "090352.363000", "090352.366000", "090352.369000", "090352.372000", "090352.375000", "090352.378000", "090352.381000", "090352.384000", "090432.294000", "090432.297000", "090432.301000", "090432.304000", "090432.307000", "090432.310000", "090432.313000", "090432.316000", "090432.319000", "090432.322000", "090432.325000", "090432.328000", "090432.332000", "090432.335000", "090432.338000", "090432.341000", "090432.344000", "090432.347000", "090432.350000", "090432.353000", "090432.356000", "090432.359000", "090432.362000", "090432.365000", "090432.377000", "090432.385000", "090432.388000", "090512.294000", "090512.297000", "090512.301000", "090512.304000", "090512.307000", "090512.310000", "090512.313000", "090512.316000", "090512.319000", "090512.323000", "090512.326000", "090512.329000", "090512.332000", "090512.335000", "090512.338000", "090512.341000", "090512.344000", "090512.347000", "090512.350000", "090512.354000", "090512.357000", "090512.360000", "090512.371000", "090512.374000", "090512.377000", "090512.380000", "090552.295000", "090552.298000", "090552.301000", "090552.305000", "090552.308000", "090552.311000", "090552.314000", "090552.317000", "090552.320000", "090552.323000", "090552.326000", "090552.329000", "090552.332000", "090552.335000", "090552.339000", "090552.342000", "090552.345000", "090552.348000", "090552.351000", "090552.354000", "090552.357000", "090552.360000", "090552.363000", "090552.367000", "090552.370000", "090552.373000", "090552.376000", "090632.295000", "090632.298000", "090632.301000", "090632.304000", "090632.307000", "090632.310000", "090632.314000", "090632.317000", "090632.320000", "090632.323000", "090632.326000", "090632.329000", "090632.332000", "090632.335000", "090632.338000", "090632.341000", "090632.344000", "090632.347000", "090632.350000", "090632.353000", "090632.356000", "090632.359000", "090632.363000", "090632.366000", "090632.369000", "090632.371000", "090632.375000", "090700.746000", "090700.750000", "090700.753000", "090700.756000", "090700.759000", "090700.763000", "090700.766000", "090700.769000", "090700.773000", "090700.776000", "090700.779000", "090700.783000", "090700.786000", "090700.791000", "090700.794000", "090700.797000", "090700.801000", "090700.804000", "090700.808000"],
      "InstanceNumber": [1, 2, 3, 4, 5, 6, 7, 8, 9, 10, 11, 12, 13, 14, 15, 16, 17, 18, 19, 20, 21, 22, 23, 24, 25, 26, 27, 28, 29, 30, 31, 32, 33, 34, 35, 36, 37, 38, 39, 40, 41, 42, 43, 44, 45, 46, 47, 48, 49, 50, 51, 52, 53, 54, 55, 56, 57, 58, 59, 60, 61, 62, 63, 64, 65, 66, 67, 68, 69, 70, 71, 72, 73, 74, 75, 76, 77, 78, 79, 80, 81, 82, 83, 84, 85, 86, 87, 88, 89, 90, 91, 92, 93, 94, 95, 96, 97, 98, 99, 100, 101, 102, 103, 104, 105, 106, 107, 108, 109, 110, 111, 112, 113, 114, 115, 116, 117, 118, 119, 120, 121, 122, 123, 124, 125, 126, 127, 128, 129, 130, 131, 132, 133, 134, 135, 136, 137, 138, 139, 140, 141, 142, 143, 144, 145, 146, 147, 148, 149, 150, 151, 152, 153, 154, 155, 156, 157, 158, 159, 160, 161, 162, 163, 164],
      "LargestImagePixelValue": [3051, 2992, 2952, 2953, 2938, 2916, 2928, 2903, 2917, 2904, 2914, 2918, 2922, 2925, 2935, 2911, 2949, 2938, 2920, 2907, 2931, 2913, 2928, 2935, 2924, 2921, 2940, 2939, 2923, 2923, 2942, 2935, 2940, 2907, 2927, 2920, 2914, 2957, 2934, 2933, 2938, 2929, 2930, 2903, 2919, 2937, 2936, 2940, 2939, 2936, 2917, 2927, 2944, 2937, 2938, 2932, 2944, 2946, 2937, 2956, 2931, 2932, 2925, 2945, 2950, 2935, 2919, 2946, 2930, 2928, 2939, 2933, 2935, 2930, 2941, 2925, 2921, 2926, 2934, 2943, 2929, 2934, 2931, 2918, 2939, 2919, 2939, 2913, 2918, 2926, 2933, 2939, 2952, 2914, 2932, 2934, 2922, 2921, 2935, 2932, 2911, 2907, 2939, 2922, 2919, 2939, 2959, 2924, 2926, 2927, 2948, 2925, 2914, 2931, 2907, 2931, 2946, 2935, 2930, 2928, 2955, 2929, 2930, 2917, 2931, 2925, 2917, 2928, 2939, 2912, 2932, 2926, 2929, 2937, 2900, 2910, 2908, 2897, 2912, 2890, 2897, 2897, 2895, 2905, 2915, 2903, 2909, 2910, 2899, 2901, 2897, 2921, 2903, 2926, 2923, 2915, 2892, 2905, 2885, 2896, 2915, 2908, 2905, 2952],
      "WindowCenter": [756.0, 753.0, 751.0, 750.0, 751.0, 752.0, 752.0, 751.0, 750.0, 749.0, 749.0, 748.0, 750.0, 750.0, 752.0, 752.0, 751.0, 750.0, 750.0, 750.0, 751.0, 750.0, 750.0, 750.0, 752.0, 753.0, 754.0, 754.0, 752.0, 751.0, 750.0, 750.0, 751.0, 751.0, 752.0, 751.0, 751.0, 750.0, 749.0, 749.0, 750.0, 751.0, 752.0, 751.0, 751.0, 750.0, 750.0, 750.0, 750.0, 750.0, 750.0, 750.0, 750.0, 751.0, 752.0, 751.0, 751.0, 749.0, 749.0, 749.0, 751.0, 751.0, 750.0, 750.0, 750.0, 750.0, 750.0, 750.0, 749.0, 749.0, 751.0, 750.0, 751.0, 752.0, 752.0, 751.0, 750.0, 749.0, 748.0, 749.0, 750.0, 750.0, 749.0, 749.0, 748.0, 748.0, 747.0, 747.0, 748.0, 748.0, 749.0, 750.0, 749.0, 749.0, 749.0, 749.0, 750.0, 751.0, 751.0, 752.0, 751.0, 750.0, 749.0, 749.0, 749.0, 749.0, 749.0, 749.0, 750.0, 749.0, 750.0, 749.0, 749.0, 750.0, 750.0, 750.0, 750.0, 749.0, 749.0, 748.0, 749.0, 749.0, 749.0, 749.0, 748.0, 747.0, 747.0, 749.0, 749.0, 751.0, 750.0, 749.0, 747.0, 746.0, 745.0, 747.0, 747.0, 747.0, 748.0, 747.0, 746.0, 745.0, 744.0, 744.0, 744.0, 745.0, 745.0, 745.0, 746.0, 746.0, 747.0, 748.0, 748.0, 748.0, 748.0, 747.0, 747.0, 747.0, 748.0, 748.0, 748.0, 749.0, 749.0, 752.0],
      "WindowWidth": [1621.0, 1613.0, 1609.0, 1606.0, 1608.0, 1609.0, 1610.0, 1608.0, 1605.0, 1602.0, 1603.0, 1601.0, 1605.0, 1606.0, 1609.0, 1610.0, 1608.0, 1605.0, 1605.0, 1605.0, 1607.0, 1607.0, 1607.0, 1607.0, 1610.0, 1612.0, 1615.0, 1615.0, 1611.0, 1607.0, 1606.0, 1606.0, 1608.0, 1608.0, 1610.0, 1608.0, 1607.0, 1606.0, 1604.0, 1604.0, 1607.0, 1608.0, 1610.0, 1609.0, 1607.0, 1606.0, 1605.0, 1605.0, 1606.0, 1606.0, 1605.0, 1604.0, 1605.0, 1608.0, 1611.0, 1609.0, 1607.0, 1603.0, 1603.0, 1604.0, 1607.0, 1607.0, 1606.0, 1606.0, 1605.0, 1606.0, 1606.0, 1604.0, 1603.0, 1604.0, 1607.0, 1605.0, 1607.0, 1609.0, 1610.0, 1608.0, 1604.0, 1602.0, 1601.0, 1602.0, 1605.0, 1605.0, 1602.0, 1602.0, 1600.0, 1599.0, 1599.0, 1598.0, 1599.0, 1601.0, 1604.0, 1606.0, 1604.0, 1604.0, 1603.0, 1604.0, 1607.0, 1609.0, 1608.0, 1609.0, 1607.0, 1605.0, 1603.0, 1602.0, 1602.0, 1603.0, 1604.0, 1603.0, 1605.0, 1604.0, 1604.0, 1603.0, 1603.0, 1605.0, 1606.0, 1606.0, 1605.0, 1603.0, 1602.0, 1601.0, 1604.0, 1604.0, 1604.0, 1602.0, 1599.0, 1598.0, 1599.0, 1602.0, 1604.0, 1607.0, 1606.0, 1602.0, 1598.0, 1594.0, 1594.0, 1597.0, 1598.0, 1599.0, 1599.0, 1598.0, 1594.0, 1592.0, 1590.0, 1591.0, 1591.0, 1593.0, 1593.0, 1594.0, 1594.0, 1595.0, 1597.0, 1600.0, 1601.0, 1601.0, 1600.0, 1598.0, 1597.0, 1599.0, 1600.0, 1601.0, 1601.0, 1602.0, 1604.0, 1610.0]
    },
    "slices": {}
  }
}