{
  "AcquisitionMatrixPE": 72,
  "AcquisitionNumber": 1,
  "AcquisitionTime": "09:35:37.875000",
  "BandwidthPerPixelPhaseEncode": 17.943,
  "BaseResolution": 96,
  "BodyPartExamined": "BRAIN",
  "CoilCombinationMethod": "Sum of Squares",
  "ConsistencyInfo": "N4_VE11C_LATEST_20160120",
  "ConversionSoftware": "dcm2niix",
  "ConversionSoftwareVersion": "v1.0.20211006",
  "DerivedVendorReportedEchoSpacing": 0.000552897,
  "DeviceSerialNumber": "166011",
  "EchoTime": 0.03,
  "EchoTrainLength": 58,
  "EffectiveEchoSpacing": 0.000580542,
  "FlipAngle": 62,
  "ImageOrientationPatientDICOM": [0.999867, -0.0133987, -0.00931608, 0.0106455, 0.9682, -0.249951],
  "ImageType": [
    "ORIGINAL",
    "PRIMARY",
    "M",
    "ND",
    "MOSAIC"
],
  "ImagingFrequency": 123.26,
  "InPlanePhaseEncodingDirectionDICOM": "COL",
  "InstitutionAddress": "West 130th Street 610,NY,NYC,US,10025",
  "InstitutionName": "MBBI",
  "MRAcquisitionType": "2D",
  "MagneticFieldStrength": 3,
  "Manufacturer": "Siemens",
  "ManufacturersModelName": "Prisma",
  "Modality": "MR",
  "MultibandAccelerationFactor": 3,
  "PartialFourier": 0.75,
  "PatientPosition": "HFS",
  "PercentPhaseFOV": 100,
  "PercentSampling": 75,
  "PhaseEncodingDirection": "j-",
  "PhaseEncodingSteps": 58,
  "PhaseOversampling": 0.05,
  "PhaseResolution": 0.75,
  "PixelBandwidth": 2265,
  "ProcedureStepDescription": "White^Word_recognition",
  "ProtocolName": "func_vwfate_run11",
  "PulseSequenceDetails": "%SiemensSeq%\\ep2d_bold",
  "ReceiveCoilActiveElements": "HC1-7",
  "ReceiveCoilName": "HeadNeck_64",
  "ReconMatrixPE": 96,
  "RefLinesPE": 40,
  "RepetitionTime": 1.5,
  "SAR": 0.0480244,
  "ScanOptions": "PFP\\FS",
  "ScanningSequence": "EP",
  "SequenceName": "*epfid2d1_72",
  "SequenceVariant": "SK\\OSP",
  "SeriesDescription": "func_vwfate_run11",
  "SeriesNumber": 14,
  "ShimSetting": [-1160, -1346, 686, 501, -86, 177, -45, -24],
  "SliceThickness": 2,
  "SliceTiming": [1.075, 0, 0.74, 0.0675, 0.8075, 0.1325, 0.8725, 0.2, 0.94, 0.2675, 1.0075, 0.4025, 1.1425, 0.47, 1.21, 0.5375, 1.2775, 0.605, 1.345, 0.6725, 1.4125, 0.335, 1.075, 0, 0.74, 0.0675, 0.8075, 0.1325, 0.8725, 0.2, 0.94, 0.2675, 1.0075, 0.4025, 1.1425, 0.47, 1.21, 0.5375, 1.2775, 0.605, 1.345, 0.6725, 1.4125, 0.335, 1.075, 0, 0.74, 0.0675, 0.8075, 0.1325, 0.8725, 0.2, 0.94, 0.2675, 1.0075, 0.4025, 1.1425, 0.47, 1.21, 0.5375, 1.2775, 0.605, 1.345, 0.6725, 1.4125, 0.335],
  "SoftwareVersions": "syngo MR E11",
  "SpacingBetweenSlices": 2,
  "StationName": "AWP166011",
  "TaskName": "vwfate",
  "TotalReadoutTime": 0.0551515,
  "TxRefAmp": 226.123,
  "dcmmeta_affine": [
    [-1.9997336864471436, 0.02129092812538147, -0.024737687781453133, 96.25889587402344],
    [0.026797372847795486, 1.936400055885315, -0.4996366500854492, -64.47509765625],
    [-0.01863216608762741, 0.49990156292915344, 1.9364274740219116, -84.03739929199219],
    [0.0, 0.0, 0.0, 1.0]
],
  "dcmmeta_reorient_transform": [
    [0.0, -1.0, 0.0, 95.0],
    [1.0, 0.0, 0.0, 0.0],
    [0.0, 0.0, 1.0, 0.0],
    [0.0, 0.0, 0.0, 1.0]
],
  "dcmmeta_shape": [96, 96, 66, 164],
  "dcmmeta_slice_dim": 2,
  "dcmmeta_version": 0.6,
  "global": {
    "const": {
      "AcquisitionMatrix": [96, 0, 0, 72],
      "AngioFlag": "N",
      "BitsAllocated": 16,
      "BitsStored": 12,
      "BodyPartExamined": "BRAIN",
      "Columns": 864,
      "EchoNumbers": 1,
      "EchoTime": 30.0,
      "EchoTrainLength": 58,
      "FlipAngle": 62.0,
      "HighBit": 11,
      "ImageOrientationPatient": [0.99986683403485, -0.0133986861909, -0.0093160831618, 0.01064546367403, 0.96820002263558, -0.2499507756972],
      "ImagePositionPatient": [-874.35497600859, -852.77033421089, 162.57019901923],
      "ImageType": [
        "ORIGINAL",
        "PRIMARY",
        "M",
        "ND",
        "MOSAIC"
],
      "ImagedNucleus": "1H",
      "ImagingFrequency": 123.259504,
      "InPlanePhaseEncodingDirection": "COL",
      "MRAcquisitionType": "2D",
      "MagneticFieldStrength": 3.0,
      "Manufacturer": "SIEMENS",
      "ManufacturerModelName": "Prisma",
      "Modality": "MR",
      "NumberOfAverages": 1.0,
      "NumberOfPhaseEncodingSteps": 58,
      "PercentPhaseFieldOfView": 100.0,
      "PercentSampling": 75.0,
      "PerformedProcedureStepStartTime": "082814.837000",
      "PhotometricInterpretation": "MONOCHROME2",
      "PixelBandwidth": 2265.0,
      "PixelRepresentation": 0,
      "PixelSpacing": [2.0, 2.0],
      "ProtocolName": "func_vwfate_run11",
      "RepetitionTime": 1500.0,
      "Rows": 864,
      "SAR": 0.04802437708027,
      "SamplesPerPixel": 1,
      "ScanOptions": [
        "PFP",
        "FS"
],
      "ScanningSequence": "EP",
      "SequenceName": "*epfid2d1_72",
      "SequenceVariant": [
        "SK",
        "OSP"
],
      "SeriesDescription": "func_vwfate_run11",
      "SeriesNumber": 14,
      "SeriesTime": "093620.301000",
      "SliceLocation": -66.449711474887,
      "SliceThickness": 2.0,
      "SmallestImagePixelValue": 0,
      "SoftwareVersions": "syngo MR E11",
      "SpacingBetweenSlices": 2.0000000315333,
      "SpecificCharacterSet": "ISO_IR 100",
      "StudyID": "2",
      "StudyTime": "082814.776000",
      "TransmitCoilName": "Body",
      "VariableFlipAngleFlag": "N",
      "WindowCenterWidthExplanation": "Algo1",
      "dBdt": 0.0},
    "slices": {}
  },
  "time": {
    "samples": {
      "AcquisitionNumber": [1, 2, 3, 4, 5, 6, 7, 8, 9, 10, 11, 12, 13, 14, 15, 16, 17, 18, 19, 20, 21, 22, 23, 24, 25, 26, 27, 28, 29, 30, 31, 32, 33, 34, 35, 36, 37, 38, 39, 40, 41, 42, 43, 44, 45, 46, 47, 48, 49, 50, 51, 52, 53, 54, 55, 56, 57, 58, 59, 60, 61, 62, 63, 64, 65, 66, 67, 68, 69, 70, 71, 72, 73, 74, 75, 76, 77, 78, 79, 80, 81, 82, 83, 84, 85, 86, 87, 88, 89, 90, 91, 92, 93, 94, 95, 96, 97, 98, 99, 100, 101, 102, 103, 104, 105, 106, 107, 108, 109, 110, 111, 112, 113, 114, 115, 116, 117, 118, 119, 120, 121, 122, 123, 124, 125, 126, 127, 128, 129, 130, 131, 132, 133, 134, 135, 136, 137, 138, 139, 140, 141, 142, 143, 144, 145, 146, 147, 148, 149, 150, 151, 152, 153, 154, 155, 156, 157, 158, 159, 160, 161, 162, 163, 164],
      "AcquisitionTime": ["093537.875000", "093539.375000", "093540.875000", "093542.375000", "093543.875000", "093545.375000", "093546.875000", "093548.375000", "093549.875000", "093551.375000", "093552.875000", "093554.375000", "093555.875000", "093557.375000", "093558.875000", "093600.375000", "093601.875000", "093603.375000", "093604.875000", "093606.375000", "093607.875000", "093609.375000", "093610.875000", "093612.375000", "093613.875000", "093615.375000", "093616.875000", "093618.375000", "093619.875000", "093621.375000", "093622.875000", "093624.375000", "093625.875000", "093627.375000", "093628.875000", "093630.375000", "093631.875000", "093633.375000", "093634.875000", "093636.375000", "093637.875000", "093639.375000", "093640.875000", "093642.375000", "093643.875000", "093645.375000", "093646.875000", "093648.375000", "093649.875000", "093651.375000", "093652.875000", "093654.375000", "093655.875000", "093657.375000", "093658.875000", "093700.375000", "093701.875000", "093703.375000", "093704.875000", "093706.375000", "093707.875000", "093709.375000", "093710.875000", "093712.375000", "093713.875000", "093715.375000", "093716.875000", "093718.375000", "093719.875000", "093721.375000", "093722.875000", "093724.375000", "093725.875000", "093727.375000", "093728.875000", "093730.375000", "093731.875000", "093733.375000", "093734.875000", "093736.375000", "093737.875000", "093739.375000", "093740.875000", "093742.375000", "093743.875000", "093745.375000", "093746.875000", "093748.375000", "093749.875000", "093751.375000", "093752.875000", "093754.375000", "093755.875000", "093757.375000", "093758.875000", "093800.375000", "093801.875000", "093803.375000", "093804.875000", "093806.375000", "093807.875000", "093809.375000", "093810.875000", "093812.375000", "093813.875000", "093815.375000", "093816.875000", "093818.375000", "093819.875000", "093821.375000", "093822.875000", "093824.375000", "093825.875000", "093827.375000", "093828.875000", "093830.375000", "093831.875000", "093833.375000", "093834.875000", "093836.375000", "093837.875000", "093839.375000", "093840.875000", "093842.375000", "093843.875000", "093845.375000", "093846.875000", "093848.375000", "093849.875000", "093851.375000", "093852.875000", "093854.375000", "093855.875000", "093857.375000", "093858.875000", "093900.375000", "093901.875000", "093903.375000", "093904.875000", "093906.375000", "093907.875000", "093909.375000", "093910.875000", "093912.375000", "093913.875000", "093915.375000", "093916.875000", "093918.375000", "093919.875000", "093921.375000", "093922.875000", "093924.375000", "093925.875000", "093927.375000", "093928.875000", "093930.375000", "093931.875000", "093933.375000", "093934.875000", "093936.375000", "093937.875000", "093939.375000", "093940.875000", "093942.375000"],
      "ContentTime": ["093620.305000", "093620.309000", "093620.312000", "093620.315000", "093620.319000", "093620.322000", "093620.329000", "093620.332000", "093620.335000", "093620.338000", "093620.341000", "093620.345000", "093620.348000", "093620.351000", "093620.354000", "093620.363000", "093620.366000", "093620.370000", "093620.374000", "093620.380000", "093620.383000", "093620.386000", "093620.389000", "093620.393000", "093620.396000", "093620.399000", "093620.402000", "093620.405000", "093700.301000", "093700.304000", "093700.307000", "093700.310000", "093700.313000", "093700.317000", "093700.320000", "093700.323000", "093700.326000", "093700.329000", "093700.332000", "093700.335000", "093700.339000", "093700.342000", "093700.346000", "093700.349000", "093700.355000", "093700.358000", "093700.361000", "093700.364000", "093700.367000", "093700.370000", "093700.373000", "093700.376000", "093700.379000", "093700.382000", "093700.385000", "093740.301000", "093740.304000", "093740.307000", "093740.310000", "093740.313000", "093740.316000", "093740.319000", "093740.323000", "093740.326000", "093740.329000", "093740.332000", "093740.335000", "093740.338000", "093740.341000", "093740.344000", "093740.347000", "093740.350000", "093740.353000", "093740.356000", "093740.359000", "093740.362000", "093740.365000", "093740.368000", "093740.372000", "093740.375000", "093740.378000", "093740.381000", "093820.300000", "093820.303000", "093820.306000", "093820.309000", "093820.312000", "093820.316000", "093820.319000", "093820.322000", "093820.325000", "093820.328000", "093820.331000", "093820.334000", "093820.337000", "093820.340000", "093820.343000", "093820.346000", "093820.349000", "093820.352000", "093820.355000", "093820.358000", "093820.362000", "093820.366000", "093820.369000", "093820.372000", "093820.376000", "093820.379000", "093900.300000", "093900.303000", "093900.306000", "093900.309000", "093900.313000", "093900.316000", "093900.319000", "093900.322000", "093900.325000", "093900.328000", "093900.331000", "093900.334000", "093900.337000", "093900.340000", "093900.343000", "093900.353000", "093900.356000", "093900.359000", "093900.362000", "093900.365000", "093900.368000", "093900.371000", "093900.374000", "093900.377000", "093900.381000", "093900.383000", "093900.386000", "093940.301000", "093940.304000", "093940.307000", "093940.310000", "093940.313000", "093940.316000", "093940.319000", "093940.323000", "093940.326000", "093940.329000", "093940.332000", "093940.335000", "093940.338000", "093940.341000", "093940.344000", "093940.347000", "093940.350000", "093940.353000", "093940.356000", "093940.359000", "093940.362000", "093940.365000", "093940.368000", "093940.372000", "093940.375000", "093940.378000", "093940.381000", "093943.143000", "093943.147000"],
      "InstanceCreationTime": ["093620.305000", "093620.309000", "093620.312000", "093620.315000", "093620.319000", "093620.322000", "093620.329000", "093620.332000", "093620.335000", "093620.338000", "093620.341000", "093620.345000", "093620.348000", "093620.351000", "093620.354000", "093620.363000", "093620.366000", "093620.370000", "093620.374000", "093620.380000", "093620.383000", "093620.386000", "093620.389000", "093620.393000", "093620.396000", "093620.399000", "093620.402000", "093620.405000", "093700.301000", "093700.304000", "093700.307000", "093700.310000", "093700.313000", "093700.317000", "093700.320000", "093700.323000", "093700.326000", "093700.329000", "093700.332000", "093700.335000", "093700.339000", "093700.342000", "093700.346000", "093700.349000", "093700.355000", "093700.358000", "093700.361000", "093700.364000", "093700.367000", "093700.370000", "093700.373000", "093700.376000", "093700.379000", "093700.382000", "093700.385000", "093740.301000", "093740.304000", "093740.307000", "093740.310000", "093740.313000", "093740.316000", "093740.319000", "093740.323000", "093740.326000", "093740.329000", "093740.332000", "093740.335000", "093740.338000", "093740.341000", "093740.344000", "093740.347000", "093740.350000", "093740.353000", "093740.356000", "093740.359000", "093740.362000", "093740.365000", "093740.368000", "093740.372000", "093740.375000", "093740.378000", "093740.381000", "093820.300000", "093820.303000", "093820.306000", "093820.309000", "093820.312000", "093820.316000", "093820.319000", "093820.322000", "093820.325000", "093820.328000", "093820.331000", "093820.334000", "093820.337000", "093820.340000", "093820.343000", "093820.346000", "093820.349000", "093820.352000", "093820.355000", "093820.358000", "093820.362000", "093820.366000", "093820.369000", "093820.372000", "093820.376000", "093820.379000", "093900.300000", "093900.303000", "093900.306000", "093900.309000", "093900.313000", "093900.316000", "093900.319000", "093900.322000", "093900.325000", "093900.328000", "093900.331000", "093900.334000", "093900.337000", "093900.340000", "093900.343000", "093900.353000", "093900.356000", "093900.359000", "093900.362000", "093900.365000", "093900.368000", "093900.371000", "093900.374000", "093900.377000", "093900.381000", "093900.383000", "093900.386000", "093940.301000", "093940.304000", "093940.307000", "093940.310000", "093940.313000", "093940.316000", "093940.319000", "093940.323000", "093940.326000", "093940.329000", "093940.332000", "093940.335000", "093940.338000", "093940.341000", "093940.344000", "093940.347000", "093940.350000", "093940.353000", "093940.356000", "093940.359000", "093940.362000", "093940.365000", "093940.368000", "093940.372000", "093940.375000", "093940.378000", "093940.381000", "093943.143000", "093943.147000"],
      "InstanceNumber": [1, 2, 3, 4, 5, 6, 7, 8, 9, 10, 11, 12, 13, 14, 15, 16, 17, 18, 19, 20, 21, 22, 23, 24, 25, 26, 27, 28, 29, 30, 31, 32, 33, 34, 35, 36, 37, 38, 39, 40, 41, 42, 43, 44, 45, 46, 47, 48, 49, 50, 51, 52, 53, 54, 55, 56, 57, 58, 59, 60, 61, 62, 63, 64, 65, 66, 67, 68, 69, 70, 71, 72, 73, 74, 75, 76, 77, 78, 79, 80, 81, 82, 83, 84, 85, 86, 87, 88, 89, 90, 91, 92, 93, 94, 95, 96, 97, 98, 99, 100, 101, 102, 103, 104, 105, 106, 107, 108, 109, 110, 111, 112, 113, 114, 115, 116, 117, 118, 119, 120, 121, 122, 123, 124, 125, 126, 127, 128, 129, 130, 131, 132, 133, 134, 135, 136, 137, 138, 139, 140, 141, 142, 143, 144, 145, 146, 147, 148, 149, 150, 151, 152, 153, 154, 155, 156, 157, 158, 159, 160, 161, 162, 163, 164],
      "LargestImagePixelValue": [3084, 3017, 2993, 2991, 2969, 2948, 2947, 2968, 2971, 2971, 2944, 2954, 2921, 2947, 2927, 2962, 2934, 2961, 2946, 2961, 2956, 2936, 2993, 2976, 2960, 2966, 2990, 2972, 2965, 2993, 2939, 2952, 2928, 2932, 2968, 2900, 2941, 2920, 2927, 2921, 2933, 2936, 2928, 2942, 2941, 2959, 2980, 2959, 2977, 2970, 2995, 2965, 3001, 3027, 2974, 2961, 2952, 2944, 2961, 2919, 2931, 2909, 2925, 2927, 2925, 2936, 2934, 2924, 2914, 2936, 2905, 2925, 2933, 2908, 3010, 2947, 2869, 2976, 2951, 2946, 2944, 2929, 2943, 2899, 2908, 2910, 2920, 2905, 2938, 2940, 2907, 2882, 2909, 2897, 2899, 2899, 2900, 2916, 2903, 2869, 2827, 2823, 2815, 2819, 2803, 2802, 2851, 2902, 2867, 2896, 2929, 2931, 2914, 2895, 2875, 2921, 2906, 2890, 2907, 3012, 2911, 2963, 2961, 2950, 2946, 2961, 2939, 2955, 2952, 2921, 2899, 2924, 2903, 2875, 2891, 2882, 2863, 2808, 2837, 2791, 2825, 2729, 2693, 2987, 2911, 2951, 2869, 2897, 2881, 2830, 2893, 2897, 2895, 2890, 2902, 2898, 2880, 2835, 2831, 2767, 2712, 2707, 2688, 2728],
      "WindowCenter": [753.0, 751.0, 753.0, 755.0, 754.0, 752.0, 751.0, 750.0, 749.0, 749.0, 748.0, 747.0, 747.0, 747.0, 746.0, 745.0, 745.0, 744.0, 745.0, 745.0, 745.0, 745.0, 748.0, 746.0, 746.0, 747.0, 748.0, 750.0, 750.0, 749.0, 748.0, 747.0, 747.0, 747.0, 748.0, 748.0, 747.0, 747.0, 748.0, 749.0, 750.0, 750.0, 748.0, 748.0, 747.0, 748.0, 749.0, 751.0, 751.0, 749.0, 748.0, 747.0, 748.0, 748.0, 747.0, 747.0, 748.0, 748.0, 747.0, 746.0, 747.0, 747.0, 746.0, 745.0, 745.0, 745.0, 744.0, 745.0, 745.0, 745.0, 745.0, 745.0, 747.0, 744.0, 747.0, 746.0, 745.0, 746.0, 745.0, 744.0, 744.0, 745.0, 745.0, 746.0, 744.0, 744.0, 745.0, 745.0, 745.0, 746.0, 745.0, 745.0, 745.0, 745.0, 745.0, 744.0, 744.0, 744.0, 745.0, 745.0, 744.0, 744.0, 743.0, 743.0, 744.0, 745.0, 747.0, 748.0, 746.0, 747.0, 746.0, 744.0, 743.0, 741.0, 740.0, 738.0, 738.0, 739.0, 739.0, 740.0, 739.0, 740.0, 740.0, 741.0, 743.0, 744.0, 744.0, 744.0, 744.0, 744.0, 744.0, 746.0, 746.0, 746.0, 746.0, 746.0, 746.0, 746.0, 747.0, 747.0, 746.0, 745.0, 745.0, 749.0, 745.0, 751.0, 747.0, 745.0, 744.0, 743.0, 745.0, 744.0, 744.0, 743.0, 742.0, 743.0, 743.0, 743.0, 742.0, 741.0, 742.0, 743.0, 742.0, 745.0],
      "WindowWidth": [1613.0, 1608.0, 1613.0, 1616.0, 1615.0, 1611.0, 1607.0, 1604.0, 1601.0, 1602.0, 1600.0, 1597.0, 1596.0, 1597.0, 1594.0, 1593.0, 1591.0, 1590.0, 1592.0, 1593.0, 1593.0, 1593.0, 1599.0, 1596.0, 1596.0, 1597.0, 1601.0, 1604.0, 1604.0, 1603.0, 1599.0, 1598.0, 1597.0, 1597.0, 1599.0, 1600.0, 1598.0, 1598.0, 1600.0, 1603.0, 1606.0, 1604.0, 1600.0, 1600.0, 1598.0, 1601.0, 1604.0, 1607.0, 1608.0, 1604.0, 1600.0, 1599.0, 1599.0, 1600.0, 1599.0, 1599.0, 1600.0, 1600.0, 1598.0, 1597.0, 1598.0, 1597.0, 1596.0, 1593.0, 1593.0, 1592.0, 1592.0, 1593.0, 1594.0, 1594.0, 1592.0, 1592.0, 1597.0, 1590.0, 1598.0, 1596.0, 1593.0, 1596.0, 1593.0, 1591.0, 1591.0, 1593.0, 1594.0, 1594.0, 1592.0, 1592.0, 1593.0, 1593.0, 1593.0, 1594.0, 1593.0, 1593.0, 1593.0, 1592.0, 1592.0, 1590.0, 1590.0, 1591.0, 1593.0, 1592.0, 1591.0, 1590.0, 1589.0, 1589.0, 1590.0, 1593.0, 1599.0, 1599.0, 1595.0, 1597.0, 1595.0, 1590.0, 1587.0, 1582.0, 1580.0, 1577.0, 1577.0, 1578.0, 1577.0, 1582.0, 1580.0, 1581.0, 1580.0, 1584.0, 1588.0, 1591.0, 1591.0, 1590.0, 1590.0, 1591.0, 1592.0, 1595.0, 1594.0, 1595.0, 1596.0, 1596.0, 1597.0, 1597.0, 1598.0, 1598.0, 1596.0, 1594.0, 1594.0, 1603.0, 1593.0, 1607.0, 1596.0, 1591.0, 1589.0, 1589.0, 1591.0, 1590.0, 1590.0, 1587.0, 1585.0, 1587.0, 1588.0, 1588.0, 1586.0, 1585.0, 1586.0, 1587.0, 1587.0, 1593.0]
    },
    "slices": {}
  }
}