{
  "AcquisitionMatrixPE": 72,
  "AcquisitionNumber": 1,
  "AcquisitionTime": "17:22:22.495000",
  "BandwidthPerPixelPhaseEncode": 17.943,
  "BaseResolution": 96,
  "BodyPartExamined": "BRAIN",
  "CoilCombinationMethod": "Sum of Squares",
  "ConsistencyInfo": "N4_VE11C_LATEST_20160120",
  "ConversionSoftware": "dcm2niix",
  "ConversionSoftwareVersion": "v1.0.20211006",
  "DerivedVendorReportedEchoSpacing": 0.000552897,
  "DeviceSerialNumber": "166011",
  "EchoTime": 0.03,
  "EchoTrainLength": 58,
  "EffectiveEchoSpacing": 0.000580542,
  "FlipAngle": 62,
  "ImageOrientationPatientDICOM": [0.999392, -0.00173058, 0.0348117, 0.00593059, 0.992646, -0.120911],
  "ImageType": [
    "ORIGINAL",
    "PRIMARY",
    "M",
    "ND",
    "MOSAIC"
],
  "ImagingFrequency": 123.26,
  "InPlanePhaseEncodingDirectionDICOM": "COL",
  "InstitutionAddress": "West 130th Street 610,NY,NYC,US,10025",
  "InstitutionName": "MBBI",
  "MRAcquisitionType": "2D",
  "MagneticFieldStrength": 3,
  "Manufacturer": "Siemens",
  "ManufacturersModelName": "Prisma",
  "Modality": "MR",
  "MultibandAccelerationFactor": 3,
  "PartialFourier": 0.75,
  "PatientPosition": "HFS",
  "PercentPhaseFOV": 100,
  "PercentSampling": 75,
  "PhaseEncodingDirection": "j-",
  "PhaseEncodingSteps": 58,
  "PhaseOversampling": 0.05,
  "PhaseResolution": 0.75,
  "PixelBandwidth": 2265,
  "ProcedureStepDescription": "White^Word_recognition",
  "ProtocolName": "func_language_run3",
  "PulseSequenceDetails": "%SiemensSeq%\\ep2d_bold",
  "ReceiveCoilActiveElements": "HC1-7",
  "ReceiveCoilName": "HeadNeck_64",
  "ReconMatrixPE": 96,
  "RefLinesPE": 40,
  "RepetitionTime": 1.5,
  "SAR": 0.044425,
  "ScanOptions": "PFP\\FS",
  "ScanningSequence": "EP",
  "SequenceName": "*epfid2d1_72",
  "SequenceVariant": "SK\\OSP",
  "SeriesDescription": "func_language_run3",
  "SeriesNumber": 14,
  "ShimSetting": [-1146, -1307, 614, 627, -115, 68, -82, 5],
  "SliceThickness": 2,
  "SliceTiming": [1.075, 0, 0.74, 0.0675, 0.8075, 0.135, 0.875, 0.2025, 0.9425, 0.27, 1.01, 0.4025, 1.1425, 0.47, 1.21, 0.5375, 1.2775, 0.605, 1.345, 0.6725, 1.4125, 0.335, 1.075, 0, 0.74, 0.0675, 0.8075, 0.135, 0.875, 0.2025, 0.9425, 0.27, 1.01, 0.4025, 1.1425, 0.47, 1.21, 0.5375, 1.2775, 0.605, 1.345, 0.6725, 1.4125, 0.335, 1.075, 0, 0.74, 0.0675, 0.8075, 0.135, 0.875, 0.2025, 0.9425, 0.27, 1.01, 0.4025, 1.1425, 0.47, 1.21, 0.5375, 1.2775, 0.605, 1.345, 0.6725, 1.4125, 0.335],
  "SoftwareVersions": "syngo MR E11",
  "SpacingBetweenSlices": 2,
  "StationName": "AWP166011",
  "TaskName": "langLoc",
  "TotalReadoutTime": 0.0551515,
  "TxRefAmp": 218.081,
  "dcmmeta_affine": [
    [-1.9987847805023193, 0.011861187405884266, 0.06869293004274368, 100.80621337890625],
    [0.0034611665178090334, 1.9852911233901978, -0.24208875000476837, -70.71260070800781],
    [0.06962346285581589, 0.2418227642774582, 1.9841054677963257, -79.58406066894531],
    [0.0, 0.0, 0.0, 1.0]
],
  "dcmmeta_reorient_transform": [
    [0.0, -1.0, 0.0, 95.0],
    [1.0, 0.0, 0.0, 0.0],
    [0.0, 0.0, 1.0, 0.0],
    [0.0, 0.0, 0.0, 1.0]
],
  "dcmmeta_shape": [96, 96, 66, 239],
  "dcmmeta_slice_dim": 2,
  "dcmmeta_version": 0.6,
  "global": {
    "const": {
      "AcquisitionMatrix": [96, 0, 0, 72],
      "AngioFlag": "N",
      "BitsAllocated": 16,
      "BitsStored": 12,
      "BodyPartExamined": "BRAIN",
      "Columns": 864,
      "EchoNumbers": 1,
      "EchoTime": 30.0,
      "EchoTrainLength": 58,
      "FlipAngle": 62.0,
      "HighBit": 11,
      "ImageOrientationPatient": [0.9993923896365, -0.0017305832458, 0.03481173104382, 0.00593059380201, 0.99264558928641, -0.120911381298],
      "ImagePositionPatient": [-874.02107431151, -878.9127836944, 9.5136329758892],
      "ImageType": [
        "ORIGINAL",
        "PRIMARY",
        "M",
        "ND",
        "MOSAIC"
],
      "ImagedNucleus": "1H",
      "ImagingFrequency": 123.259668,
      "InPlanePhaseEncodingDirection": "COL",
      "MRAcquisitionType": "2D",
      "MagneticFieldStrength": 3.0,
      "Manufacturer": "SIEMENS",
      "ManufacturerModelName": "Prisma",
      "Modality": "MR",
      "NumberOfAverages": 1.0,
      "NumberOfPhaseEncodingSteps": 58,
      "PercentPhaseFieldOfView": 100.0,
      "PercentSampling": 75.0,
      "PerformedProcedureStepStartTime": "162359.649000",
      "PhotometricInterpretation": "MONOCHROME2",
      "PixelBandwidth": 2265.0,
      "PixelRepresentation": 0,
      "PixelSpacing": [2.0, 2.0],
      "ProtocolName": "func_language_run3",
      "RepetitionTime": 1500.0,
      "Rows": 864,
      "SAR": 0.04442500227403,
      "SamplesPerPixel": 1,
      "ScanOptions": [
        "PFP",
        "FS"
],
      "ScanningSequence": "EP",
      "SequenceName": "*epfid2d1_72",
      "SequenceVariant": [
        "SK",
        "OSP"
],
      "SeriesDescription": "func_language_run3",
      "SeriesNumber": 14,
      "SeriesTime": "172312.045000",
      "SliceLocation": -66.929884086073,
      "SliceThickness": 2.0,
      "SmallestImagePixelValue": 0,
      "SoftwareVersions": "syngo MR E11",
      "SpacingBetweenSlices": 2.000000085627,
      "SpecificCharacterSet": "ISO_IR 100",
      "StudyID": "3",
      "StudyTime": "162359.596000",
      "TransmitCoilName": "Body",
      "VariableFlipAngleFlag": "N",
      "WindowCenterWidthExplanation": "Algo1",
      "dBdt": 0.0},
    "slices": {}
  },
  "time": {
    "samples": {
      "AcquisitionNumber": [1, 2, 3, 4, 5, 6, 7, 8, 9, 10, 11, 12, 13, 14, 15, 16, 17, 18, 19, 20, 21, 22, 23, 24, 25, 26, 27, 28, 29, 30, 31, 32, 33, 34, 35, 36, 37, 38, 39, 40, 41, 42, 43, 44, 45, 46, 47, 48, 49, 50, 51, 52, 53, 54, 55, 56, 57, 58, 59, 60, 61, 62, 63, 64, 65, 66, 67, 68, 69, 70, 71, 72, 73, 74, 75, 76, 77, 78, 79, 80, 81, 82, 83, 84, 85, 86, 87, 88, 89, 90, 91, 92, 93, 94, 95, 96, 97, 98, 99, 100, 101, 102, 103, 104, 105, 106, 107, 108, 109, 110, 111, 112, 113, 114, 115, 116, 117, 118, 119, 120, 121, 122, 123, 124, 125, 126, 127, 128, 129, 130, 131, 132, 133, 134, 135, 136, 137, 138, 139, 140, 141, 142, 143, 144, 145, 146, 147, 148, 149, 150, 151, 152, 153, 154, 155, 156, 157, 158, 159, 160, 161, 162, 163, 164, 165, 166, 167, 168, 169, 170, 171, 172, 173, 174, 175, 176, 177, 178, 179, 180, 181, 182, 183, 184, 185, 186, 187, 188, 189, 190, 191, 192, 193, 194, 195, 196, 197, 198, 199, 200, 201, 202, 203, 204, 205, 206, 207, 208, 209, 210, 211, 212, 213, 214, 215, 216, 217, 218, 219, 220, 221, 222, 223, 224, 225, 226, 227, 228, 229, 230, 231, 232, 233, 234, 235, 236, 237, 238, 239],
      "AcquisitionTime": ["172222.495000", "172223.995000", "172225.495000", "172226.995000", "172228.495000", "172229.995000", "172231.495000", "172232.995000", "172234.495000", "172235.995000", "172237.495000", "172238.995000", "172240.495000", "172241.995000", "172243.495000", "172244.995000", "172246.495000", "172247.995000", "172249.495000", "172250.995000", "172252.495000", "172253.995000", "172255.495000", "172256.995000", "172258.495000", "172259.995000", "172301.495000", "172302.995000", "172304.495000", "172305.995000", "172307.495000", "172308.995000", "172310.495000", "172311.995000", "172313.495000", "172314.995000", "172316.495000", "172317.995000", "172319.495000", "172320.995000", "172322.495000", "172323.995000", "172325.495000", "172326.995000", "172328.495000", "172329.995000", "172331.495000", "172332.995000", "172334.495000", "172335.995000", "172337.495000", "172338.995000", "172340.495000", "172341.995000", "172343.495000", "172344.995000", "172346.495000", "172347.995000", "172349.495000", "172350.995000", "172352.495000", "172353.995000", "172355.495000", "172356.995000", "172358.495000", "172359.995000", "172401.495000", "172402.995000", "172404.495000", "172405.995000", "172407.495000", "172408.995000", "172410.495000", "172411.995000", "172413.495000", "172414.995000", "172416.495000", "172417.995000", "172419.495000", "172420.995000", "172422.495000", "172423.995000", "172425.495000", "172426.995000", "172428.495000", "172429.995000", "172431.495000", "172432.995000", "172434.495000", "172435.995000", "172437.495000", "172438.995000", "172440.495000", "172441.995000", "172443.495000", "172444.995000", "172446.495000", "172447.995000", "172449.495000", "172450.995000", "172452.495000", "172453.995000", "172455.495000", "172456.995000", "172458.495000", "172459.995000", "172501.495000", "172502.995000", "172504.495000", "172505.995000", "172507.495000", "172508.995000", "172510.495000", "172511.995000", "172513.495000", "172514.995000", "172516.495000", "172517.995000", "172519.495000", "172520.995000", "172522.495000", "172523.995000", "172525.495000", "172526.995000", "172528.495000", "172529.995000", "172531.495000", "172532.995000", "172534.495000", "172535.995000", "172537.495000", "172538.995000", "172540.495000", "172541.995000", "172543.495000", "172544.995000", "172546.495000", "172547.995000", "172549.495000", "172550.995000", "172552.495000", "172553.995000", "172555.495000", "172556.995000", "172558.495000", "172559.995000", "172601.495000", "172602.995000", "172604.495000", "172605.995000", "172607.495000", "172608.995000", "172610.495000", "172611.995000", "172613.495000", "172614.995000", "172616.495000", "172617.995000", "172619.495000", "172620.995000", "172622.495000", "172623.995000", "172625.495000", "172626.995000", "172628.495000", "172629.995000", "172631.495000", "172632.995000", "172634.495000", "172635.995000", "172637.495000", "172638.995000", "172640.495000", "172641.995000", "172643.495000", "172644.995000", "172646.495000", "172647.995000", "172649.495000", "172650.995000", "172652.495000", "172653.995000", "172655.495000", "172656.995000", "172658.495000", "172659.995000", "172701.495000", "172702.995000", "172704.495000", "172705.995000", "172707.495000", "172708.995000", "172710.495000", "172711.995000", "172713.495000", "172714.995000", "172716.495000", "172717.995000", "172719.495000", "172720.995000", "172722.495000", "172723.995000", "172725.495000", "172726.995000", "172728.495000", "172729.995000", "172731.495000", "172732.995000", "172734.495000", "172735.995000", "172737.495000", "172738.995000", "172740.495000", "172741.995000", "172743.495000", "172744.995000", "172746.495000", "172747.995000", "172749.495000", "172750.995000", "172752.495000", "172753.995000", "172755.495000", "172756.995000", "172758.495000", "172759.995000", "172801.495000", "172802.995000", "172804.495000", "172805.995000", "172807.495000", "172808.995000", "172810.495000", "172811.995000", "172813.495000", "172814.995000", "172816.495000", "172817.995000", "172819.495000"],
      "ContentTime": ["172312.049000", "172312.053000", "172312.056000", "172312.069000", "172312.072000", "172312.075000", "172312.078000", "172312.081000", "172312.084000", "172312.087000", "172312.090000", "172312.093000", "172312.097000", "172312.104000", "172312.108000", "172312.111000", "172312.114000", "172312.117000", "172312.120000", "172312.123000", "172312.126000", "172312.130000", "172312.133000", "172312.136000", "172312.139000", "172312.143000", "172312.145000", "172312.148000", "172312.151000", "172312.155000", "172312.158000", "172312.160000", "172352.044000", "172352.047000", "172352.050000", "172352.053000", "172352.057000", "172352.060000", "172352.063000", "172352.066000", "172352.069000", "172352.072000", "172352.075000", "172352.078000", "172352.083000", "172352.086000", "172352.089000", "172352.092000", "172352.095000", "172352.099000", "172352.102000", "172352.105000", "172352.108000", "172352.111000", "172352.114000", "172352.117000", "172352.120000", "172352.123000", "172352.126000", "172432.044000", "172432.047000", "172432.050000", "172432.054000", "172432.057000", "172432.060000", "172432.063000", "172432.066000", "172432.069000", "172432.072000", "172432.075000", "172432.078000", "172432.081000", "172432.084000", "172432.087000", "172432.090000", "172432.093000", "172432.096000", "172432.099000", "172432.102000", "172432.105000", "172432.108000", "172432.111000", "172432.114000", "172432.117000", "172432.120000", "172432.123000", "172512.043000", "172512.046000", "172512.049000", "172512.052000", "172512.056000", "172512.059000", "172512.062000", "172512.065000", "172512.068000", "172512.071000", "172512.074000", "172512.077000", "172512.080000", "172512.083000", "172512.086000", "172512.090000", "172512.093000", "172512.096000", "172512.100000", "172512.103000", "172512.106000", "172512.109000", "172512.112000", "172512.115000", "172512.118000", "172512.121000", "172552.044000", "172552.047000", "172552.050000", "172552.053000", "172552.057000", "172552.060000", "172552.063000", "172552.065000", "172552.069000", "172552.072000", "172552.075000", "172552.078000", "172552.081000", "172552.084000", "172552.087000", "172552.090000", "172552.093000", "172552.096000", "172552.099000", "172552.102000", "172552.105000", "172552.108000", "172552.111000", "172552.123000", "172552.127000", "172552.130000", "172552.133000", "172632.044000", "172632.047000", "172632.050000", "172632.054000", "172632.057000", "172632.060000", "172632.063000", "172632.066000", "172632.069000", "172632.072000", "172632.075000", "172632.078000", "172632.081000", "172632.084000", "172632.087000", "172632.090000", "172632.093000", "172632.096000", "172632.099000", "172632.102000", "172632.105000", "172632.109000", "172632.112000", "172632.135000", "172632.138000", "172632.141000", "172632.144000", "172712.043000", "172712.046000", "172712.049000", "172712.052000", "172712.056000", "172712.059000", "172712.062000", "172712.065000", "172712.068000", "172712.071000", "172712.074000", "172712.077000", "172712.080000", "172712.083000", "172712.086000", "172712.089000", "172712.092000", "172712.095000", "172712.098000", "172712.101000", "172712.105000", "172712.108000", "172712.111000", "172712.114000", "172712.117000", "172712.120000", "172752.044000", "172752.047000", "172752.050000", "172752.053000", "172752.057000", "172752.060000", "172752.063000", "172752.066000", "172752.069000", "172752.072000", "172752.075000", "172752.078000", "172752.081000", "172752.084000", "172752.087000", "172752.090000", "172752.093000", "172752.096000", "172752.099000", "172752.102000", "172752.105000", "172752.108000", "172752.111000", "172752.114000", "172752.118000", "172752.121000", "172752.124000", "172821.111000", "172821.114000", "172821.117000", "172821.120000", "172821.124000", "172821.127000", "172821.130000", "172821.133000", "172821.136000", "172821.139000", "172821.143000", "172821.146000", "172821.149000", "172821.152000", "172821.155000", "172821.191000", "172821.194000", "172821.197000", "172821.200000", "172821.203000"],
      "InstanceCreationTime": ["172312.049000", "172312.053000", "172312.056000", "172312.069000", "172312.072000", "172312.075000", "172312.078000", "172312.081000", "172312.084000", "172312.087000", "172312.090000", "172312.093000", "172312.097000", "172312.104000", "172312.108000", "172312.111000", "172312.114000", "172312.117000", "172312.120000", "172312.123000", "172312.126000", "172312.130000", "172312.133000", "172312.136000", "172312.139000", "172312.143000", "172312.145000", "172312.148000", "172312.151000", "172312.155000", "172312.158000", "172312.160000", "172352.044000", "172352.047000", "172352.050000", "172352.053000", "172352.057000", "172352.060000", "172352.063000", "172352.066000", "172352.069000", "172352.072000", "172352.075000", "172352.078000", "172352.083000", "172352.086000", "172352.089000", "172352.092000", "172352.095000", "172352.099000", "172352.102000", "172352.105000", "172352.108000", "172352.111000", "172352.114000", "172352.117000", "172352.120000", "172352.123000", "172352.126000", "172432.044000", "172432.047000", "172432.050000", "172432.054000", "172432.057000", "172432.060000", "172432.063000", "172432.066000", "172432.069000", "172432.072000", "172432.075000", "172432.078000", "172432.081000", "172432.084000", "172432.087000", "172432.090000", "172432.093000", "172432.096000", "172432.099000", "172432.102000", "172432.105000", "172432.108000", "172432.111000", "172432.114000", "172432.117000", "172432.120000", "172432.123000", "172512.043000", "172512.046000", "172512.049000", "172512.052000", "172512.056000", "172512.059000", "172512.062000", "172512.065000", "172512.068000", "172512.071000", "172512.074000", "172512.077000", "172512.080000", "172512.083000", "172512.086000", "172512.090000", "172512.093000", "172512.096000", "172512.100000", "172512.103000", "172512.106000", "172512.109000", "172512.112000", "172512.115000", "172512.118000", "172512.121000", "172552.044000", "172552.047000", "172552.050000", "172552.053000", "172552.057000", "172552.060000", "172552.063000", "172552.065000", "172552.069000", "172552.072000", "172552.075000", "172552.078000", "172552.081000", "172552.084000", "172552.087000", "172552.090000", "172552.093000", "172552.096000", "172552.099000", "172552.102000", "172552.105000", "172552.108000", "172552.111000", "172552.123000", "172552.127000", "172552.130000", "172552.133000", "172632.044000", "172632.047000", "172632.050000", "172632.054000", "172632.057000", "172632.060000", "172632.063000", "172632.066000", "172632.069000", "172632.072000", "172632.075000", "172632.078000", "172632.081000", "172632.084000", "172632.087000", "172632.090000", "172632.093000", "172632.096000", "172632.099000", "172632.102000", "172632.105000", "172632.109000", "172632.112000", "172632.135000", "172632.138000", "172632.141000", "172632.144000", "172712.043000", "172712.046000", "172712.049000", "172712.052000", "172712.056000", "172712.059000", "172712.062000", "172712.065000", "172712.068000", "172712.071000", "172712.074000", "172712.077000", "172712.080000", "172712.083000", "172712.086000", "172712.089000", "172712.092000", "172712.095000", "172712.098000", "172712.101000", "172712.105000", "172712.108000", "172712.111000", "172712.114000", "172712.117000", "172712.120000", "172752.044000", "172752.047000", "172752.050000", "172752.053000", "172752.057000", "172752.060000", "172752.063000", "172752.066000", "172752.069000", "172752.072000", "172752.075000", "172752.078000", "172752.081000", "172752.084000", "172752.087000", "172752.090000", "172752.093000", "172752.096000", "172752.099000", "172752.102000", "172752.105000", "172752.108000", "172752.111000", "172752.114000", "172752.118000", "172752.121000", "172752.124000", "172821.111000", "172821.114000", "172821.117000", "172821.120000", "172821.124000", "172821.127000", "172821.130000", "172821.133000", "172821.136000", "172821.139000", "172821.143000", "172821.146000", "172821.149000", "172821.152000", "172821.155000", "172821.191000", "172821.194000", "172821.197000", "172821.200000", "172821.203000"],
      "InstanceNumber": [1, 2, 3, 4, 5, 6, 7, 8, 9, 10, 11, 12, 13, 14, 15, 16, 17, 18, 19, 20, 21, 22, 23, 24, 25, 26, 27, 28, 29, 30, 31, 32, 33, 34, 35, 36, 37, 38, 39, 40, 41, 42, 43, 44, 45, 46, 47, 48, 49, 50, 51, 52, 53, 54, 55, 56, 57, 58, 59, 60, 61, 62, 63, 64, 65, 66, 67, 68, 69, 70, 71, 72, 73, 74, 75, 76, 77, 78, 79, 80, 81, 82, 83, 84, 85, 86, 87, 88, 89, 90, 91, 92, 93, 94, 95, 96, 97, 98, 99, 100, 101, 102, 103, 104, 105, 106, 107, 108, 109, 110, 111, 112, 113, 114, 115, 116, 117, 118, 119, 120, 121, 122, 123, 124, 125, 126, 127, 128, 129, 130, 131, 132, 133, 134, 135, 136, 137, 138, 139, 140, 141, 142, 143, 144, 145, 146, 147, 148, 149, 150, 151, 152, 153, 154, 155, 156, 157, 158, 159, 160, 161, 162, 163, 164, 165, 166, 167, 168, 169, 170, 171, 172, 173, 174, 175, 176, 177, 178, 179, 180, 181, 182, 183, 184, 185, 186, 187, 188, 189, 190, 191, 192, 193, 194, 195, 196, 197, 198, 199, 200, 201, 202, 203, 204, 205, 206, 207, 208, 209, 210, 211, 212, 213, 214, 215, 216, 217, 218, 219, 220, 221, 222, 223, 224, 225, 226, 227, 228, 229, 230, 231, 232, 233, 234, 235, 236, 237, 238, 239],
      "LargestImagePixelValue": [3402, 3352, 3294, 3285, 3288, 3285, 3260, 3313, 3313, 3288, 3277, 3294, 3284, 3287, 3281, 3267, 3294, 3277, 3281, 3296, 3285, 3306, 3290, 3308, 3280, 3291, 3294, 3289, 3291, 3288, 3279, 3294, 3291, 3292, 3293, 3284, 3283, 3279, 3260, 3287, 3280, 3279, 3273, 3283, 3261, 3275, 3272, 3274, 3272, 3269, 3275, 3282, 3285, 3246, 3280, 3272, 3272, 3258, 3268, 3269, 3266, 3271, 3279, 3274, 3266, 3277, 3286, 3288, 3277, 3284, 3283, 3295, 3250, 3286, 3276, 3298, 3268, 3306, 3287, 3290, 3284, 3284, 3275, 3290, 3294, 3267, 3275, 3256, 3266, 3282, 3291, 3284, 3304, 3261, 3276, 3296, 3265, 3297, 3265, 3268, 3277, 3283, 3293, 3265, 3286, 3271, 3278, 3257, 3293, 3279, 3267, 3271, 3267, 3297, 3260, 3291, 3282, 3287, 3252, 3279, 3251, 3269, 3263, 3288, 3244, 3277, 3284, 3286, 3260, 3284, 3254, 3288, 3284, 3311, 3286, 3312, 3339, 3304, 3309, 3280, 3312, 3305, 3316, 3299, 3307, 3319, 3306, 3313, 3289, 3301, 3294, 3314, 3317, 3305, 3311, 3297, 3308, 3299, 3313, 3316, 3333, 3319, 3313, 3297, 3314, 3291, 3304, 3300, 3324, 3315, 3314, 3283, 3318, 3314, 3307, 3301, 3325, 3293, 3319, 3290, 3281, 3285, 3294, 3288, 3305, 3292, 3278, 3309, 3299, 3298, 3306, 3299, 3280, 3280, 3301, 3277, 3282, 3280, 3328, 3280, 3312, 3271, 3264, 3272, 3298, 3281, 3282, 3270, 3289, 3264, 3286, 3285, 3287, 3325, 3299, 3289, 3286, 3304, 3284, 3293, 3326, 3273, 3287, 3288, 3276, 3280, 3270, 3285, 3302, 3283, 3306, 3292, 3277, 3263, 3303, 3263, 3290, 3309, 3285],
      "WindowCenter": [807.0, 804.0, 804.0, 802.0, 802.0, 801.0, 799.0, 802.0, 804.0, 803.0, 802.0, 800.0, 799.0, 798.0, 798.0, 800.0, 801.0, 803.0, 805.0, 805.0, 805.0, 805.0, 804.0, 804.0, 805.0, 805.0, 805.0, 805.0, 805.0, 804.0, 805.0, 805.0, 804.0, 804.0, 803.0, 804.0, 804.0, 804.0, 804.0, 804.0, 804.0, 804.0, 804.0, 804.0, 804.0, 804.0, 803.0, 803.0, 803.0, 803.0, 803.0, 803.0, 803.0, 803.0, 804.0, 804.0, 804.0, 803.0, 802.0, 803.0, 803.0, 803.0, 803.0, 802.0, 802.0, 802.0, 803.0, 803.0, 803.0, 804.0, 803.0, 803.0, 803.0, 803.0, 803.0, 804.0, 805.0, 805.0, 804.0, 804.0, 804.0, 804.0, 803.0, 803.0, 803.0, 802.0, 802.0, 802.0, 803.0, 803.0, 804.0, 803.0, 802.0, 804.0, 804.0, 803.0, 802.0, 802.0, 802.0, 803.0, 804.0, 804.0, 804.0, 803.0, 804.0, 804.0, 804.0, 804.0, 804.0, 804.0, 803.0, 803.0, 803.0, 803.0, 802.0, 802.0, 803.0, 804.0, 805.0, 804.0, 803.0, 802.0, 802.0, 802.0, 802.0, 802.0, 803.0, 803.0, 803.0, 802.0, 803.0, 803.0, 803.0, 803.0, 802.0, 802.0, 802.0, 801.0, 802.0, 801.0, 800.0, 800.0, 800.0, 800.0, 801.0, 802.0, 802.0, 803.0, 803.0, 803.0, 803.0, 803.0, 803.0, 802.0, 803.0, 802.0, 802.0, 802.0, 802.0, 802.0, 802.0, 802.0, 803.0, 803.0, 803.0, 803.0, 803.0, 802.0, 802.0, 803.0, 804.0, 804.0, 803.0, 803.0, 803.0, 803.0, 803.0, 803.0, 802.0, 802.0, 802.0, 802.0, 803.0, 803.0, 804.0, 804.0, 804.0, 804.0, 804.0, 804.0, 804.0, 804.0, 803.0, 803.0, 803.0, 804.0, 804.0, 803.0, 803.0, 802.0, 802.0, 802.0, 802.0, 802.0, 802.0, 803.0, 803.0, 803.0, 803.0, 803.0, 803.0, 803.0, 803.0, 804.0, 804.0, 804.0, 803.0, 803.0, 803.0, 803.0, 803.0, 802.0, 802.0, 802.0, 803.0, 802.0, 802.0, 802.0, 802.0, 803.0, 803.0, 803.0, 804.0, 803.0, 803.0, 803.0, 802.0, 802.0, 803.0],
      "WindowWidth": [1831.0, 1822.0, 1819.0, 1814.0, 1811.0, 1808.0, 1803.0, 1815.0, 1821.0, 1817.0, 1812.0, 1806.0, 1802.0, 1800.0, 1801.0, 1805.0, 1811.0, 1817.0, 1821.0, 1824.0, 1823.0, 1822.0, 1820.0, 1821.0, 1821.0, 1823.0, 1823.0, 1822.0, 1822.0, 1822.0, 1822.0, 1824.0, 1820.0, 1818.0, 1817.0, 1819.0, 1819.0, 1819.0, 1819.0, 1821.0, 1820.0, 1820.0, 1819.0, 1820.0, 1819.0, 1818.0, 1817.0, 1817.0, 1817.0, 1817.0, 1816.0, 1816.0, 1816.0, 1817.0, 1819.0, 1820.0, 1818.0, 1816.0, 1813.0, 1815.0, 1816.0, 1817.0, 1818.0, 1814.0, 1813.0, 1814.0, 1815.0, 1817.0, 1818.0, 1819.0, 1817.0, 1818.0, 1816.0, 1817.0, 1817.0, 1820.0, 1822.0, 1823.0, 1821.0, 1820.0, 1821.0, 1820.0, 1817.0, 1816.0, 1818.0, 1813.0, 1813.0, 1812.0, 1815.0, 1817.0, 1819.0, 1817.0, 1814.0, 1820.0, 1819.0, 1817.0, 1812.0, 1813.0, 1814.0, 1817.0, 1820.0, 1821.0, 1820.0, 1817.0, 1820.0, 1820.0, 1819.0, 1818.0, 1820.0, 1820.0, 1816.0, 1815.0, 1816.0, 1817.0, 1813.0, 1814.0, 1816.0, 1820.0, 1822.0, 1819.0, 1815.0, 1813.0, 1813.0, 1813.0, 1813.0, 1814.0, 1816.0, 1816.0, 1814.0, 1814.0, 1816.0, 1816.0, 1816.0, 1815.0, 1813.0, 1814.0, 1812.0, 1811.0, 1813.0, 1810.0, 1806.0, 1806.0, 1807.0, 1807.0, 1808.0, 1811.0, 1814.0, 1817.0, 1815.0, 1816.0, 1815.0, 1815.0, 1815.0, 1814.0, 1815.0, 1812.0, 1812.0, 1812.0, 1812.0, 1812.0, 1812.0, 1814.0, 1816.0, 1816.0, 1818.0, 1817.0, 1816.0, 1814.0, 1814.0, 1817.0, 1820.0, 1818.0, 1818.0, 1818.0, 1818.0, 1817.0, 1817.0, 1815.0, 1815.0, 1813.0, 1813.0, 1813.0, 1815.0, 1816.0, 1820.0, 1819.0, 1819.0, 1820.0, 1820.0, 1820.0, 1820.0, 1818.0, 1815.0, 1814.0, 1816.0, 1818.0, 1820.0, 1816.0, 1814.0, 1813.0, 1814.0, 1813.0, 1810.0, 1811.0, 1812.0, 1815.0, 1817.0, 1816.0, 1815.0, 1815.0, 1816.0, 1817.0, 1817.0, 1820.0, 1819.0, 1819.0, 1816.0, 1815.0, 1815.0, 1817.0, 1815.0, 1812.0, 1811.0, 1813.0, 1816.0, 1814.0, 1814.0, 1813.0, 1814.0, 1816.0, 1817.0, 1818.0, 1820.0, 1817.0, 1815.0, 1814.0, 1813.0, 1814.0, 1815.0]
    },
    "slices": {}
  }
}