{
  "AcquisitionMatrixPE": 72,
  "AcquisitionNumber": 1,
  "AcquisitionTime": "17:02:41.825000",
  "BandwidthPerPixelPhaseEncode": 17.943,
  "BaseResolution": 96,
  "BodyPartExamined": "BRAIN",
  "CoilCombinationMethod": "Sum of Squares",
  "ConsistencyInfo": "N4_VE11C_LATEST_20160120",
  "ConversionSoftware": "dcm2niix",
  "ConversionSoftwareVersion": "v1.0.20211006",
  "DerivedVendorReportedEchoSpacing": 0.000552897,
  "DeviceSerialNumber": "166011",
  "EchoTime": 0.03,
  "EchoTrainLength": 58,
  "EffectiveEchoSpacing": 0.000580542,
  "FlipAngle": 62,
  "ImageOrientationPatientDICOM": [0.999392, -0.00173058, 0.0348117, 0.00593059, 0.992646, -0.120911],
  "ImageType": [
    "ORIGINAL",
    "PRIMARY",
    "M",
    "ND",
    "MOSAIC"
],
  "ImagingFrequency": 123.26,
  "InPlanePhaseEncodingDirectionDICOM": "COL",
  "InstitutionAddress": "West 130th Street 610,NY,NYC,US,10025",
  "InstitutionName": "MBBI",
  "MRAcquisitionType": "2D",
  "MagneticFieldStrength": 3,
  "Manufacturer": "Siemens",
  "ManufacturersModelName": "Prisma",
  "Modality": "MR",
  "MultibandAccelerationFactor": 3,
  "PartialFourier": 0.75,
  "PatientPosition": "HFS",
  "PercentPhaseFOV": 100,
  "PercentSampling": 75,
  "PhaseEncodingDirection": "j-",
  "PhaseEncodingSteps": 58,
  "PhaseOversampling": 0.05,
  "PhaseResolution": 0.75,
  "PixelBandwidth": 2265,
  "ProcedureStepDescription": "White^Word_recognition",
  "ProtocolName": "func_vwfate_run15",
  "PulseSequenceDetails": "%SiemensSeq%\\ep2d_bold",
  "ReceiveCoilActiveElements": "HC1-7",
  "ReceiveCoilName": "HeadNeck_64",
  "ReconMatrixPE": 96,
  "RefLinesPE": 40,
  "RepetitionTime": 1.5,
  "SAR": 0.0442384,
  "ScanOptions": "PFP\\FS",
  "ScanningSequence": "EP",
  "SequenceName": "*epfid2d1_72",
  "SequenceVariant": "SK\\OSP",
  "SeriesDescription": "func_vwfate_run15",
  "SeriesNumber": 11,
  "ShimSetting": [-1146, -1307, 614, 627, -115, 68, -82, 5],
  "SliceThickness": 2,
  "SliceTiming": [1.0775, 0, 0.74, 0.0675, 0.8075, 0.135, 0.875, 0.2025, 0.9425, 0.27, 1.01, 0.405, 1.145, 0.47, 1.21, 0.5375, 1.2775, 0.605, 1.345, 0.6725, 1.4125, 0.3375, 1.0775, 0, 0.74, 0.0675, 0.8075, 0.135, 0.875, 0.2025, 0.9425, 0.27, 1.01, 0.405, 1.145, 0.47, 1.21, 0.5375, 1.2775, 0.605, 1.345, 0.6725, 1.4125, 0.3375, 1.0775, 0, 0.74, 0.0675, 0.8075, 0.135, 0.875, 0.2025, 0.9425, 0.27, 1.01, 0.405, 1.145, 0.47, 1.21, 0.5375, 1.2775, 0.605, 1.345, 0.6725, 1.4125, 0.3375],
  "SoftwareVersions": "syngo MR E11",
  "SpacingBetweenSlices": 2,
  "StationName": "AWP166011",
  "TaskName": "vwfate",
  "TotalReadoutTime": 0.0551515,
  "TxRefAmp": 218.081,
  "dcmmeta_affine": [
    [-1.9987847805023193, 0.011861187405884266, 0.06869293004274368, 100.80621337890625],
    [0.0034611665178090334, 1.9852911233901978, -0.24208875000476837, -70.71260070800781],
    [0.06962346285581589, 0.2418227642774582, 1.9841054677963257, -79.58406066894531],
    [0.0, 0.0, 0.0, 1.0]
],
  "dcmmeta_reorient_transform": [
    [0.0, -1.0, 0.0, 95.0],
    [1.0, 0.0, 0.0, 0.0],
    [0.0, 0.0, 1.0, 0.0],
    [0.0, 0.0, 0.0, 1.0]
],
  "dcmmeta_shape": [96, 96, 66, 164],
  "dcmmeta_slice_dim": 2,
  "dcmmeta_version": 0.6,
  "global": {
    "const": {
      "AcquisitionMatrix": [96, 0, 0, 72],
      "AngioFlag": "N",
      "BitsAllocated": 16,
      "BitsStored": 12,
      "BodyPartExamined": "BRAIN",
      "Columns": 864,
      "EchoNumbers": 1,
      "EchoTime": 30.0,
      "EchoTrainLength": 58,
      "FlipAngle": 62.0,
      "HighBit": 11,
      "ImageOrientationPatient": [0.9993923896365, -0.0017305832458, 0.03481173104382, 0.00593059380201, 0.99264558928641, -0.120911381298],
      "ImagePositionPatient": [-874.02107431151, -878.9127836944, 9.5136329758892],
      "ImageType": [
        "ORIGINAL",
        "PRIMARY",
        "M",
        "ND",
        "MOSAIC"
],
      "ImagedNucleus": "1H",
      "ImagingFrequency": 123.25966,
      "InPlanePhaseEncodingDirection": "COL",
      "MRAcquisitionType": "2D",
      "MagneticFieldStrength": 3.0,
      "Manufacturer": "SIEMENS",
      "ManufacturerModelName": "Prisma",
      "Modality": "MR",
      "NumberOfAverages": 1.0,
      "NumberOfPhaseEncodingSteps": 58,
      "PercentPhaseFieldOfView": 100.0,
      "PercentSampling": 75.0,
      "PerformedProcedureStepStartTime": "162359.649000",
      "PhotometricInterpretation": "MONOCHROME2",
      "PixelBandwidth": 2265.0,
      "PixelRepresentation": 0,
      "PixelSpacing": [2.0, 2.0],
      "ProtocolName": "func_vwfate_run15",
      "RepetitionTime": 1500.0,
      "Rows": 864,
      "SAR": 0.04423844753344,
      "SamplesPerPixel": 1,
      "ScanOptions": [
        "PFP",
        "FS"
],
      "ScanningSequence": "EP",
      "SequenceName": "*epfid2d1_72",
      "SequenceVariant": [
        "SK",
        "OSP"
],
      "SeriesDescription": "func_vwfate_run15",
      "SeriesNumber": 11,
      "SeriesTime": "170312.045000",
      "SliceLocation": -66.929884086073,
      "SliceThickness": 2.0,
      "SmallestImagePixelValue": 0,
      "SoftwareVersions": "syngo MR E11",
      "SpacingBetweenSlices": 2.000000085627,
      "SpecificCharacterSet": "ISO_IR 100",
      "StudyID": "3",
      "StudyTime": "162359.596000",
      "TransmitCoilName": "Body",
      "VariableFlipAngleFlag": "N",
      "WindowCenterWidthExplanation": "Algo1",
      "dBdt": 0.0},
    "slices": {}
  },
  "time": {
    "samples": {
      "AcquisitionNumber": [1, 2, 3, 4, 5, 6, 7, 8, 9, 10, 11, 12, 13, 14, 15, 16, 17, 18, 19, 20, 21, 22, 23, 24, 25, 26, 27, 28, 29, 30, 31, 32, 33, 34, 35, 36, 37, 38, 39, 40, 41, 42, 43, 44, 45, 46, 47, 48, 49, 50, 51, 52, 53, 54, 55, 56, 57, 58, 59, 60, 61, 62, 63, 64, 65, 66, 67, 68, 69, 70, 71, 72, 73, 74, 75, 76, 77, 78, 79, 80, 81, 82, 83, 84, 85, 86, 87, 88, 89, 90, 91, 92, 93, 94, 95, 96, 97, 98, 99, 100, 101, 102, 103, 104, 105, 106, 107, 108, 109, 110, 111, 112, 113, 114, 115, 116, 117, 118, 119, 120, 121, 122, 123, 124, 125, 126, 127, 128, 129, 130, 131, 132, 133, 134, 135, 136, 137, 138, 139, 140, 141, 142, 143, 144, 145, 146, 147, 148, 149, 150, 151, 152, 153, 154, 155, 156, 157, 158, 159, 160, 161, 162, 163, 164],
      "AcquisitionTime": ["170241.825000", "170243.325000", "170244.825000", "170246.325000", "170247.825000", "170249.325000", "170250.825000", "170252.325000", "170253.825000", "170255.325000", "170256.825000", "170258.325000", "170259.825000", "170301.325000", "170302.825000", "170304.325000", "170305.825000", "170307.325000", "170308.825000", "170310.325000", "170311.825000", "170313.325000", "170314.825000", "170316.325000", "170317.825000", "170319.325000", "170320.825000", "170322.325000", "170323.825000", "170325.325000", "170326.825000", "170328.325000", "170329.825000", "170331.325000", "170332.825000", "170334.325000", "170335.825000", "170337.325000", "170338.825000", "170340.325000", "170341.825000", "170343.325000", "170344.825000", "170346.325000", "170347.825000", "170349.325000", "170350.825000", "170352.325000", "170353.825000", "170355.325000", "170356.825000", "170358.325000", "170359.825000", "170401.325000", "170402.825000", "170404.325000", "170405.825000", "170407.325000", "170408.825000", "170410.325000", "170411.825000", "170413.325000", "170414.825000", "170416.325000", "170417.825000", "170419.325000", "170420.825000", "170422.325000", "170423.825000", "170425.325000", "170426.825000", "170428.325000", "170429.825000", "170431.325000", "170432.825000", "170434.325000", "170435.825000", "170437.325000", "170438.825000", "170440.325000", "170441.825000", "170443.325000", "170444.825000", "170446.325000", "170447.825000", "170449.325000", "170450.825000", "170452.325000", "170453.825000", "170455.325000", "170456.825000", "170458.325000", "170459.825000", "170501.325000", "170502.825000", "170504.325000", "170505.825000", "170507.325000", "170508.825000", "170510.325000", "170511.825000", "170513.325000", "170514.825000", "170516.325000", "170517.825000", "170519.325000", "170520.825000", "170522.325000", "170523.825000", "170525.325000", "170526.825000", "170528.325000", "170529.825000", "170531.325000", "170532.825000", "170534.325000", "170535.825000", "170537.325000", "170538.825000", "170540.325000", "170541.825000", "170543.325000", "170544.825000", "170546.325000", "170547.825000", "170549.325000", "170550.825000", "170552.325000", "170553.825000", "170555.325000", "170556.825000", "170558.325000", "170559.825000", "170601.325000", "170602.825000", "170604.325000", "170605.825000", "170607.325000", "170608.825000", "170610.325000", "170611.825000", "170613.325000", "170614.825000", "170616.325000", "170617.825000", "170619.325000", "170620.825000", "170622.325000", "170623.825000", "170625.325000", "170626.825000", "170628.325000", "170629.825000", "170631.325000", "170632.825000", "170634.325000", "170635.825000", "170637.325000", "170638.825000", "170640.325000", "170641.825000", "170643.325000", "170644.825000", "170646.325000"],
      "ContentTime": ["170312.049000", "170312.053000", "170312.056000", "170312.059000", "170312.062000", "170312.065000", "170312.068000", "170312.071000", "170312.074000", "170312.077000", "170312.080000", "170312.083000", "170312.086000", "170312.091000", "170312.094000", "170312.097000", "170312.100000", "170312.103000", "170312.106000", "170312.109000", "170352.043000", "170352.046000", "170352.050000", "170352.053000", "170352.072000", "170352.075000", "170352.084000", "170352.087000", "170352.090000", "170352.093000", "170352.096000", "170352.099000", "170352.102000", "170352.105000", "170352.108000", "170352.111000", "170352.114000", "170352.117000", "170352.121000", "170352.124000", "170352.127000", "170352.130000", "170352.133000", "170352.136000", "170352.139000", "170352.142000", "170352.145000", "170432.044000", "170432.047000", "170432.050000", "170432.054000", "170432.057000", "170432.060000", "170432.063000", "170432.066000", "170432.069000", "170432.072000", "170432.075000", "170432.078000", "170432.081000", "170432.084000", "170432.087000", "170432.090000", "170432.093000", "170432.097000", "170432.100000", "170432.103000", "170432.106000", "170432.111000", "170432.114000", "170432.117000", "170432.120000", "170432.123000", "170512.044000", "170512.047000", "170512.050000", "170512.061000", "170512.064000", "170512.067000", "170512.070000", "170512.074000", "170512.077000", "170512.080000", "170512.082000", "170512.086000", "170512.089000", "170512.091000", "170512.095000", "170512.098000", "170512.101000", "170512.104000", "170512.107000", "170512.110000", "170512.113000", "170512.116000", "170512.119000", "170512.122000", "170512.125000", "170512.128000", "170512.131000", "170552.044000", "170552.047000", "170552.050000", "170552.053000", "170552.056000", "170552.059000", "170552.063000", "170552.066000", "170552.069000", "170552.072000", "170552.075000", "170552.078000", "170552.081000", "170552.084000", "170552.087000", "170552.090000", "170552.093000", "170552.096000", "170552.099000", "170552.102000", "170552.105000", "170552.108000", "170552.111000", "170552.114000", "170552.117000", "170552.120000", "170552.123000", "170632.043000", "170632.046000", "170632.049000", "170632.053000", "170632.056000", "170632.058000", "170632.061000", "170632.065000", "170632.068000", "170632.071000", "170632.075000", "170632.079000", "170632.083000", "170632.086000", "170632.090000", "170632.093000", "170632.096000", "170632.099000", "170632.102000", "170632.105000", "170632.108000", "170632.111000", "170632.114000", "170632.117000", "170632.120000", "170632.123000", "170647.075000", "170647.079000", "170647.082000", "170647.085000", "170647.088000", "170647.091000", "170647.094000", "170647.098000", "170647.101000", "170647.104000", "170647.107000"],
      "InstanceCreationTime": ["170312.049000", "170312.053000", "170312.056000", "170312.059000", "170312.062000", "170312.065000", "170312.068000", "170312.071000", "170312.074000", "170312.077000", "170312.080000", "170312.083000", "170312.086000", "170312.091000", "170312.094000", "170312.097000", "170312.100000", "170312.103000", "170312.106000", "170312.109000", "170352.043000", "170352.046000", "170352.050000", "170352.053000", "170352.072000", "170352.075000", "170352.084000", "170352.087000", "170352.090000", "170352.093000", "170352.096000", "170352.099000", "170352.102000", "170352.105000", "170352.108000", "170352.111000", "170352.114000", "170352.117000", "170352.121000", "170352.124000", "170352.127000", "170352.130000", "170352.133000", "170352.136000", "170352.139000", "170352.142000", "170352.145000", "170432.044000", "170432.047000", "170432.050000", "170432.054000", "170432.057000", "170432.060000", "170432.063000", "170432.066000", "170432.069000", "170432.072000", "170432.075000", "170432.078000", "170432.081000", "170432.084000", "170432.087000", "170432.090000", "170432.093000", "170432.097000", "170432.100000", "170432.103000", "170432.106000", "170432.111000", "170432.114000", "170432.117000", "170432.120000", "170432.123000", "170512.044000", "170512.047000", "170512.050000", "170512.061000", "170512.064000", "170512.067000", "170512.070000", "170512.074000", "170512.077000", "170512.080000", "170512.082000", "170512.086000", "170512.089000", "170512.091000", "170512.095000", "170512.098000", "170512.101000", "170512.104000", "170512.107000", "170512.110000", "170512.113000", "170512.116000", "170512.119000", "170512.122000", "170512.125000", "170512.128000", "170512.131000", "170552.044000", "170552.047000", "170552.050000", "170552.053000", "170552.056000", "170552.059000", "170552.063000", "170552.066000", "170552.069000", "170552.072000", "170552.075000", "170552.078000", "170552.081000", "170552.084000", "170552.087000", "170552.090000", "170552.093000", "170552.096000", "170552.099000", "170552.102000", "170552.105000", "170552.108000", "170552.111000", "170552.114000", "170552.117000", "170552.120000", "170552.123000", "170632.043000", "170632.046000", "170632.049000", "170632.053000", "170632.056000", "170632.058000", "170632.061000", "170632.065000", "170632.068000", "170632.071000", "170632.075000", "170632.079000", "170632.083000", "170632.086000", "170632.090000", "170632.093000", "170632.096000", "170632.099000", "170632.102000", "170632.105000", "170632.108000", "170632.111000", "170632.114000", "170632.117000", "170632.120000", "170632.123000", "170647.075000", "170647.079000", "170647.082000", "170647.085000", "170647.088000", "170647.091000", "170647.094000", "170647.098000", "170647.101000", "170647.104000", "170647.107000"],
      "InstanceNumber": [1, 2, 3, 4, 5, 6, 7, 8, 9, 10, 11, 12, 13, 14, 15, 16, 17, 18, 19, 20, 21, 22, 23, 24, 25, 26, 27, 28, 29, 30, 31, 32, 33, 34, 35, 36, 37, 38, 39, 40, 41, 42, 43, 44, 45, 46, 47, 48, 49, 50, 51, 52, 53, 54, 55, 56, 57, 58, 59, 60, 61, 62, 63, 64, 65, 66, 67, 68, 69, 70, 71, 72, 73, 74, 75, 76, 77, 78, 79, 80, 81, 82, 83, 84, 85, 86, 87, 88, 89, 90, 91, 92, 93, 94, 95, 96, 97, 98, 99, 100, 101, 102, 103, 104, 105, 106, 107, 108, 109, 110, 111, 112, 113, 114, 115, 116, 117, 118, 119, 120, 121, 122, 123, 124, 125, 126, 127, 128, 129, 130, 131, 132, 133, 134, 135, 136, 137, 138, 139, 140, 141, 142, 143, 144, 145, 146, 147, 148, 149, 150, 151, 152, 153, 154, 155, 156, 157, 158, 159, 160, 161, 162, 163, 164],
      "LargestImagePixelValue": [3501, 3431, 3339, 3361, 3309, 3312, 3303, 3294, 3280, 3326, 3314, 3327, 3294, 3318, 3350, 3320, 3310, 3316, 3316, 3318, 3346, 3333, 3336, 3294, 3311, 3310, 3340, 3297, 3322, 3320, 3340, 3312, 3327, 3316, 3325, 3325, 3279, 3318, 3298, 3312, 3327, 3310, 3311, 3322, 3313, 3344, 3308, 3341, 3356, 3323, 3320, 3331, 3344, 3283, 3315, 3303, 3325, 3301, 3287, 3295, 3317, 3288, 3299, 3339, 3330, 3290, 3293, 3341, 3309, 3303, 3288, 3271, 3288, 3311, 3322, 3305, 3297, 3289, 3324, 3301, 3321, 3303, 3324, 3316, 3329, 3305, 3324, 3314, 3336, 3298, 3339, 3302, 3325, 3315, 3328, 3354, 3334, 3323, 3334, 3327, 3327, 3320, 3335, 3317, 3300, 3344, 3303, 3327, 3308, 3340, 3292, 3289, 3300, 3300, 3288, 3277, 3296, 3316, 3310, 3289, 3307, 3293, 3300, 3314, 3307, 3300, 3325, 3316, 3316, 3290, 3304, 3294, 3290, 3296, 3298, 3303, 3309, 3299, 3315, 3342, 3312, 3331, 3319, 3317, 3311, 3305, 3296, 3299, 3330, 3330, 3311, 3317, 3303, 3302, 3324, 3327, 3315, 3305, 3289, 3289, 3297, 3309, 3295, 3309],
      "WindowCenter": [807.0, 805.0, 803.0, 802.0, 802.0, 802.0, 803.0, 802.0, 802.0, 803.0, 803.0, 804.0, 804.0, 803.0, 804.0, 804.0, 803.0, 804.0, 803.0, 803.0, 803.0, 803.0, 804.0, 803.0, 803.0, 804.0, 805.0, 805.0, 804.0, 803.0, 803.0, 803.0, 803.0, 803.0, 803.0, 802.0, 802.0, 802.0, 801.0, 802.0, 802.0, 803.0, 803.0, 803.0, 803.0, 803.0, 803.0, 804.0, 803.0, 804.0, 803.0, 804.0, 804.0, 804.0, 804.0, 804.0, 804.0, 803.0, 803.0, 803.0, 803.0, 803.0, 803.0, 802.0, 804.0, 803.0, 804.0, 805.0, 803.0, 802.0, 802.0, 802.0, 801.0, 801.0, 802.0, 803.0, 803.0, 803.0, 803.0, 803.0, 803.0, 803.0, 803.0, 803.0, 803.0, 803.0, 803.0, 803.0, 804.0, 804.0, 804.0, 804.0, 804.0, 804.0, 804.0, 803.0, 803.0, 804.0, 804.0, 804.0, 803.0, 803.0, 804.0, 804.0, 804.0, 804.0, 804.0, 804.0, 803.0, 804.0, 804.0, 804.0, 804.0, 804.0, 805.0, 804.0, 804.0, 804.0, 804.0, 803.0, 804.0, 805.0, 804.0, 803.0, 803.0, 804.0, 804.0, 805.0, 804.0, 804.0, 803.0, 803.0, 804.0, 804.0, 804.0, 805.0, 805.0, 805.0, 805.0, 805.0, 805.0, 805.0, 804.0, 804.0, 806.0, 805.0, 804.0, 804.0, 804.0, 804.0, 805.0, 804.0, 804.0, 805.0, 806.0, 805.0, 805.0, 803.0, 802.0, 803.0, 804.0, 804.0, 802.0, 801.0],
      "WindowWidth": [1833.0, 1824.0, 1818.0, 1815.0, 1814.0, 1814.0, 1815.0, 1815.0, 1813.0, 1816.0, 1818.0, 1820.0, 1821.0, 1819.0, 1820.0, 1820.0, 1818.0, 1819.0, 1817.0, 1817.0, 1818.0, 1819.0, 1820.0, 1818.0, 1818.0, 1820.0, 1823.0, 1823.0, 1822.0, 1817.0, 1816.0, 1817.0, 1818.0, 1818.0, 1816.0, 1815.0, 1813.0, 1812.0, 1811.0, 1812.0, 1815.0, 1817.0, 1819.0, 1818.0, 1818.0, 1818.0, 1818.0, 1820.0, 1819.0, 1819.0, 1818.0, 1821.0, 1822.0, 1819.0, 1819.0, 1819.0, 1819.0, 1817.0, 1816.0, 1816.0, 1816.0, 1816.0, 1817.0, 1814.0, 1821.0, 1818.0, 1821.0, 1825.0, 1818.0, 1815.0, 1815.0, 1813.0, 1810.0, 1810.0, 1813.0, 1816.0, 1817.0, 1816.0, 1816.0, 1816.0, 1817.0, 1816.0, 1817.0, 1817.0, 1817.0, 1816.0, 1817.0, 1818.0, 1820.0, 1820.0, 1819.0, 1819.0, 1820.0, 1820.0, 1819.0, 1818.0, 1819.0, 1820.0, 1821.0, 1820.0, 1818.0, 1819.0, 1820.0, 1821.0, 1820.0, 1821.0, 1819.0, 1820.0, 1817.0, 1819.0, 1820.0, 1820.0, 1821.0, 1821.0, 1823.0, 1820.0, 1820.0, 1822.0, 1819.0, 1818.0, 1822.0, 1823.0, 1820.0, 1818.0, 1819.0, 1820.0, 1821.0, 1823.0, 1822.0, 1820.0, 1818.0, 1818.0, 1820.0, 1820.0, 1822.0, 1823.0, 1823.0, 1823.0, 1823.0, 1823.0, 1822.0, 1822.0, 1821.0, 1822.0, 1826.0, 1824.0, 1821.0, 1821.0, 1823.0, 1822.0, 1823.0, 1821.0, 1821.0, 1824.0, 1826.0, 1825.0, 1823.0, 1817.0, 1814.0, 1817.0, 1820.0, 1818.0, 1813.0, 1811.0]
    },
    "slices": {}
  }
}