{
  "AcquisitionMatrixPE": 72,
  "AcquisitionNumber": 1,
  "AcquisitionTime": "16:51:57.762500",
  "BandwidthPerPixelPhaseEncode": 17.943,
  "BaseResolution": 96,
  "BodyPartExamined": "BRAIN",
  "CoilCombinationMethod": "Sum of Squares",
  "ConsistencyInfo": "N4_VE11C_LATEST_20160120",
  "ConversionSoftware": "dcm2niix",
  "ConversionSoftwareVersion": "v1.0.20211006",
  "DerivedVendorReportedEchoSpacing": 0.000552897,
  "DeviceSerialNumber": "166011",
  "EchoTime": 0.03,
  "EchoTrainLength": 58,
  "EffectiveEchoSpacing": 0.000580542,
  "FlipAngle": 62,
  "ImageOrientationPatientDICOM": [0.999392, -0.00173058, 0.0348117, 0.00593059, 0.992646, -0.120911],
  "ImageType": [
    "ORIGINAL",
    "PRIMARY",
    "M",
    "ND",
    "MOSAIC"
],
  "ImagingFrequency": 123.26,
  "InPlanePhaseEncodingDirectionDICOM": "COL",
  "InstitutionAddress": "West 130th Street 610,NY,NYC,US,10025",
  "InstitutionName": "MBBI",
  "MRAcquisitionType": "2D",
  "MagneticFieldStrength": 3,
  "Manufacturer": "Siemens",
  "ManufacturersModelName": "Prisma",
  "Modality": "MR",
  "MultibandAccelerationFactor": 3,
  "PartialFourier": 0.75,
  "PatientPosition": "HFS",
  "PercentPhaseFOV": 100,
  "PercentSampling": 75,
  "PhaseEncodingDirection": "j-",
  "PhaseEncodingSteps": 58,
  "PhaseOversampling": 0.05,
  "PhaseResolution": 0.75,
  "PixelBandwidth": 2265,
  "ProcedureStepDescription": "White^Word_recognition",
  "ProtocolName": "func_vwfate_run13",
  "PulseSequenceDetails": "%SiemensSeq%\\ep2d_bold",
  "ReceiveCoilActiveElements": "HC1-7",
  "ReceiveCoilName": "HeadNeck_64",
  "ReconMatrixPE": 96,
  "RefLinesPE": 40,
  "RepetitionTime": 1.5,
  "SAR": 0.0442384,
  "ScanOptions": "PFP\\FS",
  "ScanningSequence": "EP",
  "SequenceName": "*epfid2d1_72",
  "SequenceVariant": "SK\\OSP",
  "SeriesDescription": "func_vwfate_run13",
  "SeriesNumber": 9,
  "ShimSetting": [-1146, -1307, 614, 627, -115, 68, -82, 5],
  "SliceThickness": 2,
  "SliceTiming": [1.075, 0, 0.74, 0.0675, 0.8075, 0.135, 0.875, 0.2025, 0.9425, 0.27, 1.01, 0.4025, 1.1425, 0.47, 1.21, 0.5375, 1.2775, 0.605, 1.345, 0.6725, 1.4125, 0.335, 1.075, 0, 0.74, 0.0675, 0.8075, 0.135, 0.875, 0.2025, 0.9425, 0.27, 1.01, 0.4025, 1.1425, 0.47, 1.21, 0.5375, 1.2775, 0.605, 1.345, 0.6725, 1.4125, 0.335, 1.075, 0, 0.74, 0.0675, 0.8075, 0.135, 0.875, 0.2025, 0.9425, 0.27, 1.01, 0.4025, 1.1425, 0.47, 1.21, 0.5375, 1.2775, 0.605, 1.345, 0.6725, 1.4125, 0.335],
  "SoftwareVersions": "syngo MR E11",
  "SpacingBetweenSlices": 2,
  "StationName": "AWP166011",
  "TaskName": "vwfate",
  "TotalReadoutTime": 0.0551515,
  "TxRefAmp": 218.081,
  "dcmmeta_affine": [
    [-1.9987847805023193, 0.011861187405884266, 0.06869293004274368, 100.80621337890625],
    [0.0034611665178090334, 1.9852911233901978, -0.24208875000476837, -70.71260070800781],
    [0.06962346285581589, 0.2418227642774582, 1.9841054677963257, -79.58406066894531],
    [0.0, 0.0, 0.0, 1.0]
],
  "dcmmeta_reorient_transform": [
    [0.0, -1.0, 0.0, 95.0],
    [1.0, 0.0, 0.0, 0.0],
    [0.0, 0.0, 1.0, 0.0],
    [0.0, 0.0, 0.0, 1.0]
],
  "dcmmeta_shape": [96, 96, 66, 164],
  "dcmmeta_slice_dim": 2,
  "dcmmeta_version": 0.6,
  "global": {
    "const": {
      "AcquisitionMatrix": [96, 0, 0, 72],
      "AngioFlag": "N",
      "BitsAllocated": 16,
      "BitsStored": 12,
      "BodyPartExamined": "BRAIN",
      "Columns": 864,
      "EchoNumbers": 1,
      "EchoTime": 30.0,
      "EchoTrainLength": 58,
      "FlipAngle": 62.0,
      "HighBit": 11,
      "ImageOrientationPatient": [0.9993923896365, -0.0017305832458, 0.03481173104382, 0.00593059380201, 0.99264558928641, -0.120911381298],
      "ImagePositionPatient": [-874.02107431151, -878.9127836944, 9.5136329758892],
      "ImageType": [
        "ORIGINAL",
        "PRIMARY",
        "M",
        "ND",
        "MOSAIC"
],
      "ImagedNucleus": "1H",
      "ImagingFrequency": 123.259654,
      "InPlanePhaseEncodingDirection": "COL",
      "MRAcquisitionType": "2D",
      "MagneticFieldStrength": 3.0,
      "Manufacturer": "SIEMENS",
      "ManufacturerModelName": "Prisma",
      "Modality": "MR",
      "NumberOfAverages": 1.0,
      "NumberOfPhaseEncodingSteps": 58,
      "PercentPhaseFieldOfView": 100.0,
      "PercentSampling": 75.0,
      "PerformedProcedureStepStartTime": "162359.649000",
      "PhotometricInterpretation": "MONOCHROME2",
      "PixelBandwidth": 2265.0,
      "PixelRepresentation": 0,
      "PixelSpacing": [2.0, 2.0],
      "ProtocolName": "func_vwfate_run13",
      "RepetitionTime": 1500.0,
      "Rows": 864,
      "SAR": 0.04423844753344,
      "SamplesPerPixel": 1,
      "ScanOptions": [
        "PFP",
        "FS"
],
      "ScanningSequence": "EP",
      "SequenceName": "*epfid2d1_72",
      "SequenceVariant": [
        "SK",
        "OSP"
],
      "SeriesDescription": "func_vwfate_run13",
      "SeriesNumber": 9,
      "SeriesTime": "165232.127000",
      "SliceLocation": -66.929884086073,
      "SliceThickness": 2.0,
      "SmallestImagePixelValue": 0,
      "SoftwareVersions": "syngo MR E11",
      "SpacingBetweenSlices": 2.000000085627,
      "SpecificCharacterSet": "ISO_IR 100",
      "StudyID": "3",
      "StudyTime": "162359.596000",
      "TransmitCoilName": "Body",
      "VariableFlipAngleFlag": "N",
      "WindowCenterWidthExplanation": "Algo1",
      "dBdt": 0.0},
    "slices": {}
  },
  "time": {
    "samples": {
      "AcquisitionNumber": [1, 2, 3, 4, 5, 6, 7, 8, 9, 10, 11, 12, 13, 14, 15, 16, 17, 18, 19, 20, 21, 22, 23, 24, 25, 26, 27, 28, 29, 30, 31, 32, 33, 34, 35, 36, 37, 38, 39, 40, 41, 42, 43, 44, 45, 46, 47, 48, 49, 50, 51, 52, 53, 54, 55, 56, 57, 58, 59, 60, 61, 62, 63, 64, 65, 66, 67, 68, 69, 70, 71, 72, 73, 74, 75, 76, 77, 78, 79, 80, 81, 82, 83, 84, 85, 86, 87, 88, 89, 90, 91, 92, 93, 94, 95, 96, 97, 98, 99, 100, 101, 102, 103, 104, 105, 106, 107, 108, 109, 110, 111, 112, 113, 114, 115, 116, 117, 118, 119, 120, 121, 122, 123, 124, 125, 126, 127, 128, 129, 130, 131, 132, 133, 134, 135, 136, 137, 138, 139, 140, 141, 142, 143, 144, 145, 146, 147, 148, 149, 150, 151, 152, 153, 154, 155, 156, 157, 158, 159, 160, 161, 162, 163, 164],
      "AcquisitionTime": ["165157.762500", "165159.262500", "165200.762500", "165202.262500", "165203.762500", "165205.262500", "165206.762500", "165208.262500", "165209.762500", "165211.262500", "165212.762500", "165214.262500", "165215.762500", "165217.262500", "165218.762500", "165220.262500", "165221.762500", "165223.262500", "165224.762500", "165226.262500", "165227.762500", "165229.262500", "165230.762500", "165232.262500", "165233.762500", "165235.262500", "165236.762500", "165238.262500", "165239.762500", "165241.262500", "165242.762500", "165244.262500", "165245.762500", "165247.262500", "165248.762500", "165250.262500", "165251.762500", "165253.262500", "165254.762500", "165256.262500", "165257.762500", "165259.262500", "165300.762500", "165302.262500", "165303.762500", "165305.262500", "165306.762500", "165308.262500", "165309.762500", "165311.262500", "165312.762500", "165314.262500", "165315.762500", "165317.262500", "165318.762500", "165320.262500", "165321.762500", "165323.262500", "165324.762500", "165326.262500", "165327.762500", "165329.262500", "165330.762500", "165332.262500", "165333.762500", "165335.262500", "165336.762500", "165338.262500", "165339.762500", "165341.262500", "165342.762500", "165344.262500", "165345.762500", "165347.262500", "165348.762500", "165350.262500", "165351.762500", "165353.262500", "165354.762500", "165356.262500", "165357.762500", "165359.262500", "165400.762500", "165402.262500", "165403.762500", "165405.262500", "165406.762500", "165408.262500", "165409.762500", "165411.262500", "165412.762500", "165414.262500", "165415.762500", "165417.262500", "165418.762500", "165420.262500", "165421.762500", "165423.262500", "165424.762500", "165426.262500", "165427.762500", "165429.262500", "165430.762500", "165432.262500", "165433.762500", "165435.262500", "165436.762500", "165438.262500", "165439.762500", "165441.262500", "165442.762500", "165444.262500", "165445.762500", "165447.262500", "165448.762500", "165450.262500", "165451.762500", "165453.262500", "165454.762500", "165456.262500", "165457.762500", "165459.262500", "165500.762500", "165502.262500", "165503.762500", "165505.262500", "165506.762500", "165508.262500", "165509.762500", "165511.262500", "165512.762500", "165514.262500", "165515.762500", "165517.262500", "165518.762500", "165520.262500", "165521.762500", "165523.262500", "165524.762500", "165526.262500", "165527.762500", "165529.262500", "165530.762500", "165532.262500", "165533.762500", "165535.262500", "165536.762500", "165538.262500", "165539.762500", "165541.262500", "165542.762500", "165544.262500", "165545.762500", "165547.262500", "165548.762500", "165550.262500", "165551.762500", "165553.262500", "165554.762500", "165556.262500", "165557.762500", "165559.262500", "165600.762500", "165602.262500"],
      "ContentTime": ["165232.133000", "165232.137000", "165232.140000", "165232.143000", "165232.147000", "165232.150000", "165232.153000", "165232.157000", "165232.160000", "165232.164000", "165232.167000", "165232.174000", "165232.177000", "165232.180000", "165232.185000", "165232.191000", "165232.194000", "165232.197000", "165232.200000", "165232.203000", "165232.206000", "165232.209000", "165232.212000", "165312.127000", "165312.130000", "165312.133000", "165312.137000", "165312.140000", "165312.143000", "165312.146000", "165312.156000", "165312.159000", "165312.162000", "165312.165000", "165312.168000", "165312.171000", "165312.174000", "165312.177000", "165312.181000", "165312.184000", "165312.186000", "165312.190000", "165312.193000", "165312.196000", "165312.199000", "165312.202000", "165312.205000", "165312.208000", "165312.211000", "165352.127000", "165352.130000", "165352.133000", "165352.137000", "165352.140000", "165352.143000", "165352.146000", "165352.149000", "165352.152000", "165352.155000", "165352.158000", "165352.162000", "165352.165000", "165352.168000", "165352.171000", "165352.174000", "165352.177000", "165352.180000", "165352.183000", "165352.186000", "165352.189000", "165352.192000", "165352.198000", "165352.202000", "165352.205000", "165352.208000", "165352.211000", "165432.127000", "165432.130000", "165432.133000", "165432.136000", "165432.139000", "165432.143000", "165432.147000", "165432.150000", "165432.153000", "165432.156000", "165432.160000", "165432.163000", "165432.166000", "165432.169000", "165432.172000", "165432.175000", "165432.178000", "165432.181000", "165432.184000", "165432.187000", "165432.190000", "165432.193000", "165432.196000", "165432.200000", "165432.203000", "165432.206000", "165432.209000", "165512.127000", "165512.130000", "165512.133000", "165512.137000", "165512.140000", "165512.143000", "165512.146000", "165512.149000", "165512.152000", "165512.155000", "165512.158000", "165512.161000", "165512.164000", "165512.167000", "165512.170000", "165512.174000", "165512.176000", "165512.179000", "165512.183000", "165512.186000", "165512.189000", "165512.192000", "165512.195000", "165512.198000", "165512.201000", "165512.204000", "165552.127000", "165552.130000", "165552.134000", "165552.138000", "165552.156000", "165552.159000", "165552.162000", "165552.166000", "165552.169000", "165552.172000", "165552.176000", "165552.179000", "165552.182000", "165552.185000", "165552.188000", "165552.191000", "165552.194000", "165552.197000", "165552.200000", "165552.203000", "165552.206000", "165552.209000", "165552.212000", "165552.216000", "165552.219000", "165552.222000", "165552.225000", "165603.353000", "165603.357000", "165603.360000", "165603.363000", "165603.367000", "165603.370000", "165603.373000", "165603.377000"],
      "InstanceCreationTime": ["165232.133000", "165232.137000", "165232.140000", "165232.143000", "165232.147000", "165232.150000", "165232.153000", "165232.157000", "165232.160000", "165232.164000", "165232.167000", "165232.174000", "165232.177000", "165232.180000", "165232.185000", "165232.191000", "165232.194000", "165232.197000", "165232.200000", "165232.203000", "165232.206000", "165232.209000", "165232.212000", "165312.127000", "165312.130000", "165312.133000", "165312.137000", "165312.140000", "165312.143000", "165312.146000", "165312.156000", "165312.159000", "165312.162000", "165312.165000", "165312.168000", "165312.171000", "165312.174000", "165312.177000", "165312.181000", "165312.184000", "165312.186000", "165312.190000", "165312.193000", "165312.196000", "165312.199000", "165312.202000", "165312.205000", "165312.208000", "165312.211000", "165352.127000", "165352.130000", "165352.133000", "165352.137000", "165352.140000", "165352.143000", "165352.146000", "165352.149000", "165352.152000", "165352.155000", "165352.158000", "165352.162000", "165352.165000", "165352.168000", "165352.171000", "165352.174000", "165352.177000", "165352.180000", "165352.183000", "165352.186000", "165352.189000", "165352.192000", "165352.198000", "165352.202000", "165352.205000", "165352.208000", "165352.211000", "165432.127000", "165432.130000", "165432.133000", "165432.136000", "165432.139000", "165432.143000", "165432.147000", "165432.150000", "165432.153000", "165432.156000", "165432.160000", "165432.163000", "165432.166000", "165432.169000", "165432.172000", "165432.175000", "165432.178000", "165432.181000", "165432.184000", "165432.187000", "165432.190000", "165432.193000", "165432.196000", "165432.200000", "165432.203000", "165432.206000", "165432.209000", "165512.127000", "165512.130000", "165512.133000", "165512.137000", "165512.140000", "165512.143000", "165512.146000", "165512.149000", "165512.152000", "165512.155000", "165512.158000", "165512.161000", "165512.164000", "165512.167000", "165512.170000", "165512.174000", "165512.176000", "165512.179000", "165512.183000", "165512.186000", "165512.189000", "165512.192000", "165512.195000", "165512.198000", "165512.201000", "165512.204000", "165552.127000", "165552.130000", "165552.134000", "165552.138000", "165552.156000", "165552.159000", "165552.162000", "165552.166000", "165552.169000", "165552.172000", "165552.176000", "165552.179000", "165552.182000", "165552.185000", "165552.188000", "165552.191000", "165552.194000", "165552.197000", "165552.200000", "165552.203000", "165552.206000", "165552.209000", "165552.212000", "165552.216000", "165552.219000", "165552.222000", "165552.225000", "165603.353000", "165603.357000", "165603.360000", "165603.363000", "165603.367000", "165603.370000", "165603.373000", "165603.377000"],
      "InstanceNumber": [1, 2, 3, 4, 5, 6, 7, 8, 9, 10, 11, 12, 13, 14, 15, 16, 17, 18, 19, 20, 21, 22, 23, 24, 25, 26, 27, 28, 29, 30, 31, 32, 33, 34, 35, 36, 37, 38, 39, 40, 41, 42, 43, 44, 45, 46, 47, 48, 49, 50, 51, 52, 53, 54, 55, 56, 57, 58, 59, 60, 61, 62, 63, 64, 65, 66, 67, 68, 69, 70, 71, 72, 73, 74, 75, 76, 77, 78, 79, 80, 81, 82, 83, 84, 85, 86, 87, 88, 89, 90, 91, 92, 93, 94, 95, 96, 97, 98, 99, 100, 101, 102, 103, 104, 105, 106, 107, 108, 109, 110, 111, 112, 113, 114, 115, 116, 117, 118, 119, 120, 121, 122, 123, 124, 125, 126, 127, 128, 129, 130, 131, 132, 133, 134, 135, 136, 137, 138, 139, 140, 141, 142, 143, 144, 145, 146, 147, 148, 149, 150, 151, 152, 153, 154, 155, 156, 157, 158, 159, 160, 161, 162, 163, 164],
      "LargestImagePixelValue": [3433, 3373, 3334, 3301, 3347, 3326, 3297, 3321, 3318, 3353, 3303, 3324, 3309, 3341, 3303, 3330, 3315, 3358, 3324, 3373, 3310, 3364, 3291, 3325, 3311, 3334, 3297, 3320, 3300, 3328, 3305, 3287, 3315, 3307, 3349, 3307, 3330, 3316, 3330, 3321, 3326, 3330, 3298, 3298, 3309, 3305, 3316, 3314, 3337, 3339, 3334, 3316, 3327, 3292, 3300, 3309, 3316, 3305, 3340, 3327, 3322, 3330, 3343, 3354, 3354, 3330, 3306, 3281, 3291, 3324, 3311, 3326, 3303, 3330, 3300, 3321, 3267, 3316, 3291, 3316, 3285, 3325, 3309, 3297, 3346, 3307, 3324, 3262, 3304, 3311, 3311, 3319, 3295, 3273, 3305, 3303, 3308, 3276, 3318, 3325, 3323, 3316, 3297, 3335, 3329, 3300, 3285, 3308, 3303, 3316, 3292, 3296, 3315, 3296, 3303, 3282, 3300, 3320, 3321, 3289, 3308, 3291, 3310, 3271, 3307, 3275, 3311, 3267, 3306, 3283, 3286, 3276, 3306, 3281, 3315, 3304, 3289, 3274, 3291, 3271, 3325, 3255, 3329, 3318, 3330, 3315, 3333, 3294, 3304, 3298, 3309, 3308, 3310, 3309, 3309, 3297, 3313, 3259, 3297, 3273, 3265, 3259, 3279, 3277],
      "WindowCenter": [803.0, 802.0, 801.0, 800.0, 800.0, 799.0, 799.0, 799.0, 799.0, 799.0, 799.0, 800.0, 800.0, 799.0, 799.0, 800.0, 800.0, 801.0, 801.0, 801.0, 802.0, 802.0, 801.0, 802.0, 802.0, 801.0, 801.0, 801.0, 801.0, 800.0, 800.0, 800.0, 800.0, 801.0, 800.0, 800.0, 799.0, 799.0, 799.0, 799.0, 799.0, 798.0, 799.0, 799.0, 799.0, 800.0, 800.0, 800.0, 800.0, 800.0, 800.0, 800.0, 799.0, 799.0, 799.0, 799.0, 799.0, 799.0, 799.0, 800.0, 800.0, 801.0, 801.0, 801.0, 801.0, 800.0, 799.0, 799.0, 799.0, 799.0, 800.0, 799.0, 800.0, 800.0, 800.0, 799.0, 799.0, 799.0, 799.0, 800.0, 800.0, 800.0, 801.0, 801.0, 801.0, 800.0, 800.0, 799.0, 799.0, 799.0, 799.0, 799.0, 799.0, 799.0, 799.0, 799.0, 800.0, 800.0, 800.0, 799.0, 799.0, 799.0, 800.0, 800.0, 800.0, 800.0, 799.0, 798.0, 799.0, 799.0, 799.0, 799.0, 799.0, 799.0, 799.0, 799.0, 800.0, 800.0, 800.0, 800.0, 800.0, 799.0, 799.0, 800.0, 799.0, 800.0, 800.0, 800.0, 800.0, 800.0, 800.0, 800.0, 799.0, 799.0, 799.0, 799.0, 799.0, 799.0, 799.0, 799.0, 800.0, 801.0, 802.0, 802.0, 801.0, 800.0, 800.0, 799.0, 799.0, 799.0, 798.0, 799.0, 799.0, 799.0, 799.0, 799.0, 798.0, 798.0, 798.0, 798.0, 798.0, 798.0, 798.0, 799.0],
      "WindowWidth": [1820.0, 1814.0, 1810.0, 1808.0, 1807.0, 1805.0, 1804.0, 1804.0, 1804.0, 1805.0, 1804.0, 1806.0, 1806.0, 1804.0, 1805.0, 1807.0, 1809.0, 1812.0, 1812.0, 1813.0, 1813.0, 1814.0, 1813.0, 1814.0, 1813.0, 1812.0, 1812.0, 1812.0, 1809.0, 1808.0, 1807.0, 1807.0, 1809.0, 1809.0, 1808.0, 1806.0, 1805.0, 1804.0, 1805.0, 1804.0, 1805.0, 1803.0, 1803.0, 1803.0, 1805.0, 1806.0, 1806.0, 1807.0, 1806.0, 1808.0, 1808.0, 1807.0, 1805.0, 1803.0, 1803.0, 1804.0, 1805.0, 1804.0, 1805.0, 1806.0, 1807.0, 1809.0, 1809.0, 1810.0, 1811.0, 1806.0, 1805.0, 1803.0, 1804.0, 1805.0, 1806.0, 1805.0, 1806.0, 1807.0, 1805.0, 1804.0, 1803.0, 1804.0, 1805.0, 1808.0, 1807.0, 1808.0, 1809.0, 1809.0, 1810.0, 1808.0, 1806.0, 1804.0, 1804.0, 1803.0, 1805.0, 1804.0, 1803.0, 1802.0, 1803.0, 1804.0, 1806.0, 1807.0, 1806.0, 1804.0, 1804.0, 1803.0, 1807.0, 1808.0, 1807.0, 1804.0, 1802.0, 1801.0, 1802.0, 1803.0, 1803.0, 1803.0, 1802.0, 1802.0, 1801.0, 1804.0, 1805.0, 1807.0, 1807.0, 1805.0, 1805.0, 1804.0, 1805.0, 1804.0, 1804.0, 1805.0, 1807.0, 1807.0, 1807.0, 1806.0, 1805.0, 1805.0, 1802.0, 1802.0, 1802.0, 1803.0, 1801.0, 1801.0, 1802.0, 1803.0, 1805.0, 1807.0, 1811.0, 1812.0, 1810.0, 1808.0, 1807.0, 1804.0, 1802.0, 1801.0, 1799.0, 1801.0, 1803.0, 1802.0, 1802.0, 1802.0, 1800.0, 1800.0, 1800.0, 1799.0, 1797.0, 1798.0, 1799.0, 1802.0]
    },
    "slices": {}
  }
}