{
  "AcquisitionMatrixPE": 72,
  "AcquisitionNumber": 1,
  "AcquisitionTime": "15:25:29.082500",
  "BandwidthPerPixelPhaseEncode": 17.943,
  "BaseResolution": 96,
  "BodyPartExamined": "BRAIN",
  "CoilCombinationMethod": "Sum of Squares",
  "ConsistencyInfo": "N4_VE11C_LATEST_20160120",
  "ConversionSoftware": "dcm2niix",
  "ConversionSoftwareVersion": "v1.0.20211006",
  "DerivedVendorReportedEchoSpacing": 0.000552897,
  "DeviceSerialNumber": "166011",
  "EchoTime": 0.03,
  "EchoTrainLength": 58,
  "EffectiveEchoSpacing": 0.000580542,
  "FlipAngle": 62,
  "ImageOrientationPatientDICOM": [0.996823, 0.0489421, 0.0628313, -0.0403851, 0.990574, -0.130889],
  "ImageType": [
    "ORIGINAL",
    "PRIMARY",
    "M",
    "ND",
    "MOSAIC"
],
  "ImagingFrequency": 123.259,
  "InPlanePhaseEncodingDirectionDICOM": "COL",
  "InstitutionAddress": "West 130th Street 610,NY,NYC,US,10025",
  "InstitutionName": "MBBI",
  "MRAcquisitionType": "2D",
  "MagneticFieldStrength": 3,
  "Manufacturer": "Siemens",
  "ManufacturersModelName": "Prisma",
  "Modality": "MR",
  "MultibandAccelerationFactor": 3,
  "PartialFourier": 0.75,
  "PatientPosition": "HFS",
  "PercentPhaseFOV": 100,
  "PercentSampling": 75,
  "PhaseEncodingDirection": "j-",
  "PhaseEncodingSteps": 58,
  "PhaseOversampling": 0.05,
  "PhaseResolution": 0.75,
  "PixelBandwidth": 2265,
  "ProcedureStepDescription": "White^Word_recognition",
  "ProtocolName": "func_vwfate_run7",
  "PulseSequenceDetails": "%SiemensSeq%\\ep2d_bold",
  "ReceiveCoilActiveElements": "HC1-7",
  "ReceiveCoilName": "HeadNeck_64",
  "ReconMatrixPE": 96,
  "RefLinesPE": 40,
  "RepetitionTime": 1.5,
  "SAR": 0.0630167,
  "ScanOptions": "PFP\\FS",
  "ScanningSequence": "EP",
  "SequenceName": "*epfid2d1_72",
  "SequenceVariant": "SK\\OSP",
  "SeriesDescription": "func_vwfate_run7",
  "SeriesNumber": 8,
  "ShimSetting": [-1122, -1342, 673, 504, -190, 1, -51, 32],
  "SliceThickness": 2,
  "SliceTiming": [1.0775, 0, 0.74, 0.0675, 0.8075, 0.135, 0.875, 0.2025, 0.9425, 0.27, 1.01, 0.405, 1.145, 0.4725, 1.2125, 0.54, 1.28, 0.6075, 1.3475, 0.675, 1.415, 0.3375, 1.0775, 0, 0.74, 0.0675, 0.8075, 0.135, 0.875, 0.2025, 0.9425, 0.27, 1.01, 0.405, 1.145, 0.4725, 1.2125, 0.54, 1.28, 0.6075, 1.3475, 0.675, 1.415, 0.3375, 1.0775, 0, 0.74, 0.0675, 0.8075, 0.135, 0.875, 0.2025, 0.9425, 0.27, 1.01, 0.405, 1.145, 0.4725, 1.2125, 0.54, 1.28, 0.6075, 1.3475, 0.675, 1.415, 0.3375],
  "SoftwareVersions": "syngo MR E11",
  "SpacingBetweenSlices": 2,
  "StationName": "AWP166011",
  "TaskName": "vwfate",
  "TotalReadoutTime": 0.0551515,
  "TxRefAmp": 250.964,
  "dcmmeta_affine": [
    [-1.9936468601226807, -0.08077023178339005, 0.13729004561901093, 98.65967559814453],
    [-0.09788412600755692, 1.981148362159729, -0.2558711767196655, -66.69641876220703],
    [0.12566258013248444, 0.2617776393890381, 1.978808045387268, -77.89418029785156],
    [0.0, 0.0, 0.0, 1.0]
],
  "dcmmeta_reorient_transform": [
    [0.0, -1.0, 0.0, 95.0],
    [1.0, 0.0, 0.0, 0.0],
    [0.0, 0.0, 1.0, 0.0],
    [0.0, 0.0, 0.0, 1.0]
],
  "dcmmeta_shape": [96, 96, 66, 164],
  "dcmmeta_slice_dim": 2,
  "dcmmeta_version": 0.6,
  "global": {
    "const": {
      "AcquisitionMatrix": [96, 0, 0, 72],
      "AngioFlag": "N",
      "BitsAllocated": 16,
      "BitsStored": 12,
      "BodyPartExamined": "BRAIN",
      "Columns": 864,
      "EchoNumbers": 1,
      "EchoTime": 30.0,
      "EchoTrainLength": 58,
      "FlipAngle": 62.0,
      "HighBit": 11,
      "ImageOrientationPatient": [0.99682340614473, 0.04894206257144, 0.06283129374186, -0.0403851156916, 0.99057415661064, -0.1308888180316],
      "ImagePositionPatient": [-825.53110803469, -919.8611238622, -0.7571254602143],
      "ImageType": [
        "ORIGINAL",
        "PRIMARY",
        "M",
        "ND",
        "MOSAIC"
],
      "ImagedNucleus": "1H",
      "ImagingFrequency": 123.259453,
      "InPlanePhaseEncodingDirection": "COL",
      "MRAcquisitionType": "2D",
      "MagneticFieldStrength": 3.0,
      "Manufacturer": "SIEMENS",
      "ManufacturerModelName": "Prisma",
      "Modality": "MR",
      "NumberOfAverages": 1.0,
      "NumberOfPhaseEncodingSteps": 58,
      "PercentPhaseFieldOfView": 100.0,
      "PercentSampling": 75.0,
      "PerformedProcedureStepStartTime": "145909.525000",
      "PhotometricInterpretation": "MONOCHROME2",
      "PixelBandwidth": 2265.0,
      "PixelRepresentation": 0,
      "PixelSpacing": [2.0, 2.0],
      "ProtocolName": "func_vwfate_run7",
      "RepetitionTime": 1500.0,
      "Rows": 864,
      "SAR": 0.06301668418083,
      "SamplesPerPixel": 1,
      "ScanOptions": [
        "PFP",
        "FS"
],
      "ScanningSequence": "EP",
      "SequenceName": "*epfid2d1_72",
      "SequenceVariant": [
        "SK",
        "OSP"
],
      "SeriesDescription": "func_vwfate_run7",
      "SeriesNumber": 8,
      "SeriesTime": "152613.218000",
      "SliceLocation": -61.763473906594,
      "SliceThickness": 2.0,
      "SmallestImagePixelValue": 0,
      "SoftwareVersions": "syngo MR E11",
      "SpacingBetweenSlices": 1.9999999956375,
      "SpecificCharacterSet": "ISO_IR 100",
      "StudyID": "2",
      "StudyTime": "145909.474000",
      "TransmitCoilName": "Body",
      "VariableFlipAngleFlag": "N",
      "WindowCenterWidthExplanation": "Algo1",
      "dBdt": 0.0},
    "slices": {}
  },
  "time": {
    "samples": {
      "AcquisitionNumber": [1, 2, 3, 4, 5, 6, 7, 8, 9, 10, 11, 12, 13, 14, 15, 16, 17, 18, 19, 20, 21, 22, 23, 24, 25, 26, 27, 28, 29, 30, 31, 32, 33, 34, 35, 36, 37, 38, 39, 40, 41, 42, 43, 44, 45, 46, 47, 48, 49, 50, 51, 52, 53, 54, 55, 56, 57, 58, 59, 60, 61, 62, 63, 64, 65, 66, 67, 68, 69, 70, 71, 72, 73, 74, 75, 76, 77, 78, 79, 80, 81, 82, 83, 84, 85, 86, 87, 88, 89, 90, 91, 92, 93, 94, 95, 96, 97, 98, 99, 100, 101, 102, 103, 104, 105, 106, 107, 108, 109, 110, 111, 112, 113, 114, 115, 116, 117, 118, 119, 120, 121, 122, 123, 124, 125, 126, 127, 128, 129, 130, 131, 132, 133, 134, 135, 136, 137, 138, 139, 140, 141, 142, 143, 144, 145, 146, 147, 148, 149, 150, 151, 152, 153, 154, 155, 156, 157, 158, 159, 160, 161, 162, 163, 164],
      "AcquisitionTime": ["152529.082500", "152530.582500", "152532.082500", "152533.582500", "152535.082500", "152536.582500", "152538.082500", "152539.582500", "152541.082500", "152542.582500", "152544.082500", "152545.582500", "152547.082500", "152548.582500", "152550.082500", "152551.582500", "152553.082500", "152554.582500", "152556.082500", "152557.582500", "152559.082500", "152600.582500", "152602.082500", "152603.582500", "152605.082500", "152606.582500", "152608.082500", "152609.582500", "152611.082500", "152612.582500", "152614.082500", "152615.582500", "152617.082500", "152618.582500", "152620.082500", "152621.582500", "152623.082500", "152624.582500", "152626.082500", "152627.582500", "152629.082500", "152630.582500", "152632.082500", "152633.582500", "152635.082500", "152636.582500", "152638.082500", "152639.582500", "152641.082500", "152642.582500", "152644.082500", "152645.582500", "152647.082500", "152648.582500", "152650.082500", "152651.582500", "152653.082500", "152654.582500", "152656.082500", "152657.582500", "152659.082500", "152700.582500", "152702.082500", "152703.582500", "152705.082500", "152706.582500", "152708.082500", "152709.582500", "152711.082500", "152712.582500", "152714.082500", "152715.582500", "152717.082500", "152718.582500", "152720.082500", "152721.582500", "152723.082500", "152724.582500", "152726.082500", "152727.582500", "152729.082500", "152730.582500", "152732.082500", "152733.582500", "152735.082500", "152736.582500", "152738.082500", "152739.582500", "152741.082500", "152742.582500", "152744.082500", "152745.582500", "152747.082500", "152748.582500", "152750.082500", "152751.582500", "152753.082500", "152754.582500", "152756.082500", "152757.582500", "152759.082500", "152800.582500", "152802.082500", "152803.582500", "152805.082500", "152806.582500", "152808.082500", "152809.582500", "152811.082500", "152812.582500", "152814.082500", "152815.582500", "152817.082500", "152818.582500", "152820.082500", "152821.582500", "152823.082500", "152824.582500", "152826.082500", "152827.582500", "152829.082500", "152830.582500", "152832.082500", "152833.582500", "152835.082500", "152836.582500", "152838.082500", "152839.582500", "152841.082500", "152842.582500", "152844.082500", "152845.582500", "152847.082500", "152848.582500", "152850.082500", "152851.582500", "152853.082500", "152854.582500", "152856.082500", "152857.582500", "152859.082500", "152900.582500", "152902.082500", "152903.582500", "152905.082500", "152906.582500", "152908.082500", "152909.582500", "152911.082500", "152912.582500", "152914.082500", "152915.582500", "152917.082500", "152918.582500", "152920.082500", "152921.582500", "152923.082500", "152924.582500", "152926.082500", "152927.582500", "152929.082500", "152930.582500", "152932.082500", "152933.582500"],
      "ContentTime": ["152613.222000", "152613.226000", "152613.236000", "152613.240000", "152613.243000", "152613.250000", "152613.253000", "152613.256000", "152613.259000", "152613.262000", "152613.265000", "152613.269000", "152613.272000", "152613.275000", "152613.278000", "152613.281000", "152613.284000", "152613.288000", "152613.291000", "152613.294000", "152613.297000", "152613.300000", "152613.303000", "152613.308000", "152613.326000", "152613.330000", "152613.333000", "152613.342000", "152613.345000", "152653.217000", "152653.220000", "152653.223000", "152653.227000", "152653.230000", "152653.233000", "152653.236000", "152653.240000", "152653.243000", "152653.246000", "152653.249000", "152653.252000", "152653.255000", "152653.258000", "152653.264000", "152653.267000", "152653.270000", "152653.273000", "152653.276000", "152653.279000", "152653.282000", "152653.285000", "152653.288000", "152653.292000", "152653.295000", "152653.298000", "152653.301000", "152733.217000", "152733.220000", "152733.223000", "152733.227000", "152733.230000", "152733.233000", "152733.244000", "152733.247000", "152733.250000", "152733.253000", "152733.256000", "152733.259000", "152733.262000", "152733.265000", "152733.270000", "152733.273000", "152733.277000", "152733.280000", "152733.283000", "152733.286000", "152733.289000", "152733.292000", "152733.295000", "152733.298000", "152733.301000", "152733.304000", "152813.216000", "152813.219000", "152813.222000", "152813.225000", "152813.229000", "152813.232000", "152813.235000", "152813.238000", "152813.241000", "152813.244000", "152813.247000", "152813.250000", "152813.253000", "152813.257000", "152813.260000", "152813.263000", "152813.266000", "152813.269000", "152813.272000", "152813.275000", "152813.278000", "152813.281000", "152813.284000", "152813.287000", "152813.291000", "152813.294000", "152813.297000", "152853.217000", "152853.220000", "152853.223000", "152853.227000", "152853.230000", "152853.233000", "152853.236000", "152853.239000", "152853.242000", "152853.245000", "152853.248000", "152853.251000", "152853.255000", "152853.258000", "152853.261000", "152853.264000", "152853.267000", "152853.270000", "152853.274000", "152853.277000", "152853.280000", "152853.283000", "152853.286000", "152853.290000", "152853.293000", "152853.296000", "152853.299000", "152933.217000", "152933.220000", "152933.223000", "152933.226000", "152933.230000", "152933.233000", "152933.236000", "152933.239000", "152933.242000", "152933.245000", "152933.248000", "152933.251000", "152933.255000", "152933.258000", "152933.261000", "152933.264000", "152933.268000", "152933.271000", "152933.275000", "152933.278000", "152933.281000", "152933.284000", "152933.287000", "152933.290000", "152933.293000", "152933.296000", "152935.046000", "152935.049000"],
      "InstanceCreationTime": ["152613.222000", "152613.226000", "152613.236000", "152613.240000", "152613.243000", "152613.250000", "152613.253000", "152613.256000", "152613.259000", "152613.262000", "152613.265000", "152613.269000", "152613.272000", "152613.275000", "152613.278000", "152613.281000", "152613.284000", "152613.288000", "152613.291000", "152613.294000", "152613.297000", "152613.300000", "152613.303000", "152613.308000", "152613.326000", "152613.330000", "152613.333000", "152613.342000", "152613.345000", "152653.217000", "152653.220000", "152653.223000", "152653.227000", "152653.230000", "152653.233000", "152653.236000", "152653.240000", "152653.243000", "152653.246000", "152653.249000", "152653.252000", "152653.255000", "152653.258000", "152653.264000", "152653.267000", "152653.270000", "152653.273000", "152653.276000", "152653.279000", "152653.282000", "152653.285000", "152653.288000", "152653.292000", "152653.295000", "152653.298000", "152653.301000", "152733.217000", "152733.220000", "152733.223000", "152733.227000", "152733.230000", "152733.233000", "152733.244000", "152733.247000", "152733.250000", "152733.253000", "152733.256000", "152733.259000", "152733.262000", "152733.265000", "152733.270000", "152733.273000", "152733.277000", "152733.280000", "152733.283000", "152733.286000", "152733.289000", "152733.292000", "152733.295000", "152733.298000", "152733.301000", "152733.304000", "152813.216000", "152813.219000", "152813.222000", "152813.225000", "152813.229000", "152813.232000", "152813.235000", "152813.238000", "152813.241000", "152813.244000", "152813.247000", "152813.250000", "152813.253000", "152813.257000", "152813.260000", "152813.263000", "152813.266000", "152813.269000", "152813.272000", "152813.275000", "152813.278000", "152813.281000", "152813.284000", "152813.287000", "152813.291000", "152813.294000", "152813.297000", "152853.217000", "152853.220000", "152853.223000", "152853.227000", "152853.230000", "152853.233000", "152853.236000", "152853.239000", "152853.242000", "152853.245000", "152853.248000", "152853.251000", "152853.255000", "152853.258000", "152853.261000", "152853.264000", "152853.267000", "152853.270000", "152853.274000", "152853.277000", "152853.280000", "152853.283000", "152853.286000", "152853.290000", "152853.293000", "152853.296000", "152853.299000", "152933.217000", "152933.220000", "152933.223000", "152933.226000", "152933.230000", "152933.233000", "152933.236000", "152933.239000", "152933.242000", "152933.245000", "152933.248000", "152933.251000", "152933.255000", "152933.258000", "152933.261000", "152933.264000", "152933.268000", "152933.271000", "152933.275000", "152933.278000", "152933.281000", "152933.284000", "152933.287000", "152933.290000", "152933.293000", "152933.296000", "152935.046000", "152935.049000"],
      "InstanceNumber": [1, 2, 3, 4, 5, 6, 7, 8, 9, 10, 11, 12, 13, 14, 15, 16, 17, 18, 19, 20, 21, 22, 23, 24, 25, 26, 27, 28, 29, 30, 31, 32, 33, 34, 35, 36, 37, 38, 39, 40, 41, 42, 43, 44, 45, 46, 47, 48, 49, 50, 51, 52, 53, 54, 55, 56, 57, 58, 59, 60, 61, 62, 63, 64, 65, 66, 67, 68, 69, 70, 71, 72, 73, 74, 75, 76, 77, 78, 79, 80, 81, 82, 83, 84, 85, 86, 87, 88, 89, 90, 91, 92, 93, 94, 95, 96, 97, 98, 99, 100, 101, 102, 103, 104, 105, 106, 107, 108, 109, 110, 111, 112, 113, 114, 115, 116, 117, 118, 119, 120, 121, 122, 123, 124, 125, 126, 127, 128, 129, 130, 131, 132, 133, 134, 135, 136, 137, 138, 139, 140, 141, 142, 143, 144, 145, 146, 147, 148, 149, 150, 151, 152, 153, 154, 155, 156, 157, 158, 159, 160, 161, 162, 163, 164],
      "LargestImagePixelValue": [2930, 2827, 2811, 2754, 2743, 2729, 2694, 2688, 2679, 2646, 2674, 2698, 2724, 2635, 2710, 2722, 2690, 2705, 2700, 2753, 2687, 2745, 2697, 2747, 2735, 2682, 2716, 2711, 2713, 2719, 2758, 2732, 2713, 2783, 2708, 2743, 2767, 2740, 2749, 2757, 2753, 2737, 2787, 2782, 2902, 2824, 2766, 2736, 2700, 2706, 2724, 2699, 2694, 2716, 2704, 2682, 2659, 2653, 2694, 2657, 2681, 2701, 2708, 2742, 2712, 2717, 2717, 2697, 2682, 2700, 2730, 2691, 2751, 2711, 2751, 2752, 2712, 2682, 2759, 2763, 2713, 2813, 2766, 2782, 2747, 2771, 2751, 2742, 2732, 2711, 2767, 2731, 2743, 2718, 2743, 2763, 2765, 2747, 2729, 2725, 2740, 2751, 2765, 2756, 2744, 2724, 2729, 2793, 2779, 2796, 2836, 2831, 2844, 2797, 2807, 2819, 2757, 2784, 2792, 2839, 2798, 2807, 2781, 2808, 2819, 2815, 2834, 2847, 2792, 2793, 2848, 2787, 2780, 2772, 2738, 2812, 2770, 2766, 2759, 2739, 2749, 2804, 2748, 2787, 2748, 2712, 2770, 2684, 2723, 2697, 2680, 2710, 2713, 2692, 2729, 2751, 2716, 2660, 2747, 2723, 2758, 2675, 2722, 2713],
      "WindowCenter": [721.0, 718.0, 718.0, 718.0, 718.0, 717.0, 717.0, 717.0, 717.0, 716.0, 716.0, 715.0, 715.0, 714.0, 715.0, 716.0, 715.0, 715.0, 714.0, 715.0, 714.0, 715.0, 716.0, 716.0, 715.0, 714.0, 715.0, 716.0, 716.0, 716.0, 716.0, 716.0, 716.0, 716.0, 715.0, 716.0, 716.0, 715.0, 715.0, 716.0, 717.0, 716.0, 716.0, 715.0, 712.0, 715.0, 714.0, 714.0, 714.0, 714.0, 714.0, 714.0, 713.0, 712.0, 712.0, 713.0, 713.0, 714.0, 714.0, 713.0, 713.0, 713.0, 713.0, 714.0, 715.0, 714.0, 714.0, 714.0, 713.0, 713.0, 714.0, 713.0, 714.0, 714.0, 714.0, 714.0, 714.0, 714.0, 715.0, 715.0, 714.0, 715.0, 714.0, 714.0, 714.0, 714.0, 714.0, 713.0, 713.0, 713.0, 714.0, 715.0, 715.0, 714.0, 714.0, 714.0, 714.0, 714.0, 715.0, 716.0, 715.0, 714.0, 714.0, 714.0, 714.0, 714.0, 713.0, 715.0, 715.0, 715.0, 714.0, 714.0, 715.0, 715.0, 715.0, 715.0, 715.0, 714.0, 715.0, 715.0, 715.0, 713.0, 711.0, 712.0, 713.0, 714.0, 715.0, 714.0, 713.0, 713.0, 713.0, 713.0, 714.0, 714.0, 714.0, 714.0, 713.0, 713.0, 712.0, 713.0, 713.0, 713.0, 712.0, 712.0, 712.0, 713.0, 713.0, 713.0, 713.0, 713.0, 714.0, 714.0, 712.0, 712.0, 712.0, 713.0, 714.0, 713.0, 712.0, 711.0, 711.0, 711.0, 712.0, 712.0],
      "WindowWidth": [1559.0, 1551.0, 1550.0, 1549.0, 1549.0, 1547.0, 1547.0, 1548.0, 1546.0, 1545.0, 1544.0, 1542.0, 1542.0, 1540.0, 1543.0, 1544.0, 1542.0, 1542.0, 1540.0, 1541.0, 1539.0, 1543.0, 1543.0, 1544.0, 1543.0, 1540.0, 1542.0, 1543.0, 1544.0, 1545.0, 1546.0, 1543.0, 1543.0, 1543.0, 1542.0, 1544.0, 1543.0, 1542.0, 1542.0, 1544.0, 1546.0, 1545.0, 1544.0, 1542.0, 1534.0, 1541.0, 1539.0, 1539.0, 1539.0, 1539.0, 1538.0, 1538.0, 1536.0, 1535.0, 1535.0, 1536.0, 1537.0, 1538.0, 1539.0, 1537.0, 1536.0, 1536.0, 1537.0, 1539.0, 1541.0, 1540.0, 1540.0, 1539.0, 1538.0, 1538.0, 1538.0, 1538.0, 1540.0, 1539.0, 1540.0, 1540.0, 1540.0, 1540.0, 1542.0, 1541.0, 1540.0, 1541.0, 1539.0, 1539.0, 1539.0, 1540.0, 1540.0, 1538.0, 1537.0, 1538.0, 1540.0, 1542.0, 1543.0, 1540.0, 1538.0, 1539.0, 1539.0, 1541.0, 1543.0, 1544.0, 1542.0, 1540.0, 1540.0, 1539.0, 1539.0, 1539.0, 1538.0, 1541.0, 1543.0, 1541.0, 1540.0, 1539.0, 1541.0, 1542.0, 1543.0, 1542.0, 1542.0, 1540.0, 1541.0, 1543.0, 1542.0, 1537.0, 1533.0, 1534.0, 1537.0, 1540.0, 1542.0, 1539.0, 1538.0, 1538.0, 1538.0, 1538.0, 1538.0, 1539.0, 1539.0, 1539.0, 1537.0, 1536.0, 1535.0, 1537.0, 1537.0, 1537.0, 1535.0, 1535.0, 1535.0, 1536.0, 1538.0, 1536.0, 1537.0, 1537.0, 1539.0, 1539.0, 1535.0, 1534.0, 1535.0, 1538.0, 1539.0, 1536.0, 1534.0, 1532.0, 1532.0, 1532.0, 1535.0, 1535.0]
    },
    "slices": {}
  }
}