{
  "AcquisitionMatrixPE": 72,
  "AcquisitionNumber": 1,
  "AcquisitionTime": "15:36:48.552500",
  "BandwidthPerPixelPhaseEncode": 17.943,
  "BaseResolution": 96,
  "BodyPartExamined": "BRAIN",
  "CoilCombinationMethod": "Sum of Squares",
  "ConsistencyInfo": "N4_VE11C_LATEST_20160120",
  "ConversionSoftware": "dcm2niix",
  "ConversionSoftwareVersion": "v1.0.20211006",
  "DerivedVendorReportedEchoSpacing": 0.000552897,
  "DeviceSerialNumber": "166011",
  "EchoTime": 0.03,
  "EchoTrainLength": 58,
  "EffectiveEchoSpacing": 0.000580542,
  "FlipAngle": 62,
  "ImageOrientationPatientDICOM": [0.996823, 0.0489421, 0.0628313, -0.0403851, 0.990574, -0.130889],
  "ImageType": [
    "ORIGINAL",
    "PRIMARY",
    "M",
    "ND",
    "MOSAIC"
],
  "ImagingFrequency": 123.259,
  "InPlanePhaseEncodingDirectionDICOM": "COL",
  "InstitutionAddress": "West 130th Street 610,NY,NYC,US,10025",
  "InstitutionName": "MBBI",
  "MRAcquisitionType": "2D",
  "MagneticFieldStrength": 3,
  "Manufacturer": "Siemens",
  "ManufacturersModelName": "Prisma",
  "Modality": "MR",
  "MultibandAccelerationFactor": 3,
  "PartialFourier": 0.75,
  "PatientPosition": "HFS",
  "PercentPhaseFOV": 100,
  "PercentSampling": 75,
  "PhaseEncodingDirection": "j-",
  "PhaseEncodingSteps": 58,
  "PhaseOversampling": 0.05,
  "PhaseResolution": 0.75,
  "PixelBandwidth": 2265,
  "ProcedureStepDescription": "White^Word_recognition",
  "ProtocolName": "func_catLoc_run3",
  "PulseSequenceDetails": "%SiemensSeq%\\ep2d_bold",
  "ReceiveCoilActiveElements": "HC1-7",
  "ReceiveCoilName": "HeadNeck_64",
  "ReconMatrixPE": 96,
  "RefLinesPE": 40,
  "RepetitionTime": 1.5,
  "SAR": 0.0632139,
  "ScanOptions": "PFP\\FS",
  "ScanningSequence": "EP",
  "SequenceName": "*epfid2d1_72",
  "SequenceVariant": "SK\\OSP",
  "SeriesDescription": "func_catLoc_run3",
  "SeriesNumber": 10,
  "ShimSetting": [-1122, -1342, 673, 504, -190, 1, -51, 32],
  "SliceThickness": 2,
  "SliceTiming": [1.075, 0, 0.74, 0.0675, 0.8075, 0.1325, 0.8725, 0.2, 0.94, 0.2675, 1.0075, 0.4025, 1.1425, 0.47, 1.21, 0.5375, 1.2775, 0.605, 1.345, 0.6725, 1.4125, 0.335, 1.075, 0, 0.74, 0.0675, 0.8075, 0.1325, 0.8725, 0.2, 0.94, 0.2675, 1.0075, 0.4025, 1.1425, 0.47, 1.21, 0.5375, 1.2775, 0.605, 1.345, 0.6725, 1.4125, 0.335, 1.075, 0, 0.74, 0.0675, 0.8075, 0.1325, 0.8725, 0.2, 0.94, 0.2675, 1.0075, 0.4025, 1.1425, 0.47, 1.21, 0.5375, 1.2775, 0.605, 1.345, 0.6725, 1.4125, 0.335],
  "SoftwareVersions": "syngo MR E11",
  "SpacingBetweenSlices": 2,
  "StationName": "AWP166011",
  "TaskName": "catLoc",
  "TotalReadoutTime": 0.0551515,
  "TxRefAmp": 250.964,
  "dcmmeta_affine": [
    [-1.9936468601226807, -0.08077023178339005, 0.13729004561901093, 98.65967559814453],
    [-0.09788412600755692, 1.981148362159729, -0.2558711767196655, -66.69641876220703],
    [0.12566258013248444, 0.2617776393890381, 1.978808045387268, -77.89418029785156],
    [0.0, 0.0, 0.0, 1.0]
],
  "dcmmeta_reorient_transform": [
    [0.0, -1.0, 0.0, 95.0],
    [1.0, 0.0, 0.0, 0.0],
    [0.0, 0.0, 1.0, 0.0],
    [0.0, 0.0, 0.0, 1.0]
],
  "dcmmeta_shape": [96, 96, 66, 214],
  "dcmmeta_slice_dim": 2,
  "dcmmeta_version": 0.6,
  "global": {
    "const": {
      "AcquisitionMatrix": [96, 0, 0, 72],
      "AngioFlag": "N",
      "BitsAllocated": 16,
      "BitsStored": 12,
      "BodyPartExamined": "BRAIN",
      "Columns": 864,
      "EchoNumbers": 1,
      "EchoTime": 30.0,
      "EchoTrainLength": 58,
      "FlipAngle": 62.0,
      "HighBit": 11,
      "ImageOrientationPatient": [0.99682340614473, 0.04894206257144, 0.06283129374186, -0.0403851156916, 0.99057415661064, -0.1308888180316],
      "ImagePositionPatient": [-825.53110803469, -919.8611238622, -0.7571254602143],
      "ImageType": [
        "ORIGINAL",
        "PRIMARY",
        "M",
        "ND",
        "MOSAIC"
],
      "ImagedNucleus": "1H",
      "ImagingFrequency": 123.259461,
      "InPlanePhaseEncodingDirection": "COL",
      "MRAcquisitionType": "2D",
      "MagneticFieldStrength": 3.0,
      "Manufacturer": "SIEMENS",
      "ManufacturerModelName": "Prisma",
      "Modality": "MR",
      "NumberOfAverages": 1.0,
      "NumberOfPhaseEncodingSteps": 58,
      "PercentPhaseFieldOfView": 100.0,
      "PercentSampling": 75.0,
      "PerformedProcedureStepStartTime": "145909.525000",
      "PhotometricInterpretation": "MONOCHROME2",
      "PixelBandwidth": 2265.0,
      "PixelRepresentation": 0,
      "PixelSpacing": [2.0, 2.0],
      "ProtocolName": "func_catLoc_run3",
      "RepetitionTime": 1500.0,
      "Rows": 864,
      "SAR": 0.06321388605407,
      "SamplesPerPixel": 1,
      "ScanOptions": [
        "PFP",
        "FS"
],
      "ScanningSequence": "EP",
      "SequenceName": "*epfid2d1_72",
      "SequenceVariant": [
        "SK",
        "OSP"
],
      "SeriesDescription": "func_catLoc_run3",
      "SeriesNumber": 10,
      "SeriesTime": "153733.142000",
      "SliceLocation": -61.763473906594,
      "SliceThickness": 2.0,
      "SmallestImagePixelValue": 0,
      "SoftwareVersions": "syngo MR E11",
      "SpacingBetweenSlices": 1.9999999956375,
      "SpecificCharacterSet": "ISO_IR 100",
      "StudyID": "2",
      "StudyTime": "145909.474000",
      "TransmitCoilName": "Body",
      "VariableFlipAngleFlag": "N",
      "WindowCenterWidthExplanation": "Algo1",
      "dBdt": 0.0},
    "slices": {}
  },
  "time": {
    "samples": {
      "AcquisitionNumber": [1, 2, 3, 4, 5, 6, 7, 8, 9, 10, 11, 12, 13, 14, 15, 16, 17, 18, 19, 20, 21, 22, 23, 24, 25, 26, 27, 28, 29, 30, 31, 32, 33, 34, 35, 36, 37, 38, 39, 40, 41, 42, 43, 44, 45, 46, 47, 48, 49, 50, 51, 52, 53, 54, 55, 56, 57, 58, 59, 60, 61, 62, 63, 64, 65, 66, 67, 68, 69, 70, 71, 72, 73, 74, 75, 76, 77, 78, 79, 80, 81, 82, 83, 84, 85, 86, 87, 88, 89, 90, 91, 92, 93, 94, 95, 96, 97, 98, 99, 100, 101, 102, 103, 104, 105, 106, 107, 108, 109, 110, 111, 112, 113, 114, 115, 116, 117, 118, 119, 120, 121, 122, 123, 124, 125, 126, 127, 128, 129, 130, 131, 132, 133, 134, 135, 136, 137, 138, 139, 140, 141, 142, 143, 144, 145, 146, 147, 148, 149, 150, 151, 152, 153, 154, 155, 156, 157, 158, 159, 160, 161, 162, 163, 164, 165, 166, 167, 168, 169, 170, 171, 172, 173, 174, 175, 176, 177, 178, 179, 180, 181, 182, 183, 184, 185, 186, 187, 188, 189, 190, 191, 192, 193, 194, 195, 196, 197, 198, 199, 200, 201, 202, 203, 204, 205, 206, 207, 208, 209, 210, 211, 212, 213, 214],
      "AcquisitionTime": ["153648.552500", "153650.052500", "153651.552500", "153653.052500", "153654.552500", "153656.052500", "153657.552500", "153659.052500", "153700.552500", "153702.052500", "153703.552500", "153705.052500", "153706.552500", "153708.052500", "153709.552500", "153711.052500", "153712.552500", "153714.052500", "153715.552500", "153717.052500", "153718.552500", "153720.052500", "153721.552500", "153723.052500", "153724.552500", "153726.052500", "153727.552500", "153729.052500", "153730.552500", "153732.052500", "153733.552500", "153735.052500", "153736.552500", "153738.052500", "153739.552500", "153741.052500", "153742.552500", "153744.052500", "153745.552500", "153747.052500", "153748.552500", "153750.052500", "153751.552500", "153753.052500", "153754.552500", "153756.052500", "153757.552500", "153759.052500", "153800.552500", "153802.052500", "153803.552500", "153805.052500", "153806.552500", "153808.052500", "153809.552500", "153811.052500", "153812.552500", "153814.052500", "153815.552500", "153817.052500", "153818.552500", "153820.052500", "153821.552500", "153823.052500", "153824.552500", "153826.052500", "153827.552500", "153829.052500", "153830.552500", "153832.052500", "153833.552500", "153835.052500", "153836.552500", "153838.052500", "153839.552500", "153841.052500", "153842.552500", "153844.052500", "153845.552500", "153847.052500", "153848.552500", "153850.052500", "153851.552500", "153853.052500", "153854.552500", "153856.052500", "153857.552500", "153859.052500", "153900.552500", "153902.052500", "153903.552500", "153905.052500", "153906.552500", "153908.052500", "153909.552500", "153911.052500", "153912.552500", "153914.052500", "153915.552500", "153917.052500", "153918.552500", "153920.052500", "153921.552500", "153923.052500", "153924.552500", "153926.052500", "153927.552500", "153929.052500", "153930.552500", "153932.052500", "153933.552500", "153935.052500", "153936.552500", "153938.052500", "153939.552500", "153941.052500", "153942.552500", "153944.052500", "153945.552500", "153947.052500", "153948.552500", "153950.052500", "153951.552500", "153953.052500", "153954.552500", "153956.052500", "153957.552500", "153959.052500", "154000.552500", "154002.052500", "154003.552500", "154005.052500", "154006.552500", "154008.052500", "154009.552500", "154011.052500", "154012.552500", "154014.052500", "154015.552500", "154017.052500", "154018.552500", "154020.052500", "154021.552500", "154023.052500", "154024.552500", "154026.052500", "154027.552500", "154029.052500", "154030.552500", "154032.052500", "154033.552500", "154035.052500", "154036.552500", "154038.052500", "154039.552500", "154041.052500", "154042.552500", "154044.052500", "154045.552500", "154047.052500", "154048.552500", "154050.052500", "154051.552500", "154053.052500", "154054.552500", "154056.052500", "154057.552500", "154059.052500", "154100.552500", "154102.052500", "154103.552500", "154105.052500", "154106.552500", "154108.052500", "154109.552500", "154111.052500", "154112.552500", "154114.052500", "154115.552500", "154117.052500", "154118.552500", "154120.052500", "154121.552500", "154123.052500", "154124.552500", "154126.052500", "154127.552500", "154129.052500", "154130.552500", "154132.052500", "154133.552500", "154135.052500", "154136.552500", "154138.052500", "154139.552500", "154141.052500", "154142.552500", "154144.052500", "154145.552500", "154147.052500", "154148.552500", "154150.052500", "154151.552500", "154153.052500", "154154.552500", "154156.052500", "154157.552500", "154159.052500", "154200.552500", "154202.052500", "154203.552500", "154205.052500", "154206.552500", "154208.052500"],
      "ContentTime": ["153733.146000", "153733.150000", "153733.153000", "153733.157000", "153733.160000", "153733.171000", "153733.181000", "153733.184000", "153733.187000", "153733.190000", "153733.193000", "153733.196000", "153733.199000", "153733.202000", "153733.206000", "153733.209000", "153733.212000", "153733.215000", "153733.221000", "153733.224000", "153733.227000", "153733.230000", "153733.233000", "153733.236000", "153733.239000", "153733.242000", "153733.245000", "153733.248000", "153733.251000", "153733.255000", "153813.142000", "153813.145000", "153813.149000", "153813.152000", "153813.155000", "153813.158000", "153813.161000", "153813.164000", "153813.167000", "153813.170000", "153813.173000", "153813.176000", "153813.179000", "153813.182000", "153813.188000", "153813.191000", "153813.194000", "153813.197000", "153813.200000", "153813.204000", "153813.207000", "153813.210000", "153813.213000", "153813.216000", "153813.219000", "153813.222000", "153853.142000", "153853.145000", "153853.148000", "153853.152000", "153853.154000", "153853.158000", "153853.161000", "153853.164000", "153853.167000", "153853.170000", "153853.173000", "153853.176000", "153853.179000", "153853.183000", "153853.186000", "153853.189000", "153853.192000", "153853.195000", "153853.199000", "153853.202000", "153853.205000", "153853.208000", "153853.211000", "153853.214000", "153853.217000", "153853.220000", "153853.223000", "153933.141000", "153933.144000", "153933.147000", "153933.151000", "153933.154000", "153933.157000", "153933.160000", "153933.163000", "153933.166000", "153933.169000", "153933.172000", "153933.175000", "153933.178000", "153933.181000", "153933.184000", "153933.187000", "153933.191000", "153933.194000", "153933.197000", "153933.200000", "153933.203000", "153933.206000", "153933.209000", "153933.212000", "153933.215000", "153933.218000", "153933.221000", "154013.142000", "154013.145000", "154013.149000", "154013.152000", "154013.155000", "154013.158000", "154013.161000", "154013.164000", "154013.167000", "154013.170000", "154013.173000", "154013.176000", "154013.180000", "154013.183000", "154013.186000", "154013.189000", "154013.192000", "154013.195000", "154013.199000", "154013.208000", "154013.211000", "154013.214000", "154013.218000", "154013.221000", "154013.224000", "154013.227000", "154053.142000", "154053.145000", "154053.149000", "154053.152000", "154053.155000", "154053.158000", "154053.161000", "154053.164000", "154053.167000", "154053.170000", "154053.173000", "154053.177000", "154053.180000", "154053.183000", "154053.187000", "154053.190000", "154053.193000", "154053.196000", "154053.199000", "154053.202000", "154053.205000", "154053.208000", "154053.211000", "154053.215000", "154053.218000", "154053.221000", "154053.224000", "154133.141000", "154133.144000", "154133.148000", "154133.151000", "154133.154000", "154133.157000", "154133.160000", "154133.163000", "154133.166000", "154133.169000", "154133.172000", "154133.176000", "154133.179000", "154133.182000", "154133.185000", "154133.188000", "154133.191000", "154133.194000", "154133.197000", "154133.200000", "154133.203000", "154133.207000", "154133.210000", "154133.213000", "154133.216000", "154133.224000", "154133.227000", "154208.906000", "154208.910000", "154208.913000", "154208.916000", "154208.919000", "154208.923000", "154208.926000", "154208.929000", "154208.932000", "154208.936000", "154208.939000", "154208.942000", "154208.945000", "154208.949000", "154208.952000", "154208.955000", "154208.959000", "154208.963000", "154208.966000", "154208.969000", "154208.972000", "154208.987000", "154208.991000", "154208.994000"],
      "InstanceCreationTime": ["153733.146000", "153733.150000", "153733.153000", "153733.157000", "153733.160000", "153733.171000", "153733.181000", "153733.184000", "153733.187000", "153733.190000", "153733.193000", "153733.196000", "153733.199000", "153733.202000", "153733.206000", "153733.209000", "153733.212000", "153733.215000", "153733.221000", "153733.224000", "153733.227000", "153733.230000", "153733.233000", "153733.236000", "153733.239000", "153733.242000", "153733.245000", "153733.248000", "153733.251000", "153733.255000", "153813.142000", "153813.145000", "153813.149000", "153813.152000", "153813.155000", "153813.158000", "153813.161000", "153813.164000", "153813.167000", "153813.170000", "153813.173000", "153813.176000", "153813.179000", "153813.182000", "153813.188000", "153813.191000", "153813.194000", "153813.197000", "153813.200000", "153813.204000", "153813.207000", "153813.210000", "153813.213000", "153813.216000", "153813.219000", "153813.222000", "153853.142000", "153853.145000", "153853.148000", "153853.152000", "153853.154000", "153853.158000", "153853.161000", "153853.164000", "153853.167000", "153853.170000", "153853.173000", "153853.176000", "153853.179000", "153853.183000", "153853.186000", "153853.189000", "153853.192000", "153853.195000", "153853.199000", "153853.202000", "153853.205000", "153853.208000", "153853.211000", "153853.214000", "153853.217000", "153853.220000", "153853.223000", "153933.141000", "153933.144000", "153933.147000", "153933.151000", "153933.154000", "153933.157000", "153933.160000", "153933.163000", "153933.166000", "153933.169000", "153933.172000", "153933.175000", "153933.178000", "153933.181000", "153933.184000", "153933.187000", "153933.191000", "153933.194000", "153933.197000", "153933.200000", "153933.203000", "153933.206000", "153933.209000", "153933.212000", "153933.215000", "153933.218000", "153933.221000", "154013.142000", "154013.145000", "154013.149000", "154013.152000", "154013.155000", "154013.158000", "154013.161000", "154013.164000", "154013.167000", "154013.170000", "154013.173000", "154013.176000", "154013.180000", "154013.183000", "154013.186000", "154013.189000", "154013.192000", "154013.195000", "154013.199000", "154013.208000", "154013.211000", "154013.214000", "154013.218000", "154013.221000", "154013.224000", "154013.227000", "154053.142000", "154053.145000", "154053.149000", "154053.152000", "154053.155000", "154053.158000", "154053.161000", "154053.164000", "154053.167000", "154053.170000", "154053.173000", "154053.177000", "154053.180000", "154053.183000", "154053.187000", "154053.190000", "154053.193000", "154053.196000", "154053.199000", "154053.202000", "154053.205000", "154053.208000", "154053.211000", "154053.215000", "154053.218000", "154053.221000", "154053.224000", "154133.141000", "154133.144000", "154133.148000", "154133.151000", "154133.154000", "154133.157000", "154133.160000", "154133.163000", "154133.166000", "154133.169000", "154133.172000", "154133.176000", "154133.179000", "154133.182000", "154133.185000", "154133.188000", "154133.191000", "154133.194000", "154133.197000", "154133.200000", "154133.203000", "154133.207000", "154133.210000", "154133.213000", "154133.216000", "154133.224000", "154133.227000", "154208.906000", "154208.910000", "154208.913000", "154208.916000", "154208.919000", "154208.923000", "154208.926000", "154208.929000", "154208.932000", "154208.936000", "154208.939000", "154208.942000", "154208.945000", "154208.949000", "154208.952000", "154208.955000", "154208.959000", "154208.963000", "154208.966000", "154208.969000", "154208.972000", "154208.987000", "154208.991000", "154208.994000"],
      "InstanceNumber": [1, 2, 3, 4, 5, 6, 7, 8, 9, 10, 11, 12, 13, 14, 15, 16, 17, 18, 19, 20, 21, 22, 23, 24, 25, 26, 27, 28, 29, 30, 31, 32, 33, 34, 35, 36, 37, 38, 39, 40, 41, 42, 43, 44, 45, 46, 47, 48, 49, 50, 51, 52, 53, 54, 55, 56, 57, 58, 59, 60, 61, 62, 63, 64, 65, 66, 67, 68, 69, 70, 71, 72, 73, 74, 75, 76, 77, 78, 79, 80, 81, 82, 83, 84, 85, 86, 87, 88, 89, 90, 91, 92, 93, 94, 95, 96, 97, 98, 99, 100, 101, 102, 103, 104, 105, 106, 107, 108, 109, 110, 111, 112, 113, 114, 115, 116, 117, 118, 119, 120, 121, 122, 123, 124, 125, 126, 127, 128, 129, 130, 131, 132, 133, 134, 135, 136, 137, 138, 139, 140, 141, 142, 143, 144, 145, 146, 147, 148, 149, 150, 151, 152, 153, 154, 155, 156, 157, 158, 159, 160, 161, 162, 163, 164, 165, 166, 167, 168, 169, 170, 171, 172, 173, 174, 175, 176, 177, 178, 179, 180, 181, 182, 183, 184, 185, 186, 187, 188, 189, 190, 191, 192, 193, 194, 195, 196, 197, 198, 199, 200, 201, 202, 203, 204, 205, 206, 207, 208, 209, 210, 211, 212, 213, 214],
      "LargestImagePixelValue": [2966, 2869, 2773, 2795, 2746, 2809, 2767, 2694, 2755, 2738, 2753, 2736, 2727, 2686, 2655, 2693, 2715, 2790, 2757, 2727, 2708, 2684, 2882, 2794, 2860, 2817, 2801, 2833, 2816, 2831, 2845, 2812, 2830, 2794, 2822, 2820, 2831, 2846, 2836, 2818, 2801, 2788, 2780, 2764, 2790, 2795, 2759, 2767, 2752, 2766, 2743, 2756, 2785, 2770, 2816, 2814, 2784, 2764, 2795, 2774, 2765, 2783, 2727, 2751, 2776, 2780, 2786, 2819, 2819, 2784, 2768, 2765, 2768, 2789, 2757, 2781, 2722, 2748, 2772, 2794, 2762, 2804, 2773, 2741, 2758, 2772, 2804, 2748, 2737, 2800, 2731, 2765, 2805, 2755, 2799, 2744, 2720, 2784, 2810, 2786, 2778, 2790, 2752, 2816, 2822, 2751, 2823, 2769, 2778, 2840, 2794, 2790, 2807, 2777, 2781, 2837, 2805, 2781, 2782, 2784, 2806, 2796, 2810, 2768, 2812, 2785, 2779, 2808, 2827, 2791, 2795, 2786, 2808, 2775, 2862, 2791, 2759, 2735, 2795, 2855, 2778, 2755, 2678, 2678, 2764, 2754, 2713, 2737, 2753, 2729, 2752, 2737, 2753, 2745, 2696, 2780, 2781, 2705, 2698, 2757, 2720, 2696, 2736, 2749, 2746, 2739, 2742, 2717, 2691, 2703, 2701, 2731, 2708, 2690, 2709, 2741, 2785, 2775, 2775, 2773, 2805, 2807, 2808, 2837, 2773, 2789, 2769, 2777, 2806, 2795, 2769, 2783, 2792, 2745, 2801, 2762, 2715, 2753, 2766, 2728, 2776, 2748, 2718, 2699, 2749, 2751, 2713, 2744, 2752, 2732, 2725, 2747, 2902, 2812],
      "WindowCenter": [718.0, 715.0, 713.0, 712.0, 712.0, 712.0, 713.0, 713.0, 714.0, 714.0, 715.0, 716.0, 714.0, 712.0, 711.0, 711.0, 712.0, 714.0, 713.0, 712.0, 709.0, 709.0, 710.0, 711.0, 713.0, 712.0, 710.0, 708.0, 708.0, 707.0, 708.0, 709.0, 709.0, 709.0, 709.0, 709.0, 710.0, 710.0, 710.0, 710.0, 711.0, 711.0, 711.0, 712.0, 712.0, 712.0, 712.0, 713.0, 712.0, 711.0, 711.0, 712.0, 712.0, 713.0, 713.0, 712.0, 712.0, 712.0, 712.0, 710.0, 709.0, 710.0, 710.0, 712.0, 712.0, 712.0, 711.0, 711.0, 711.0, 711.0, 711.0, 710.0, 709.0, 709.0, 709.0, 710.0, 711.0, 712.0, 712.0, 711.0, 711.0, 711.0, 712.0, 711.0, 711.0, 711.0, 711.0, 711.0, 711.0, 712.0, 712.0, 712.0, 712.0, 711.0, 711.0, 712.0, 711.0, 712.0, 712.0, 710.0, 710.0, 710.0, 711.0, 712.0, 711.0, 710.0, 710.0, 710.0, 710.0, 711.0, 711.0, 711.0, 711.0, 711.0, 711.0, 711.0, 711.0, 711.0, 711.0, 712.0, 713.0, 713.0, 713.0, 712.0, 712.0, 711.0, 712.0, 713.0, 712.0, 712.0, 711.0, 712.0, 713.0, 713.0, 713.0, 713.0, 713.0, 711.0, 712.0, 712.0, 713.0, 712.0, 710.0, 709.0, 709.0, 709.0, 708.0, 708.0, 709.0, 709.0, 710.0, 710.0, 710.0, 711.0, 710.0, 710.0, 710.0, 711.0, 711.0, 711.0, 711.0, 711.0, 712.0, 713.0, 713.0, 712.0, 711.0, 711.0, 711.0, 711.0, 712.0, 712.0, 712.0, 711.0, 712.0, 713.0, 715.0, 714.0, 714.0, 713.0, 713.0, 713.0, 713.0, 714.0, 713.0, 713.0, 712.0, 712.0, 713.0, 713.0, 713.0, 714.0, 714.0, 713.0, 712.0, 712.0, 712.0, 713.0, 714.0, 713.0, 713.0, 712.0, 712.0, 712.0, 713.0, 713.0, 712.0, 712.0, 713.0, 713.0, 714.0, 714.0, 716.0, 714.0],
      "WindowWidth": [1553.0, 1545.0, 1538.0, 1536.0, 1535.0, 1536.0, 1538.0, 1538.0, 1539.0, 1540.0, 1542.0, 1545.0, 1541.0, 1535.0, 1531.0, 1532.0, 1536.0, 1540.0, 1537.0, 1534.0, 1528.0, 1528.0, 1529.0, 1532.0, 1537.0, 1536.0, 1530.0, 1525.0, 1524.0, 1523.0, 1525.0, 1526.0, 1527.0, 1527.0, 1527.0, 1529.0, 1530.0, 1531.0, 1531.0, 1530.0, 1531.0, 1533.0, 1533.0, 1534.0, 1534.0, 1535.0, 1536.0, 1537.0, 1535.0, 1533.0, 1533.0, 1534.0, 1536.0, 1536.0, 1537.0, 1535.0, 1535.0, 1536.0, 1534.0, 1531.0, 1528.0, 1529.0, 1530.0, 1534.0, 1535.0, 1534.0, 1533.0, 1532.0, 1533.0, 1532.0, 1533.0, 1531.0, 1527.0, 1527.0, 1528.0, 1530.0, 1532.0, 1534.0, 1534.0, 1533.0, 1533.0, 1533.0, 1534.0, 1532.0, 1533.0, 1532.0, 1532.0, 1532.0, 1532.0, 1535.0, 1534.0, 1534.0, 1533.0, 1533.0, 1532.0, 1536.0, 1533.0, 1534.0, 1533.0, 1531.0, 1530.0, 1531.0, 1532.0, 1534.0, 1533.0, 1530.0, 1530.0, 1529.0, 1530.0, 1531.0, 1532.0, 1533.0, 1533.0, 1533.0, 1532.0, 1533.0, 1531.0, 1532.0, 1533.0, 1536.0, 1537.0, 1538.0, 1536.0, 1534.0, 1533.0, 1533.0, 1534.0, 1536.0, 1536.0, 1534.0, 1532.0, 1534.0, 1537.0, 1538.0, 1537.0, 1535.0, 1537.0, 1533.0, 1534.0, 1535.0, 1537.0, 1535.0, 1530.0, 1528.0, 1526.0, 1526.0, 1525.0, 1526.0, 1527.0, 1527.0, 1528.0, 1529.0, 1530.0, 1531.0, 1528.0, 1530.0, 1530.0, 1531.0, 1531.0, 1532.0, 1532.0, 1532.0, 1535.0, 1536.0, 1536.0, 1534.0, 1533.0, 1532.0, 1532.0, 1532.0, 1534.0, 1535.0, 1533.0, 1532.0, 1533.0, 1536.0, 1540.0, 1539.0, 1538.0, 1536.0, 1535.0, 1535.0, 1537.0, 1538.0, 1536.0, 1537.0, 1535.0, 1535.0, 1536.0, 1536.0, 1537.0, 1538.0, 1538.0, 1536.0, 1535.0, 1535.0, 1535.0, 1537.0, 1538.0, 1537.0, 1537.0, 1535.0, 1534.0, 1534.0, 1536.0, 1537.0, 1535.0, 1535.0, 1535.0, 1537.0, 1540.0, 1540.0, 1543.0, 1540.0]
    },
    "slices": {}
  }
}