{
  "AcquisitionMatrixPE": 72,
  "AcquisitionNumber": 1,
  "AcquisitionTime": "15:31:19.480000",
  "BandwidthPerPixelPhaseEncode": 17.943,
  "BaseResolution": 96,
  "BodyPartExamined": "BRAIN",
  "CoilCombinationMethod": "Sum of Squares",
  "ConsistencyInfo": "N4_VE11C_LATEST_20160120",
  "ConversionSoftware": "dcm2niix",
  "ConversionSoftwareVersion": "v1.0.20211006",
  "DerivedVendorReportedEchoSpacing": 0.000552897,
  "DeviceSerialNumber": "166011",
  "EchoTime": 0.03,
  "EchoTrainLength": 58,
  "EffectiveEchoSpacing": 0.000580542,
  "FlipAngle": 62,
  "ImageOrientationPatientDICOM": [0.996823, 0.0489421, 0.0628313, -0.0403851, 0.990574, -0.130889],
  "ImageType": [
    "ORIGINAL",
    "PRIMARY",
    "M",
    "ND",
    "MOSAIC"
],
  "ImagingFrequency": 123.259,
  "InPlanePhaseEncodingDirectionDICOM": "COL",
  "InstitutionAddress": "West 130th Street 610,NY,NYC,US,10025",
  "InstitutionName": "MBBI",
  "MRAcquisitionType": "2D",
  "MagneticFieldStrength": 3,
  "Manufacturer": "Siemens",
  "ManufacturersModelName": "Prisma",
  "Modality": "MR",
  "MultibandAccelerationFactor": 3,
  "PartialFourier": 0.75,
  "PatientPosition": "HFS",
  "PercentPhaseFOV": 100,
  "PercentSampling": 75,
  "PhaseEncodingDirection": "j-",
  "PhaseEncodingSteps": 58,
  "PhaseOversampling": 0.05,
  "PhaseResolution": 0.75,
  "PixelBandwidth": 2265,
  "ProcedureStepDescription": "White^Word_recognition",
  "ProtocolName": "func_vwfate_run8",
  "PulseSequenceDetails": "%SiemensSeq%\\ep2d_bold",
  "ReceiveCoilActiveElements": "HC1-7",
  "ReceiveCoilName": "HeadNeck_64",
  "ReconMatrixPE": 96,
  "RefLinesPE": 40,
  "RepetitionTime": 1.5,
  "SAR": 0.0630167,
  "ScanOptions": "PFP\\FS",
  "ScanningSequence": "EP",
  "SequenceName": "*epfid2d1_72",
  "SequenceVariant": "SK\\OSP",
  "SeriesDescription": "func_vwfate_run8",
  "SeriesNumber": 9,
  "ShimSetting": [-1122, -1342, 673, 504, -190, 1, -51, 32],
  "SliceThickness": 2,
  "SliceTiming": [1.075, 0, 0.74, 0.0675, 0.8075, 0.135, 0.875, 0.2025, 0.9425, 0.27, 1.01, 0.4025, 1.1425, 0.47, 1.21, 0.5375, 1.2775, 0.605, 1.345, 0.6725, 1.4125, 0.335, 1.075, 0, 0.74, 0.0675, 0.8075, 0.135, 0.875, 0.2025, 0.9425, 0.27, 1.01, 0.4025, 1.1425, 0.47, 1.21, 0.5375, 1.2775, 0.605, 1.345, 0.6725, 1.4125, 0.335, 1.075, 0, 0.74, 0.0675, 0.8075, 0.135, 0.875, 0.2025, 0.9425, 0.27, 1.01, 0.4025, 1.1425, 0.47, 1.21, 0.5375, 1.2775, 0.605, 1.345, 0.6725, 1.4125, 0.335],
  "SoftwareVersions": "syngo MR E11",
  "SpacingBetweenSlices": 2,
  "StationName": "AWP166011",
  "TaskName": "vwfate",
  "TotalReadoutTime": 0.0551515,
  "TxRefAmp": 250.964,
  "dcmmeta_affine": [
    [-1.9936468601226807, -0.08077023178339005, 0.13729004561901093, 98.65967559814453],
    [-0.09788412600755692, 1.981148362159729, -0.2558711767196655, -66.69641876220703],
    [0.12566258013248444, 0.2617776393890381, 1.978808045387268, -77.89418029785156],
    [0.0, 0.0, 0.0, 1.0]
],
  "dcmmeta_reorient_transform": [
    [0.0, -1.0, 0.0, 95.0],
    [1.0, 0.0, 0.0, 0.0],
    [0.0, 0.0, 1.0, 0.0],
    [0.0, 0.0, 0.0, 1.0]
],
  "dcmmeta_shape": [96, 96, 66, 164],
  "dcmmeta_slice_dim": 2,
  "dcmmeta_version": 0.6,
  "global": {
    "const": {
      "AcquisitionMatrix": [96, 0, 0, 72],
      "AngioFlag": "N",
      "BitsAllocated": 16,
      "BitsStored": 12,
      "BodyPartExamined": "BRAIN",
      "Columns": 864,
      "EchoNumbers": 1,
      "EchoTime": 30.0,
      "EchoTrainLength": 58,
      "FlipAngle": 62.0,
      "HighBit": 11,
      "ImageOrientationPatient": [0.99682340614473, 0.04894206257144, 0.06283129374186, -0.0403851156916, 0.99057415661064, -0.1308888180316],
      "ImagePositionPatient": [-825.53110803469, -919.8611238622, -0.7571254602143],
      "ImageType": [
        "ORIGINAL",
        "PRIMARY",
        "M",
        "ND",
        "MOSAIC"
],
      "ImagedNucleus": "1H",
      "ImagingFrequency": 123.259458,
      "InPlanePhaseEncodingDirection": "COL",
      "MRAcquisitionType": "2D",
      "MagneticFieldStrength": 3.0,
      "Manufacturer": "SIEMENS",
      "ManufacturerModelName": "Prisma",
      "Modality": "MR",
      "NumberOfAverages": 1.0,
      "NumberOfPhaseEncodingSteps": 58,
      "PercentPhaseFieldOfView": 100.0,
      "PercentSampling": 75.0,
      "PerformedProcedureStepStartTime": "145909.525000",
      "PhotometricInterpretation": "MONOCHROME2",
      "PixelBandwidth": 2265.0,
      "PixelRepresentation": 0,
      "PixelSpacing": [2.0, 2.0],
      "ProtocolName": "func_vwfate_run8",
      "RepetitionTime": 1500.0,
      "Rows": 864,
      "SAR": 0.06301668418083,
      "SamplesPerPixel": 1,
      "ScanOptions": [
        "PFP",
        "FS"
],
      "ScanningSequence": "EP",
      "SequenceName": "*epfid2d1_72",
      "SequenceVariant": [
        "SK",
        "OSP"
],
      "SeriesDescription": "func_vwfate_run8",
      "SeriesNumber": 9,
      "SeriesTime": "153200.360000",
      "SliceLocation": -61.763473906594,
      "SliceThickness": 2.0,
      "SmallestImagePixelValue": 0,
      "SoftwareVersions": "syngo MR E11",
      "SpacingBetweenSlices": 1.9999999956375,
      "SpecificCharacterSet": "ISO_IR 100",
      "StudyID": "2",
      "StudyTime": "145909.474000",
      "TransmitCoilName": "Body",
      "VariableFlipAngleFlag": "N",
      "WindowCenterWidthExplanation": "Algo1",
      "dBdt": 0.0},
    "slices": {}
  },
  "time": {
    "samples": {
      "AcquisitionNumber": [1, 2, 3, 4, 5, 6, 7, 8, 9, 10, 11, 12, 13, 14, 15, 16, 17, 18, 19, 20, 21, 22, 23, 24, 25, 26, 27, 28, 29, 30, 31, 32, 33, 34, 35, 36, 37, 38, 39, 40, 41, 42, 43, 44, 45, 46, 47, 48, 49, 50, 51, 52, 53, 54, 55, 56, 57, 58, 59, 60, 61, 62, 63, 64, 65, 66, 67, 68, 69, 70, 71, 72, 73, 74, 75, 76, 77, 78, 79, 80, 81, 82, 83, 84, 85, 86, 87, 88, 89, 90, 91, 92, 93, 94, 95, 96, 97, 98, 99, 100, 101, 102, 103, 104, 105, 106, 107, 108, 109, 110, 111, 112, 113, 114, 115, 116, 117, 118, 119, 120, 121, 122, 123, 124, 125, 126, 127, 128, 129, 130, 131, 132, 133, 134, 135, 136, 137, 138, 139, 140, 141, 142, 143, 144, 145, 146, 147, 148, 149, 150, 151, 152, 153, 154, 155, 156, 157, 158, 159, 160, 161, 162, 163, 164],
      "AcquisitionTime": ["153119.480000", "153120.980000", "153122.480000", "153123.980000", "153125.480000", "153126.980000", "153128.480000", "153129.980000", "153131.480000", "153132.980000", "153134.480000", "153135.980000", "153137.480000", "153138.980000", "153140.480000", "153141.980000", "153143.480000", "153144.980000", "153146.480000", "153147.980000", "153149.480000", "153150.980000", "153152.480000", "153153.980000", "153155.480000", "153156.980000", "153158.480000", "153159.980000", "153201.480000", "153202.980000", "153204.480000", "153205.980000", "153207.480000", "153208.980000", "153210.480000", "153211.980000", "153213.480000", "153214.980000", "153216.480000", "153217.980000", "153219.480000", "153220.980000", "153222.480000", "153223.980000", "153225.480000", "153226.980000", "153228.480000", "153229.980000", "153231.480000", "153232.980000", "153234.480000", "153235.980000", "153237.480000", "153238.980000", "153240.480000", "153241.980000", "153243.480000", "153244.980000", "153246.480000", "153247.980000", "153249.480000", "153250.980000", "153252.480000", "153253.980000", "153255.480000", "153256.980000", "153258.480000", "153259.980000", "153301.480000", "153302.980000", "153304.480000", "153305.980000", "153307.480000", "153308.980000", "153310.480000", "153311.980000", "153313.480000", "153314.980000", "153316.480000", "153317.980000", "153319.480000", "153320.980000", "153322.480000", "153323.980000", "153325.480000", "153326.980000", "153328.480000", "153329.980000", "153331.480000", "153332.980000", "153334.480000", "153335.980000", "153337.480000", "153338.980000", "153340.480000", "153341.980000", "153343.480000", "153344.980000", "153346.480000", "153347.980000", "153349.480000", "153350.980000", "153352.480000", "153353.980000", "153355.480000", "153356.980000", "153358.480000", "153359.980000", "153401.480000", "153402.980000", "153404.480000", "153405.980000", "153407.480000", "153408.980000", "153410.480000", "153411.980000", "153413.480000", "153414.980000", "153416.480000", "153417.980000", "153419.480000", "153420.980000", "153422.480000", "153423.980000", "153425.480000", "153426.980000", "153428.480000", "153429.980000", "153431.480000", "153432.980000", "153434.480000", "153435.980000", "153437.480000", "153438.980000", "153440.480000", "153441.980000", "153443.480000", "153444.980000", "153446.480000", "153447.980000", "153449.480000", "153450.980000", "153452.480000", "153453.980000", "153455.480000", "153456.980000", "153458.480000", "153459.980000", "153501.480000", "153502.980000", "153504.480000", "153505.980000", "153507.480000", "153508.980000", "153510.480000", "153511.980000", "153513.480000", "153514.980000", "153516.480000", "153517.980000", "153519.480000", "153520.980000", "153522.480000", "153523.980000"],
      "ContentTime": ["153200.364000", "153200.368000", "153200.378000", "153200.381000", "153200.384000", "153200.388000", "153200.391000", "153200.399000", "153200.402000", "153200.405000", "153200.408000", "153200.411000", "153200.414000", "153200.417000", "153200.420000", "153200.424000", "153200.427000", "153200.430000", "153200.433000", "153200.436000", "153200.439000", "153200.443000", "153200.446000", "153200.449000", "153200.452000", "153200.455000", "153200.458000", "153240.360000", "153240.367000", "153240.370000", "153240.373000", "153240.376000", "153240.379000", "153240.383000", "153240.386000", "153240.389000", "153240.392000", "153240.395000", "153240.398000", "153240.401000", "153240.404000", "153240.407000", "153240.410000", "153240.413000", "153240.420000", "153240.423000", "153240.426000", "153240.429000", "153240.433000", "153240.436000", "153240.439000", "153240.442000", "153240.445000", "153300.360000", "153300.368000", "153300.371000", "153300.374000", "153300.377000", "153300.380000", "153300.383000", "153300.386000", "153300.389000", "153300.392000", "153300.396000", "153300.399000", "153300.402000", "153300.405000", "153340.360000", "153340.363000", "153340.366000", "153340.369000", "153340.372000", "153340.375000", "153340.379000", "153340.382000", "153340.385000", "153340.388000", "153340.391000", "153340.395000", "153340.398000", "153340.401000", "153340.405000", "153340.426000", "153340.429000", "153340.432000", "153340.435000", "153340.438000", "153340.442000", "153340.445000", "153340.448000", "153340.451000", "153340.454000", "153340.457000", "153420.359000", "153420.362000", "153420.365000", "153420.369000", "153420.372000", "153420.375000", "153420.378000", "153420.381000", "153420.384000", "153420.387000", "153420.390000", "153420.394000", "153420.397000", "153420.400000", "153420.403000", "153420.406000", "153420.409000", "153420.412000", "153420.415000", "153420.418000", "153420.421000", "153420.424000", "153420.427000", "153420.430000", "153420.433000", "153420.436000", "153420.439000", "153500.360000", "153500.363000", "153500.366000", "153500.369000", "153500.373000", "153500.376000", "153500.379000", "153500.382000", "153500.385000", "153500.388000", "153500.392000", "153500.395000", "153500.398000", "153500.401000", "153500.404000", "153500.407000", "153500.410000", "153500.413000", "153500.417000", "153500.420000", "153500.423000", "153500.426000", "153500.429000", "153500.432000", "153500.435000", "153500.438000", "153500.442000", "153525.381000", "153525.384000", "153525.388000", "153525.391000", "153525.394000", "153525.398000", "153525.401000", "153525.404000", "153525.407000", "153525.411000", "153525.414000", "153525.418000", "153525.421000", "153525.426000", "153525.430000", "153525.433000", "153525.436000"],
      "InstanceCreationTime": ["153200.364000", "153200.368000", "153200.378000", "153200.381000", "153200.384000", "153200.388000", "153200.391000", "153200.399000", "153200.402000", "153200.405000", "153200.408000", "153200.411000", "153200.414000", "153200.417000", "153200.420000", "153200.424000", "153200.427000", "153200.430000", "153200.433000", "153200.436000", "153200.439000", "153200.443000", "153200.446000", "153200.449000", "153200.452000", "153200.455000", "153200.458000", "153240.360000", "153240.367000", "153240.370000", "153240.373000", "153240.376000", "153240.379000", "153240.383000", "153240.386000", "153240.389000", "153240.392000", "153240.395000", "153240.398000", "153240.401000", "153240.404000", "153240.407000", "153240.410000", "153240.413000", "153240.420000", "153240.423000", "153240.426000", "153240.429000", "153240.433000", "153240.436000", "153240.439000", "153240.442000", "153240.445000", "153300.360000", "153300.368000", "153300.371000", "153300.374000", "153300.377000", "153300.380000", "153300.383000", "153300.386000", "153300.389000", "153300.392000", "153300.396000", "153300.399000", "153300.402000", "153300.405000", "153340.360000", "153340.363000", "153340.366000", "153340.369000", "153340.372000", "153340.375000", "153340.379000", "153340.382000", "153340.385000", "153340.388000", "153340.391000", "153340.395000", "153340.398000", "153340.401000", "153340.405000", "153340.426000", "153340.429000", "153340.432000", "153340.435000", "153340.438000", "153340.442000", "153340.445000", "153340.448000", "153340.451000", "153340.454000", "153340.457000", "153420.359000", "153420.362000", "153420.365000", "153420.369000", "153420.372000", "153420.375000", "153420.378000", "153420.381000", "153420.384000", "153420.387000", "153420.390000", "153420.394000", "153420.397000", "153420.400000", "153420.403000", "153420.406000", "153420.409000", "153420.412000", "153420.415000", "153420.418000", "153420.421000", "153420.424000", "153420.427000", "153420.430000", "153420.433000", "153420.436000", "153420.439000", "153500.360000", "153500.363000", "153500.366000", "153500.369000", "153500.373000", "153500.376000", "153500.379000", "153500.382000", "153500.385000", "153500.388000", "153500.392000", "153500.395000", "153500.398000", "153500.401000", "153500.404000", "153500.407000", "153500.410000", "153500.413000", "153500.417000", "153500.420000", "153500.423000", "153500.426000", "153500.429000", "153500.432000", "153500.435000", "153500.438000", "153500.442000", "153525.381000", "153525.384000", "153525.388000", "153525.391000", "153525.394000", "153525.398000", "153525.401000", "153525.404000", "153525.407000", "153525.411000", "153525.414000", "153525.418000", "153525.421000", "153525.426000", "153525.430000", "153525.433000", "153525.436000"],
      "InstanceNumber": [1, 2, 3, 4, 5, 6, 7, 8, 9, 10, 11, 12, 13, 14, 15, 16, 17, 18, 19, 20, 21, 22, 23, 24, 25, 26, 27, 28, 29, 30, 31, 32, 33, 34, 35, 36, 37, 38, 39, 40, 41, 42, 43, 44, 45, 46, 47, 48, 49, 50, 51, 52, 53, 54, 55, 56, 57, 58, 59, 60, 61, 62, 63, 64, 65, 66, 67, 68, 69, 70, 71, 72, 73, 74, 75, 76, 77, 78, 79, 80, 81, 82, 83, 84, 85, 86, 87, 88, 89, 90, 91, 92, 93, 94, 95, 96, 97, 98, 99, 100, 101, 102, 103, 104, 105, 106, 107, 108, 109, 110, 111, 112, 113, 114, 115, 116, 117, 118, 119, 120, 121, 122, 123, 124, 125, 126, 127, 128, 129, 130, 131, 132, 133, 134, 135, 136, 137, 138, 139, 140, 141, 142, 143, 144, 145, 146, 147, 148, 149, 150, 151, 152, 153, 154, 155, 156, 157, 158, 159, 160, 161, 162, 163, 164],
      "LargestImagePixelValue": [3055, 2862, 2849, 2851, 2849, 2827, 2849, 2883, 2836, 2856, 2871, 2847, 2877, 2832, 2887, 2842, 2839, 2870, 2825, 2863, 2902, 2820, 2879, 2877, 2843, 2882, 2857, 2901, 2853, 2833, 2879, 2877, 2870, 2865, 2835, 2892, 2873, 2862, 2898, 2869, 2865, 2882, 2848, 2887, 2828, 2863, 2911, 2826, 2889, 2868, 2859, 2888, 2866, 2874, 2827, 2794, 2866, 2832, 2843, 2875, 2824, 2818, 2866, 2817, 2863, 2812, 2843, 2794, 2851, 2815, 2822, 2835, 2821, 2853, 2809, 2794, 2855, 2792, 2822, 2880, 2838, 2894, 2852, 2833, 2893, 2837, 2808, 2881, 2810, 2740, 2816, 2790, 2761, 2824, 2772, 2742, 2815, 2769, 2777, 2830, 2746, 2762, 2804, 2761, 2797, 2755, 2769, 2776, 2764, 2795, 2821, 2796, 2845, 2802, 2796, 2821, 2831, 2809, 2839, 2809, 2838, 2798, 2783, 2823, 2826, 2831, 2808, 2840, 2785, 2816, 2804, 2843, 2824, 2860, 2824, 2825, 2848, 2828, 2824, 2829, 2807, 2825, 2816, 2806, 2844, 2816, 2816, 2831, 2831, 2839, 2828, 2833, 2859, 2811, 2813, 2839, 2808, 2819, 2849, 2835, 2826, 2813, 2858, 2822],
      "WindowCenter": [720.0, 718.0, 718.0, 717.0, 716.0, 716.0, 717.0, 718.0, 717.0, 716.0, 715.0, 714.0, 715.0, 715.0, 715.0, 716.0, 716.0, 716.0, 716.0, 716.0, 716.0, 716.0, 717.0, 717.0, 716.0, 716.0, 716.0, 717.0, 717.0, 717.0, 717.0, 716.0, 716.0, 716.0, 717.0, 718.0, 717.0, 717.0, 717.0, 717.0, 717.0, 718.0, 718.0, 718.0, 717.0, 717.0, 716.0, 716.0, 717.0, 717.0, 717.0, 717.0, 716.0, 715.0, 715.0, 715.0, 716.0, 716.0, 716.0, 716.0, 716.0, 716.0, 716.0, 715.0, 715.0, 715.0, 716.0, 716.0, 717.0, 716.0, 715.0, 714.0, 715.0, 716.0, 715.0, 715.0, 715.0, 716.0, 717.0, 717.0, 717.0, 717.0, 716.0, 715.0, 716.0, 716.0, 716.0, 717.0, 717.0, 715.0, 715.0, 714.0, 713.0, 714.0, 714.0, 715.0, 716.0, 715.0, 714.0, 713.0, 713.0, 714.0, 714.0, 714.0, 715.0, 713.0, 713.0, 713.0, 714.0, 715.0, 715.0, 714.0, 715.0, 714.0, 714.0, 714.0, 714.0, 714.0, 713.0, 714.0, 714.0, 714.0, 714.0, 714.0, 714.0, 713.0, 713.0, 714.0, 714.0, 715.0, 714.0, 714.0, 714.0, 715.0, 715.0, 715.0, 714.0, 714.0, 714.0, 714.0, 715.0, 714.0, 713.0, 713.0, 713.0, 713.0, 715.0, 716.0, 716.0, 715.0, 714.0, 713.0, 713.0, 713.0, 714.0, 714.0, 714.0, 713.0, 713.0, 713.0, 714.0, 715.0, 715.0, 713.0],
      "WindowWidth": [1558.0, 1552.0, 1552.0, 1549.0, 1545.0, 1545.0, 1548.0, 1551.0, 1549.0, 1546.0, 1543.0, 1541.0, 1542.0, 1542.0, 1544.0, 1545.0, 1545.0, 1545.0, 1545.0, 1546.0, 1546.0, 1546.0, 1548.0, 1547.0, 1546.0, 1546.0, 1546.0, 1548.0, 1548.0, 1548.0, 1547.0, 1545.0, 1544.0, 1544.0, 1547.0, 1550.0, 1549.0, 1548.0, 1547.0, 1547.0, 1547.0, 1549.0, 1551.0, 1551.0, 1548.0, 1547.0, 1546.0, 1545.0, 1548.0, 1549.0, 1548.0, 1547.0, 1545.0, 1544.0, 1543.0, 1543.0, 1545.0, 1545.0, 1545.0, 1545.0, 1544.0, 1546.0, 1545.0, 1543.0, 1543.0, 1542.0, 1544.0, 1546.0, 1547.0, 1545.0, 1543.0, 1541.0, 1542.0, 1544.0, 1543.0, 1542.0, 1542.0, 1544.0, 1547.0, 1548.0, 1548.0, 1547.0, 1544.0, 1543.0, 1544.0, 1544.0, 1545.0, 1548.0, 1547.0, 1543.0, 1541.0, 1540.0, 1538.0, 1540.0, 1541.0, 1544.0, 1545.0, 1541.0, 1539.0, 1537.0, 1537.0, 1539.0, 1540.0, 1541.0, 1541.0, 1538.0, 1537.0, 1537.0, 1539.0, 1541.0, 1542.0, 1541.0, 1542.0, 1541.0, 1541.0, 1541.0, 1540.0, 1540.0, 1538.0, 1539.0, 1541.0, 1541.0, 1541.0, 1540.0, 1540.0, 1537.0, 1538.0, 1540.0, 1540.0, 1542.0, 1539.0, 1538.0, 1539.0, 1542.0, 1542.0, 1541.0, 1540.0, 1538.0, 1539.0, 1540.0, 1541.0, 1541.0, 1537.0, 1536.0, 1537.0, 1538.0, 1542.0, 1546.0, 1545.0, 1541.0, 1539.0, 1538.0, 1537.0, 1538.0, 1540.0, 1541.0, 1540.0, 1538.0, 1537.0, 1538.0, 1541.0, 1541.0, 1541.0, 1538.0]
    },
    "slices": {}
  }
}