{
  "AcquisitionMatrixPE": 70,
  "AcquisitionNumber": 1,
  "AcquisitionTime": "11:04:47.817500",
  "BaseResolution": 70,
  "BodyPartExamined": "BRAIN",
  "CoilCombinationMethod": "Sum of Squares",
  "ConsistencyInfo": "N4_VE11C_LATEST_20160120",
  "ConversionSoftware": "dcm2niix",
  "ConversionSoftwareVersion": "v1.0.20211006",
  "DeviceSerialNumber": "166011",
  "DwellTime": 1.2e-05,
  "EchoNumber": 2,
  "EchoTime": 0.00738,
  "EchoTime1": 0.00492,
  "EchoTime2": 0.00738,
  "FlipAngle": 60,
  "ImageOrientationPatientDICOM": [
    0.996616,
    -0.0697688,
    0.0434662,
    0.0763355,
    0.98169,
    -0.174521
  ],
  "ImageOrientationText": "Tra>Cor(-10.2)>Sag(1.7)",
  "ImageType": [
    "ORIGINAL",
    "PRIMARY",
    "P",
    "ND",
    "PHASE"
  ],
  "ImagingFrequency": 123.26,
  "InPlanePhaseEncodingDirectionDICOM": "ROW",
  "InstitutionAddress": "West 130th Street 610,NY,NYC,US,10025",
  "InstitutionName": "MBBI",
  "InstitutionalDepartmentName": "Department",
  "IntendedFor": [
    "ses-1/func/sub-091_ses-1_task-catLoc_run-01_bold.nii.gz",
    "ses-1/func/sub-091_ses-1_task-catLoc_run-02_bold.nii.gz",
    "ses-1/func/sub-091_ses-1_task-vwfate_run-01_bold.nii.gz",
    "ses-1/func/sub-091_ses-1_task-vwfate_run-02_bold.nii.gz",
    "ses-1/func/sub-091_ses-1_task-vwfate_run-03_bold.nii.gz",
    "ses-1/func/sub-091_ses-1_task-vwfate_run-04_bold.nii.gz",
    "ses-1/func/sub-091_ses-1_task-vwfate_run-05_bold.nii.gz",
    "ses-1/func/sub-091_ses-1_task-vwfate_run-06_bold.nii.gz"
  ],
  "MRAcquisitionType": "2D",
  "MagneticFieldStrength": 3,
  "Manufacturer": "Siemens",
  "ManufacturersModelName": "Prisma",
  "MatrixCoilMode": "SENSE",
  "Modality": "MR",
  "PartialFourier": 1,
  "PatientPosition": "HFS",
  "PercentPhaseFOV": 100,
  "PercentSampling": 100,
  "PhaseEncodingDirection": "i",
  "PhaseEncodingSteps": 70,
  "PhaseResolution": 1,
  "PixelBandwidth": 595,
  "ProcedureStepDescription": "White^Word_recognition",
  "ProtocolName": "fmap_gre_field_mapping",
  "PulseSequenceDetails": "%SiemensSeq%\\gre_field_mapping",
  "ReceiveCoilActiveElements": "HC1-7",
  "ReceiveCoilName": "HeadNeck_64",
  "ReconMatrixPE": 70,
  "RepetitionTime": 0.52,
  "SAR": 0.0954841,
  "ScanningSequence": "GR",
  "SequenceName": "*fm2d2r",
  "SequenceVariant": "SP",
  "SeriesDescription": "fmap_gre_field_mapping",
  "SeriesNumber": 17,
  "ShimSetting": [
    -1132,
    -1338,
    684,
    606,
    -61,
    89,
    -128,
    -34
  ],
  "SliceThickness": 3,
  "SliceTiming": [
    0.26562,
    0,
    0.27344,
    0.01562,
    0.28906,
    0.03125,
    0.29688,
    0.03906,
    0.3125,
    0.05469,
    0.32812,
    0.0625,
    0.33594,
    0.07812,
    0.35156,
    0.09375,
    0.35938,
    0.10156,
    0.375,
    0.11719,
    0.39062,
    0.125,
    0.39844,
    0.14062,
    0.41406,
    0.15625,
    0.42188,
    0.16406,
    0.4375,
    0.17969,
    0.45312,
    0.1875,
    0.46094,
    0.20312,
    0.47656,
    0.21094,
    0.48438,
    0.22656,
    0.5,
    0.23438,
    0.50781,
    0.25
  ],
  "SoftwareVersions": "syngo MR E11",
  "SpacingBetweenSlices": 3,
  "StationName": "AWP166011",
  "TxRefAmp": 207.842,
  "dcmmeta_affine": [
    [
      -2.989847421646118,
      0.22900640964508057,
      0.09148216247558594,
      99.75456237792969
    ],
    [
      0.2093064785003662,
      2.9450697898864746,
      -0.5317466259002686,
      -82.80498504638672
    ],
    [
      0.13039849698543549,
      0.5235644578933716,
      2.951080322265625,
      -69.06298065185547
    ],
    [
      0.0,
      0.0,
      0.0,
      1.0
    ]
  ],
  "dcmmeta_reorient_transform": [
    [
      0.0,
      -1.0,
      0.0,
      69.0
    ],
    [
      1.0,
      0.0,
      0.0,
      0.0
    ],
    [
      0.0,
      0.0,
      -1.0,
      41.0
    ],
    [
      0.0,
      0.0,
      0.0,
      1.0
    ]
  ],
  "dcmmeta_shape": [
    70,
    70,
    42
  ],
  "dcmmeta_slice_dim": 2,
  "dcmmeta_version": 0.6,
  "global": {
    "const": {
      "AcquisitionMatrix": [
        0,
        70,
        70,
        0
      ],
      "AcquisitionNumber": 1,
      "AngioFlag": "N",
      "BitsAllocated": 16,
      "BitsStored": 12,
      "BodyPartExamined": "BRAIN",
      "Columns": 70,
      "EchoNumbers": 2,
      "EchoTime": 7.38,
      "EchoTrainLength": 0,
      "FlipAngle": 60.0,
      "HighBit": 11,
      "ImageOrientationPatient": [
        0.99661577516141,
        -0.0697688277994,
        0.04346616347128,
        0.07633547224655,
        0.98168994575058,
        -0.1745214774436
      ],
      "ImageType": [
        "ORIGINAL",
        "PRIMARY",
        "P",
        "ND"
      ],
      "ImagedNucleus": "1H",
      "ImagingFrequency": 123.25953,
      "InPlanePhaseEncodingDirection": "ROW",
      "MRAcquisitionType": "2D",
      "MagneticFieldStrength": 3.0,
      "Manufacturer": "SIEMENS",
      "ManufacturerModelName": "Prisma",
      "Modality": "MR",
      "NumberOfAverages": 1.0,
      "NumberOfPhaseEncodingSteps": 70,
      "PercentPhaseFieldOfView": 100.0,
      "PercentSampling": 100.0,
      "PerformedProcedureStepStartTime": "095945.114000",
      "PhotometricInterpretation": "MONOCHROME2",
      "PixelBandwidth": 595.0,
      "PixelRepresentation": 0,
      "PixelSpacing": [
        3.0,
        3.0
      ],
      "ProtocolName": "fmap_gre_field_mapping",
      "RepetitionTime": 520.0,
      "RescaleIntercept": -4096.0,
      "RescaleSlope": 2.0,
      "RescaleType": "US",
      "Rows": 70,
      "SAR": 0.09548408503363,
      "SamplesPerPixel": 1,
      "ScanningSequence": "GR",
      "SequenceName": "*fm2d2r",
      "SequenceVariant": "SP",
      "SeriesDescription": "fmap_gre_field_mapping",
      "SeriesNumber": 17,
      "SeriesTime": "110600.518000",
      "SliceThickness": 3.0,
      "SoftwareVersions": "syngo MR E11",
      "SpacingBetweenSlices": 3.0,
      "SpecificCharacterSet": "ISO_IR 100",
      "StudyID": "1",
      "StudyTime": "095945.028000",
      "TransmitCoilName": "Body",
      "VariableFlipAngleFlag": "N",
      "WindowCenterWidthExplanation": "Algo1",
      "dBdt": 0.0
    },
    "slices": {
      "AcquisitionTime": [
        "110447.817500",
        "110447.557500",
        "110447.830000",
        "110447.570000",
        "110447.842500",
        "110447.582500",
        "110447.855000",
        "110447.595000",
        "110447.867500",
        "110447.607500",
        "110447.880000",
        "110447.620000",
        "110447.892500",
        "110447.632500",
        "110447.905000",
        "110447.645000",
        "110447.917500",
        "110447.657500",
        "110447.930000",
        "110447.670000",
        "110447.942500",
        "110447.682500",
        "110447.955000",
        "110447.695000",
        "110447.967500",
        "110447.707500",
        "110447.980000",
        "110447.720000",
        "110447.992500",
        "110447.732500",
        "110448.005000",
        "110447.745000",
        "110448.015000",
        "110447.755000",
        "110448.027500",
        "110447.767500",
        "110448.040000",
        "110447.780000",
        "110448.052500",
        "110447.792500",
        "110448.065000",
        "110447.805000"
      ],
      "ContentTime": [
        "110600.572000",
        "110600.522000",
        "110600.574000",
        "110600.525000",
        "110600.577000",
        "110600.527000",
        "110600.579000",
        "110600.529000",
        "110600.581000",
        "110600.531000",
        "110600.583000",
        "110600.533000",
        "110600.586000",
        "110600.535000",
        "110600.588000",
        "110600.537000",
        "110600.590000",
        "110600.540000",
        "110600.592000",
        "110600.542000",
        "110600.594000",
        "110600.544000",
        "110600.596000",
        "110600.546000",
        "110600.599000",
        "110600.548000",
        "110600.601000",
        "110600.550000",
        "110600.603000",
        "110600.552000",
        "110600.605000",
        "110600.555000",
        "110600.607000",
        "110600.557000",
        "110600.609000",
        "110600.563000",
        "110600.611000",
        "110600.565000",
        "110600.614000",
        "110600.568000",
        "110600.616000",
        "110600.570000"
      ],
      "CsaImage.ICE_Dims": [
        "X_2_1_1_1_1_1_22_1_1_1_1_250",
        "X_2_1_1_1_1_1_1_1_1_2_1_250",
        "X_2_1_1_1_1_1_23_1_1_3_1_250",
        "X_2_1_1_1_1_1_2_1_1_4_1_250",
        "X_2_1_1_1_1_1_24_1_1_5_1_250",
        "X_2_1_1_1_1_1_3_1_1_6_1_250",
        "X_2_1_1_1_1_1_25_1_1_7_1_250",
        "X_2_1_1_1_1_1_4_1_1_8_1_250",
        "X_2_1_1_1_1_1_26_1_1_9_1_250",
        "X_2_1_1_1_1_1_5_1_1_10_1_250",
        "X_2_1_1_1_1_1_27_1_1_11_1_250",
        "X_2_1_1_1_1_1_6_1_1_12_1_250",
        "X_2_1_1_1_1_1_28_1_1_13_1_250",
        "X_2_1_1_1_1_1_7_1_1_14_1_250",
        "X_2_1_1_1_1_1_29_1_1_15_1_250",
        "X_2_1_1_1_1_1_8_1_1_16_1_250",
        "X_2_1_1_1_1_1_30_1_1_17_1_250",
        "X_2_1_1_1_1_1_9_1_1_18_1_250",
        "X_2_1_1_1_1_1_31_1_1_19_1_250",
        "X_2_1_1_1_1_1_10_1_1_20_1_250",
        "X_2_1_1_1_1_1_32_1_1_21_1_250",
        "X_2_1_1_1_1_1_11_1_1_22_1_250",
        "X_2_1_1_1_1_1_33_1_1_23_1_250",
        "X_2_1_1_1_1_1_12_1_1_24_1_250",
        "X_2_1_1_1_1_1_34_1_1_25_1_250",
        "X_2_1_1_1_1_1_13_1_1_26_1_250",
        "X_2_1_1_1_1_1_35_1_1_27_1_250",
        "X_2_1_1_1_1_1_14_1_1_28_1_250",
        "X_2_1_1_1_1_1_36_1_1_29_1_250",
        "X_2_1_1_1_1_1_15_1_1_30_1_250",
        "X_2_1_1_1_1_1_37_1_1_31_1_250",
        "X_2_1_1_1_1_1_16_1_1_32_1_250",
        "X_2_1_1_1_1_1_38_1_1_33_1_250",
        "X_2_1_1_1_1_1_17_1_1_34_1_250",
        "X_2_1_1_1_1_1_39_1_1_35_1_250",
        "X_2_1_1_1_1_1_18_1_1_36_1_250",
        "X_2_1_1_1_1_1_40_1_1_37_1_250",
        "X_2_1_1_1_1_1_19_1_1_38_1_250",
        "X_2_1_1_1_1_1_41_1_1_39_1_250",
        "X_2_1_1_1_1_1_20_1_1_40_1_250",
        "X_2_1_1_1_1_1_42_1_1_41_1_250",
        "X_2_1_1_1_1_1_21_1_1_42_1_250"
      ],
      "CsaImage.ProtocolSliceNumber": [
        0,
        1,
        2,
        3,
        4,
        5,
        6,
        7,
        8,
        9,
        10,
        11,
        12,
        13,
        14,
        15,
        16,
        17,
        18,
        19,
        20,
        21,
        22,
        23,
        24,
        25,
        26,
        27,
        28,
        29,
        30,
        31,
        32,
        33,
        34,
        35,
        36,
        37,
        38,
        39,
        40,
        41
      ],
      "CsaImage.SlicePosition_PCS": [
        [
          -115.5559927,
          -120.4048317,
          -32.93704512
        ],
        [
          -115.64747534,
          -119.87308579,
          -29.9859648
        ],
        [
          -115.73895774,
          -119.34133798,
          -27.03488448
        ],
        [
          -115.83044015,
          -118.80959206,
          -24.08380415
        ],
        [
          -115.92192255,
          -118.27784615,
          -21.13272383
        ],
        [
          -116.01340495,
          -117.74609834,
          -18.18164351
        ],
        [
          -116.10488735,
          -117.21435243,
          -15.23056319
        ],
        [
          -116.19636975,
          -116.68260651,
          -12.27948096
        ],
        [
          -116.28785215,
          -116.1508587,
          -9.32840064
        ],
        [
          -116.37933455,
          -115.61911279,
          -6.37732031
        ],
        [
          -116.47081695,
          -115.08736688,
          -3.42623999
        ],
        [
          -116.56229935,
          -114.55561906,
          -0.47515967
        ],
        [
          -116.65378175,
          -114.02387315,
          2.47592065
        ],
        [
          -116.74526439,
          -113.49212724,
          5.42700193
        ],
        [
          -116.83674656,
          -112.96037942,
          8.37808225
        ],
        [
          -116.92822919,
          -112.42863351,
          11.32916281
        ],
        [
          -117.01971136,
          -111.8968876,
          14.28024337
        ],
        [
          -117.111194,
          -111.36513978,
          17.23132393
        ],
        [
          -117.20267616,
          -110.83339387,
          20.18240449
        ],
        [
          -117.2941588,
          -110.301647,
          23.13348482
        ],
        [
          -117.38564096,
          -109.76990014,
          26.08456609
        ],
        [
          -117.4771236,
          -109.23815423,
          29.03564641
        ],
        [
          -117.56860576,
          -108.70640736,
          31.98672769
        ],
        [
          -117.6600884,
          -108.1746605,
          34.93780801
        ],
        [
          -117.75157056,
          -107.64291459,
          37.88888834
        ],
        [
          -117.8430532,
          -107.11116773,
          40.83996866
        ],
        [
          -117.93453537,
          -106.57942086,
          43.79104898
        ],
        [
          -118.02601801,
          -106.047674,
          46.74213121
        ],
        [
          -118.11750017,
          -105.51592809,
          49.69321153
        ],
        [
          -118.20898281,
          -104.98418122,
          52.64429185
        ],
        [
          -118.30046497,
          -104.45243436,
          55.59537218
        ],
        [
          -118.39194761,
          -103.92068845,
          58.5464525
        ],
        [
          -118.48342977,
          -103.38894158,
          61.49753282
        ],
        [
          -118.57491241,
          -102.85719472,
          64.44861314
        ],
        [
          -118.66639505,
          -102.32544833,
          67.39969347
        ],
        [
          -118.75787721,
          -101.79370194,
          70.35077379
        ],
        [
          -118.84935985,
          -101.26195508,
          73.30185411
        ],
        [
          -118.94084201,
          -100.73020869,
          76.25293443
        ],
        [
          -119.03232465,
          -100.19846183,
          79.20401475
        ],
        [
          -119.12380682,
          -99.66671544,
          82.15509508
        ],
        [
          -119.21528946,
          -99.13496881,
          85.1061754
        ],
        [
          -119.30677162,
          -98.60322219,
          88.05725572
        ]
      ],
      "CsaImage.TimeAfterStart": [
        0.7825,
        0.5225,
        0.795,
        0.535,
        0.8075,
        0.5475,
        0.82,
        0.56,
        0.8325,
        0.5725,
        0.845,
        0.585,
        0.8575,
        0.5975,
        0.87,
        0.61,
        0.8825,
        0.6225,
        0.895,
        0.635,
        0.9075,
        0.6475,
        0.92,
        0.66,
        0.9325,
        0.6725,
        0.945,
        0.685,
        0.9575,
        0.6975,
        0.97,
        0.71,
        0.98,
        0.72,
        0.9925,
        0.7325,
        1.005,
        0.745,
        1.0175,
        0.7575,
        1.03,
        0.77
      ],
      "ImagePositionPatient": [
        [
          -115.5559927046,
          -120.40483170372,
          -32.937045121281
        ],
        [
          -115.64747534391,
          -119.87308579307,
          -29.985964799015
        ],
        [
          -115.7389577448,
          -119.34133797508,
          -27.03488447675
        ],
        [
          -115.8304401457,
          -118.80959206444,
          -24.083804154484
        ],
        [
          -115.92192254659,
          -118.27784615379,
          -21.132723832219
        ],
        [
          -116.01340494749,
          -117.7460983358,
          -18.181643509953
        ],
        [
          -116.10488734838,
          -117.21435242515,
          -15.230563187687
        ],
        [
          -116.19636974927,
          -116.68260651451,
          -12.279480958073
        ],
        [
          -116.28785215017,
          -116.15085869652,
          -9.3284006358074
        ],
        [
          -116.37933455106,
          -115.61911278587,
          -6.3773203135417
        ],
        [
          -116.47081695196,
          -115.08736687523,
          -3.4262399912761
        ],
        [
          -116.56229935285,
          -114.55561905723,
          -0.4751596690105
        ],
        [
          -116.65378175375,
          -114.02387314659,
          2.4759206532551
        ],
        [
          -116.74526439306,
          -113.49212723595,
          5.4270019291951
        ],
        [
          -116.83674655553,
          -112.96037941795,
          8.3780822514607
        ],
        [
          -116.92822919485,
          -112.42863350731,
          11.329162812145
        ],
        [
          -117.01971135732,
          -111.89688759666,
          14.280243372829
        ],
        [
          -117.11119399664,
          -111.36513977867,
          17.231323933513
        ],
        [
          -117.20267615911,
          -110.83339386803,
          20.182404494198
        ],
        [
          -117.29415879842,
          -110.30164700371,
          23.133484816463
        ],
        [
          -117.3856409609,
          -109.76990013939,
          26.084566092403
        ],
        [
          -117.47712360021,
          -109.23815422874,
          29.035646414669
        ],
        [
          -117.56860576269,
          -108.70640736442,
          31.986727690609
        ],
        [
          -117.660088402,
          -108.17466050011,
          34.937808012874
        ],
        [
          -117.75157056448,
          -107.64291458946,
          37.88888833514
        ],
        [
          -117.84305320379,
          -107.11116772514,
          40.839968657406
        ],
        [
          -117.93453536626,
          -106.57942086082,
          43.791048979671
        ],
        [
          -118.02601800558,
          -106.0476739965,
          46.742131209285
        ],
        [
          -118.11750016805,
          -105.51592808586,
          49.693211531551
        ],
        [
          -118.20898280737,
          -104.98418122154,
          52.644291853817
        ],
        [
          -118.30046496984,
          -104.45243435722,
          55.595372176082
        ],
        [
          -118.39194760915,
          -103.92068844658,
          58.546452498348
        ],
        [
          -118.48342977163,
          -103.38894158226,
          61.497532820614
        ],
        [
          -118.57491241094,
          -102.85719471794,
          64.448613142879
        ],
        [
          -118.66639505025,
          -102.32544833046,
          67.399693465145
        ],
        [
          -118.75787721273,
          -101.79370194298,
          70.35077378741
        ],
        [
          -118.84935985204,
          -101.26195507866,
          73.301854109676
        ],
        [
          -118.94084201452,
          -100.73020869118,
          76.252934431942
        ],
        [
          -119.03232465383,
          -100.19846182686,
          79.204014754207
        ],
        [
          -119.12380681631,
          -99.666715439376,
          82.155095076473
        ],
        [
          -119.21528945562,
          -99.134968813475,
          85.106175398739
        ],
        [
          -119.3067716181,
          -98.603222187575,
          88.057255721004
        ]
      ],
      "InstanceCreationTime": [
        "110600.572000",
        "110600.522000",
        "110600.574000",
        "110600.525000",
        "110600.577000",
        "110600.527000",
        "110600.579000",
        "110600.529000",
        "110600.581000",
        "110600.531000",
        "110600.583000",
        "110600.533000",
        "110600.586000",
        "110600.535000",
        "110600.588000",
        "110600.537000",
        "110600.590000",
        "110600.540000",
        "110600.592000",
        "110600.542000",
        "110600.594000",
        "110600.544000",
        "110600.596000",
        "110600.546000",
        "110600.599000",
        "110600.548000",
        "110600.601000",
        "110600.550000",
        "110600.603000",
        "110600.552000",
        "110600.605000",
        "110600.555000",
        "110600.607000",
        "110600.557000",
        "110600.609000",
        "110600.563000",
        "110600.611000",
        "110600.565000",
        "110600.614000",
        "110600.568000",
        "110600.616000",
        "110600.570000"
      ],
      "InstanceNumber": [
        1,
        2,
        3,
        4,
        5,
        6,
        7,
        8,
        9,
        10,
        11,
        12,
        13,
        14,
        15,
        16,
        17,
        18,
        19,
        20,
        21,
        22,
        23,
        24,
        25,
        26,
        27,
        28,
        29,
        30,
        31,
        32,
        33,
        34,
        35,
        36,
        37,
        38,
        39,
        40,
        41,
        42
      ],
      "LargestImagePixelValue": [
        4093,
        4086,
        4095,
        4090,
        4094,
        4092,
        4095,
        4094,
        4091,
        4086,
        4093,
        4092,
        4088,
        4092,
        4087,
        4088,
        4094,
        4091,
        4074,
        4091,
        4085,
        4093,
        4080,
        4093,
        4087,
        4080,
        4086,
        4094,
        4093,
        4087,
        4089,
        4092,
        4073,
        4086,
        4091,
        4093,
        4093,
        4095,
        4095,
        4095,
        4092,
        4093
      ],
      "SliceLocation": [
        -50.217797775429,
        -47.217798132888,
        -44.217798159543,
        -41.217798524272,
        -38.217798889001,
        -35.217798915655,
        -32.217799280385,
        -29.217797768868,
        -26.217797795522,
        -23.217798160251,
        -20.217798524981,
        -17.217798551635,
        -14.217798916364,
        -11.2177983357,
        -8.2177983696245,
        -5.2177984925527,
        -2.2177986300217,
        0.78220158512543,
        3.7822014476564,
        6.7822012592351,
        9.7822019943962,
        12.782201636937,
        15.782202372098,
        18.782202183677,
        21.782201811677,
        24.782201623256,
        27.782201420294,
        30.782203108119,
        33.782202736119,
        36.782202547698,
        39.782202344735,
        42.782201987276,
        45.782201784314,
        48.782201595893,
        51.782201322953,
        54.782201035472,
        57.78220084705,
        60.782200559569,
        63.782200371148,
        66.782200083667,
        69.782199852986,
        72.782199607765
      ],
      "SmallestImagePixelValue": [
        0,
        2,
        1,
        2,
        0,
        7,
        4,
        0,
        3,
        4,
        13,
        1,
        1,
        14,
        17,
        0,
        22,
        12,
        29,
        5,
        32,
        14,
        7,
        13,
        25,
        23,
        3,
        6,
        12,
        9,
        2,
        7,
        1,
        3,
        1,
        0,
        5,
        1,
        0,
        0,
        0,
        1
      ],
      "WindowCenter": [
        -254.0,
        -264.0,
        -200.0,
        -204.0,
        -172.0,
        -240.0,
        -258.0,
        -282.0,
        -310.0,
        -290.0,
        -252.0,
        -164.0,
        -164.0,
        -160.0,
        -198.0,
        -262.0,
        -140.0,
        -272.0,
        -254.0,
        -250.0,
        -244.0,
        -188.0,
        -178.0,
        -120.0,
        -128.0,
        -124.0,
        -148.0,
        -148.0,
        -172.0,
        -182.0,
        -214.0,
        -230.0,
        -280.0,
        -202.0,
        -172.0,
        -128.0,
        -170.0,
        -258.0,
        -168.0,
        -282.0,
        -244.0,
        -278.0
      ],
      "WindowWidth": [
        6160.0,
        6252.0,
        6226.0,
        6224.0,
        6182.0,
        6074.0,
        5998.0,
        5886.0,
        5712.0,
        5578.0,
        5290.0,
        5296.0,
        5146.0,
        5306.0,
        4986.0,
        4580.0,
        5088.0,
        4574.0,
        4540.0,
        4536.0,
        4532.0,
        4480.0,
        4482.0,
        4460.0,
        4456.0,
        4438.0,
        4494.0,
        4468.0,
        4526.0,
        4532.0,
        4576.0,
        4594.0,
        4648.0,
        4682.0,
        5380.0,
        5592.0,
        5678.0,
        5658.0,
        5816.0,
        6112.0,
        6070.0,
        6106.0
      ]
    }
  }
}