{
  "AcquisitionMatrixPE": 72,
  "AcquisitionNumber": 1,
  "AcquisitionTime": "13:14:35.572500",
  "BandwidthPerPixelPhaseEncode": 17.943,
  "BaseResolution": 96,
  "BodyPartExamined": "BRAIN",
  "CoilCombinationMethod": "Sum of Squares",
  "ConsistencyInfo": "N4_VE11C_LATEST_20160120",
  "ConversionSoftware": "dcm2niix",
  "ConversionSoftwareVersion": "v1.0.20211006",
  "DerivedVendorReportedEchoSpacing": 0.000552897,
  "DeviceSerialNumber": "166011",
  "EchoTime": 0.03,
  "EchoTrainLength": 58,
  "EffectiveEchoSpacing": 0.000580542,
  "FlipAngle": 62,
  "ImageOrientationPatientDICOM": [0.994749, 0.0986865, 0.0271215, -0.0936811, 0.984692, -0.146991],
  "ImageType": [
    "ORIGINAL",
    "PRIMARY",
    "M",
    "ND",
    "MOSAIC"
],
  "ImagingFrequency": 123.26,
  "InPlanePhaseEncodingDirectionDICOM": "COL",
  "InstitutionAddress": "West 130th Street 610,NY,NYC,US,10025",
  "InstitutionName": "MBBI",
  "MRAcquisitionType": "2D",
  "MagneticFieldStrength": 3,
  "Manufacturer": "Siemens",
  "ManufacturersModelName": "Prisma",
  "Modality": "MR",
  "MultibandAccelerationFactor": 3,
  "PartialFourier": 0.75,
  "PatientPosition": "HFS",
  "PercentPhaseFOV": 100,
  "PercentSampling": 75,
  "PhaseEncodingDirection": "j-",
  "PhaseEncodingSteps": 58,
  "PhaseOversampling": 0.05,
  "PhaseResolution": 0.75,
  "PixelBandwidth": 2265,
  "ProcedureStepDescription": "White^Word_recognition",
  "ProtocolName": "func_catLoc_run1",
  "PulseSequenceDetails": "%SiemensSeq%\\ep2d_bold",
  "ReceiveCoilActiveElements": "HC1-6",
  "ReceiveCoilName": "HeadNeck_64",
  "ReconMatrixPE": 96,
  "RefLinesPE": 40,
  "RepetitionTime": 1.5,
  "SAR": 0.0500557,
  "ScanOptions": "PFP\\FS",
  "ScanningSequence": "EP",
  "SequenceName": "*epfid2d1_72",
  "SequenceVariant": "SK\\OSP",
  "SeriesDescription": "func_catLoc_run1",
  "SeriesNumber": 10,
  "ShimSetting": [-1135, -1347, 688, 504, -52, -22, -41, 24],
  "SliceThickness": 2,
  "SliceTiming": [1.0775, 0, 0.74, 0.0675, 0.8075, 0.135, 0.875, 0.2025, 0.9425, 0.27, 1.01, 0.405, 1.145, 0.4725, 1.2125, 0.5375, 1.2775, 0.605, 1.345, 0.6725, 1.4125, 0.3375, 1.0775, 0, 0.74, 0.0675, 0.8075, 0.135, 0.875, 0.2025, 0.9425, 0.27, 1.01, 0.405, 1.145, 0.4725, 1.2125, 0.5375, 1.2775, 0.605, 1.345, 0.6725, 1.4125, 0.3375, 1.0775, 0, 0.74, 0.0675, 0.8075, 0.135, 0.875, 0.2025, 0.9425, 0.27, 1.01, 0.405, 1.145, 0.4725, 1.2125, 0.5375, 1.2775, 0.605, 1.345, 0.6725, 1.4125, 0.3375],
  "SoftwareVersions": "syngo MR E11",
  "SpacingBetweenSlices": 2,
  "StationName": "AWP166011",
  "TaskName": "catLoc",
  "TotalReadoutTime": 0.0551515,
  "TxRefAmp": 229.498,
  "dcmmeta_affine": [
    [-1.9894977807998657, -0.18736223876476288, 0.0824245885014534, 104.39629364013672],
    [-0.19737307727336884, 1.9693831205368042, -0.2873566746711731, -53.30393600463867],
    [0.054242901504039764, 0.2939819097518921, 1.977531909942627, -83.53926849365234],
    [0.0, 0.0, 0.0, 1.0]
],
  "dcmmeta_reorient_transform": [
    [0.0, -1.0, 0.0, 95.0],
    [1.0, 0.0, 0.0, 0.0],
    [0.0, 0.0, 1.0, 0.0],
    [0.0, 0.0, 0.0, 1.0]
],
  "dcmmeta_shape": [96, 96, 66, 214],
  "dcmmeta_slice_dim": 2,
  "dcmmeta_version": 0.6,
  "global": {
    "const": {
      "AcquisitionMatrix": [96, 0, 0, 72],
      "AngioFlag": "N",
      "BitsAllocated": 16,
      "BitsStored": 12,
      "BodyPartExamined": "BRAIN",
      "Columns": 864,
      "EchoNumbers": 1,
      "EchoTime": 30.0,
      "EchoTrainLength": 58,
      "FlipAngle": 62.0,
      "HighBit": 11,
      "ImageOrientationPatient": [0.99474891008466, 0.09868653785456, 0.02712145150366, -0.0936811227491, 0.98469157928622, -0.1469909552431],
      "ImagePositionPatient": [-778.61694121585, -965.82185818766, 36.448789621998],
      "ImageType": [
        "ORIGINAL",
        "PRIMARY",
        "M",
        "ND",
        "MOSAIC"
],
      "ImagedNucleus": "1H",
      "ImagingFrequency": 123.25953,
      "InPlanePhaseEncodingDirection": "COL",
      "MRAcquisitionType": "2D",
      "MagneticFieldStrength": 3.0,
      "Manufacturer": "SIEMENS",
      "ManufacturerModelName": "Prisma",
      "Modality": "MR",
      "NumberOfAverages": 1.0,
      "NumberOfPhaseEncodingSteps": 58,
      "PercentPhaseFieldOfView": 100.0,
      "PercentSampling": 75.0,
      "PerformedProcedureStepStartTime": "123537.862000",
      "PhotometricInterpretation": "MONOCHROME2",
      "PixelBandwidth": 2265.0,
      "PixelRepresentation": 0,
      "PixelSpacing": [2.0, 2.0],
      "ProtocolName": "func_catLoc_run1",
      "RepetitionTime": 1500.0,
      "Rows": 864,
      "SAR": 0.05005574326283,
      "SamplesPerPixel": 1,
      "ScanOptions": [
        "PFP",
        "FS"
],
      "ScanningSequence": "EP",
      "SequenceName": "*epfid2d1_72",
      "SequenceVariant": [
        "SK",
        "OSP"
],
      "SeriesDescription": "func_catLoc_run1",
      "SeriesNumber": 10,
      "SeriesTime": "131524.656000",
      "SliceLocation": -70.639754762658,
      "SliceThickness": 2.0,
      "SmallestImagePixelValue": 0,
      "SoftwareVersions": "syngo MR E11",
      "SpacingBetweenSlices": 2.0000000791337,
      "SpecificCharacterSet": "ISO_IR 100",
      "StudyID": "1",
      "StudyTime": "123537.780000",
      "TransmitCoilName": "Body",
      "VariableFlipAngleFlag": "N",
      "WindowCenterWidthExplanation": "Algo1",
      "dBdt": 0.0},
    "slices": {}
  },
  "time": {
    "samples": {
      "AcquisitionNumber": [1, 2, 3, 4, 5, 6, 7, 8, 9, 10, 11, 12, 13, 14, 15, 16, 17, 18, 19, 20, 21, 22, 23, 24, 25, 26, 27, 28, 29, 30, 31, 32, 33, 34, 35, 36, 37, 38, 39, 40, 41, 42, 43, 44, 45, 46, 47, 48, 49, 50, 51, 52, 53, 54, 55, 56, 57, 58, 59, 60, 61, 62, 63, 64, 65, 66, 67, 68, 69, 70, 71, 72, 73, 74, 75, 76, 77, 78, 79, 80, 81, 82, 83, 84, 85, 86, 87, 88, 89, 90, 91, 92, 93, 94, 95, 96, 97, 98, 99, 100, 101, 102, 103, 104, 105, 106, 107, 108, 109, 110, 111, 112, 113, 114, 115, 116, 117, 118, 119, 120, 121, 122, 123, 124, 125, 126, 127, 128, 129, 130, 131, 132, 133, 134, 135, 136, 137, 138, 139, 140, 141, 142, 143, 144, 145, 146, 147, 148, 149, 150, 151, 152, 153, 154, 155, 156, 157, 158, 159, 160, 161, 162, 163, 164, 165, 166, 167, 168, 169, 170, 171, 172, 173, 174, 175, 176, 177, 178, 179, 180, 181, 182, 183, 184, 185, 186, 187, 188, 189, 190, 191, 192, 193, 194, 195, 196, 197, 198, 199, 200, 201, 202, 203, 204, 205, 206, 207, 208, 209, 210, 211, 212, 213, 214],
      "AcquisitionTime": ["131435.572500", "131437.072500", "131438.572500", "131440.072500", "131441.572500", "131443.072500", "131444.572500", "131446.072500", "131447.572500", "131449.072500", "131450.572500", "131452.072500", "131453.572500", "131455.072500", "131456.572500", "131458.072500", "131459.572500", "131501.072500", "131502.572500", "131504.072500", "131505.572500", "131507.072500", "131508.572500", "131510.072500", "131511.572500", "131513.072500", "131514.572500", "131516.072500", "131517.572500", "131519.072500", "131520.572500", "131522.072500", "131523.572500", "131525.072500", "131526.572500", "131528.072500", "131529.572500", "131531.072500", "131532.572500", "131534.072500", "131535.572500", "131537.072500", "131538.572500", "131540.072500", "131541.572500", "131543.072500", "131544.572500", "131546.072500", "131547.572500", "131549.072500", "131550.572500", "131552.072500", "131553.572500", "131555.072500", "131556.572500", "131558.072500", "131559.572500", "131601.072500", "131602.572500", "131604.072500", "131605.572500", "131607.072500", "131608.572500", "131610.072500", "131611.572500", "131613.072500", "131614.572500", "131616.072500", "131617.572500", "131619.072500", "131620.572500", "131622.072500", "131623.572500", "131625.072500", "131626.572500", "131628.072500", "131629.572500", "131631.072500", "131632.572500", "131634.072500", "131635.572500", "131637.072500", "131638.572500", "131640.072500", "131641.572500", "131643.072500", "131644.572500", "131646.072500", "131647.572500", "131649.072500", "131650.572500", "131652.072500", "131653.572500", "131655.072500", "131656.572500", "131658.072500", "131659.572500", "131701.072500", "131702.572500", "131704.072500", "131705.572500", "131707.072500", "131708.572500", "131710.072500", "131711.572500", "131713.072500", "131714.572500", "131716.072500", "131717.572500", "131719.072500", "131720.572500", "131722.072500", "131723.572500", "131725.072500", "131726.572500", "131728.072500", "131729.572500", "131731.072500", "131732.572500", "131734.072500", "131735.572500", "131737.072500", "131738.572500", "131740.072500", "131741.572500", "131743.072500", "131744.572500", "131746.072500", "131747.572500", "131749.072500", "131750.572500", "131752.072500", "131753.572500", "131755.072500", "131756.572500", "131758.072500", "131759.572500", "131801.072500", "131802.572500", "131804.072500", "131805.572500", "131807.072500", "131808.572500", "131810.072500", "131811.572500", "131813.072500", "131814.572500", "131816.072500", "131817.572500", "131819.072500", "131820.572500", "131822.072500", "131823.572500", "131825.072500", "131826.572500", "131828.072500", "131829.572500", "131831.072500", "131832.572500", "131834.072500", "131835.572500", "131837.072500", "131838.572500", "131840.072500", "131841.572500", "131843.072500", "131844.572500", "131846.072500", "131847.572500", "131849.072500", "131850.572500", "131852.072500", "131853.572500", "131855.072500", "131856.572500", "131858.072500", "131859.572500", "131901.072500", "131902.572500", "131904.072500", "131905.572500", "131907.072500", "131908.572500", "131910.072500", "131911.572500", "131913.072500", "131914.572500", "131916.072500", "131917.572500", "131919.072500", "131920.572500", "131922.072500", "131923.572500", "131925.072500", "131926.572500", "131928.072500", "131929.572500", "131931.072500", "131932.572500", "131934.072500", "131935.572500", "131937.072500", "131938.572500", "131940.072500", "131941.572500", "131943.072500", "131944.572500", "131946.072500", "131947.572500", "131949.072500", "131950.572500", "131952.072500", "131953.572500", "131955.072500"],
      "ContentTime": ["131524.660000", "131524.663000", "131524.666000", "131524.670000", "131524.673000", "131524.676000", "131524.679000", "131524.688000", "131524.691000", "131524.694000", "131524.697000", "131524.700000", "131524.703000", "131524.706000", "131524.709000", "131524.712000", "131524.715000", "131524.718000", "131524.721000", "131524.724000", "131524.730000", "131524.733000", "131524.736000", "131524.739000", "131524.742000", "131524.744000", "131524.747000", "131524.750000", "131524.753000", "131524.756000", "131524.759000", "131524.762000", "131604.654000", "131604.657000", "131604.660000", "131604.663000", "131604.666000", "131604.669000", "131604.672000", "131604.687000", "131604.690000", "131604.693000", "131604.696000", "131604.699000", "131604.702000", "131604.705000", "131604.708000", "131604.711000", "131604.714000", "131604.717000", "131604.719000", "131604.722000", "131604.725000", "131604.728000", "131604.731000", "131604.734000", "131604.737000", "131604.740000", "131604.743000", "131644.654000", "131644.657000", "131644.660000", "131644.663000", "131644.666000", "131644.669000", "131644.672000", "131644.675000", "131644.678000", "131644.681000", "131644.684000", "131644.686000", "131644.689000", "131644.692000", "131644.695000", "131644.698000", "131644.701000", "131644.704000", "131644.707000", "131644.710000", "131644.713000", "131644.716000", "131644.719000", "131644.722000", "131644.725000", "131644.728000", "131644.731000", "131724.655000", "131724.658000", "131724.661000", "131724.664000", "131724.667000", "131724.670000", "131724.673000", "131724.676000", "131724.679000", "131724.682000", "131724.685000", "131724.688000", "131724.691000", "131724.694000", "131724.697000", "131724.700000", "131724.703000", "131724.706000", "131724.709000", "131724.712000", "131724.715000", "131724.718000", "131724.721000", "131724.738000", "131724.741000", "131724.744000", "131804.654000", "131804.657000", "131804.660000", "131804.663000", "131804.666000", "131804.669000", "131804.672000", "131804.675000", "131804.678000", "131804.681000", "131804.684000", "131804.687000", "131804.690000", "131804.693000", "131804.696000", "131804.698000", "131804.701000", "131804.704000", "131804.707000", "131804.710000", "131804.713000", "131804.716000", "131804.719000", "131804.722000", "131804.725000", "131804.728000", "131804.731000", "131844.654000", "131844.657000", "131844.660000", "131844.663000", "131844.666000", "131844.669000", "131844.672000", "131844.675000", "131844.678000", "131844.681000", "131844.684000", "131844.687000", "131844.690000", "131844.693000", "131844.696000", "131844.699000", "131844.702000", "131844.705000", "131844.708000", "131844.710000", "131844.713000", "131844.716000", "131844.719000", "131844.722000", "131844.725000", "131844.728000", "131844.731000", "131924.655000", "131924.658000", "131924.661000", "131924.664000", "131924.667000", "131924.671000", "131924.675000", "131924.678000", "131924.681000", "131924.684000", "131924.686000", "131924.689000", "131924.692000", "131924.695000", "131924.698000", "131924.701000", "131924.704000", "131924.707000", "131924.710000", "131924.713000", "131924.716000", "131924.719000", "131924.722000", "131924.725000", "131924.734000", "131924.736000", "131956.168000", "131956.171000", "131956.174000", "131956.177000", "131956.181000", "131956.184000", "131956.187000", "131956.190000", "131956.194000", "131956.197000", "131956.200000", "131956.203000", "131956.207000", "131956.210000", "131956.213000", "131956.216000", "131956.219000", "131956.222000", "131956.226000", "131956.229000", "131956.232000", "131956.235000"],
      "InstanceCreationTime": ["131524.660000", "131524.663000", "131524.666000", "131524.670000", "131524.673000", "131524.676000", "131524.679000", "131524.688000", "131524.691000", "131524.694000", "131524.697000", "131524.700000", "131524.703000", "131524.706000", "131524.709000", "131524.712000", "131524.715000", "131524.718000", "131524.721000", "131524.724000", "131524.730000", "131524.733000", "131524.736000", "131524.739000", "131524.742000", "131524.744000", "131524.747000", "131524.750000", "131524.753000", "131524.756000", "131524.759000", "131524.762000", "131604.654000", "131604.657000", "131604.660000", "131604.663000", "131604.666000", "131604.669000", "131604.672000", "131604.687000", "131604.690000", "131604.693000", "131604.696000", "131604.699000", "131604.702000", "131604.705000", "131604.708000", "131604.711000", "131604.714000", "131604.717000", "131604.719000", "131604.722000", "131604.725000", "131604.728000", "131604.731000", "131604.734000", "131604.737000", "131604.740000", "131604.743000", "131644.654000", "131644.657000", "131644.660000", "131644.663000", "131644.666000", "131644.669000", "131644.672000", "131644.675000", "131644.678000", "131644.681000", "131644.684000", "131644.686000", "131644.689000", "131644.692000", "131644.695000", "131644.698000", "131644.701000", "131644.704000", "131644.707000", "131644.710000", "131644.713000", "131644.716000", "131644.719000", "131644.722000", "131644.725000", "131644.728000", "131644.731000", "131724.655000", "131724.658000", "131724.661000", "131724.664000", "131724.667000", "131724.670000", "131724.673000", "131724.676000", "131724.679000", "131724.682000", "131724.685000", "131724.688000", "131724.691000", "131724.694000", "131724.697000", "131724.700000", "131724.703000", "131724.706000", "131724.709000", "131724.712000", "131724.715000", "131724.718000", "131724.721000", "131724.738000", "131724.741000", "131724.744000", "131804.654000", "131804.657000", "131804.660000", "131804.663000", "131804.666000", "131804.669000", "131804.672000", "131804.675000", "131804.678000", "131804.681000", "131804.684000", "131804.687000", "131804.690000", "131804.693000", "131804.696000", "131804.698000", "131804.701000", "131804.704000", "131804.707000", "131804.710000", "131804.713000", "131804.716000", "131804.719000", "131804.722000", "131804.725000", "131804.728000", "131804.731000", "131844.654000", "131844.657000", "131844.660000", "131844.663000", "131844.666000", "131844.669000", "131844.672000", "131844.675000", "131844.678000", "131844.681000", "131844.684000", "131844.687000", "131844.690000", "131844.693000", "131844.696000", "131844.699000", "131844.702000", "131844.705000", "131844.708000", "131844.710000", "131844.713000", "131844.716000", "131844.719000", "131844.722000", "131844.725000", "131844.728000", "131844.731000", "131924.655000", "131924.658000", "131924.661000", "131924.664000", "131924.667000", "131924.671000", "131924.675000", "131924.678000", "131924.681000", "131924.684000", "131924.686000", "131924.689000", "131924.692000", "131924.695000", "131924.698000", "131924.701000", "131924.704000", "131924.707000", "131924.710000", "131924.713000", "131924.716000", "131924.719000", "131924.722000", "131924.725000", "131924.734000", "131924.736000", "131956.168000", "131956.171000", "131956.174000", "131956.177000", "131956.181000", "131956.184000", "131956.187000", "131956.190000", "131956.194000", "131956.197000", "131956.200000", "131956.203000", "131956.207000", "131956.210000", "131956.213000", "131956.216000", "131956.219000", "131956.222000", "131956.226000", "131956.229000", "131956.232000", "131956.235000"],
      "InstanceNumber": [1, 2, 3, 4, 5, 6, 7, 8, 9, 10, 11, 12, 13, 14, 15, 16, 17, 18, 19, 20, 21, 22, 23, 24, 25, 26, 27, 28, 29, 30, 31, 32, 33, 34, 35, 36, 37, 38, 39, 40, 41, 42, 43, 44, 45, 46, 47, 48, 49, 50, 51, 52, 53, 54, 55, 56, 57, 58, 59, 60, 61, 62, 63, 64, 65, 66, 67, 68, 69, 70, 71, 72, 73, 74, 75, 76, 77, 78, 79, 80, 81, 82, 83, 84, 85, 86, 87, 88, 89, 90, 91, 92, 93, 94, 95, 96, 97, 98, 99, 100, 101, 102, 103, 104, 105, 106, 107, 108, 109, 110, 111, 112, 113, 114, 115, 116, 117, 118, 119, 120, 121, 122, 123, 124, 125, 126, 127, 128, 129, 130, 131, 132, 133, 134, 135, 136, 137, 138, 139, 140, 141, 142, 143, 144, 145, 146, 147, 148, 149, 150, 151, 152, 153, 154, 155, 156, 157, 158, 159, 160, 161, 162, 163, 164, 165, 166, 167, 168, 169, 170, 171, 172, 173, 174, 175, 176, 177, 178, 179, 180, 181, 182, 183, 184, 185, 186, 187, 188, 189, 190, 191, 192, 193, 194, 195, 196, 197, 198, 199, 200, 201, 202, 203, 204, 205, 206, 207, 208, 209, 210, 211, 212, 213, 214],
      "LargestImagePixelValue": [2686, 2628, 2654, 2642, 2609, 2623, 2674, 2644, 2632, 2621, 2645, 2618, 2611, 2625, 2601, 2632, 2609, 2612, 2636, 2636, 2642, 2616, 2595, 2619, 2592, 2616, 2571, 2587, 2560, 2586, 2596, 2590, 2579, 2563, 2550, 2569, 2535, 2562, 2546, 2583, 2584, 2558, 2615, 2547, 2554, 2584, 2579, 2602, 2560, 2593, 2562, 2566, 2544, 2555, 2571, 2585, 2584, 2530, 2566, 2538, 2537, 2543, 2551, 2529, 2546, 2553, 2547, 2574, 2522, 2540, 2534, 2526, 2556, 2558, 2562, 2560, 2572, 2604, 2603, 2597, 2607, 2592, 2605, 2599, 2587, 2595, 2573, 2628, 2613, 2603, 2592, 2614, 2613, 2600, 2609, 2570, 2578, 2600, 2589, 2578, 2578, 2550, 2592, 2577, 2582, 2560, 2519, 2567, 2540, 2563, 2533, 2566, 2535, 2538, 2524, 2547, 2543, 2546, 2548, 2545, 2560, 2513, 2519, 2522, 2526, 2555, 2570, 2595, 2555, 2557, 2570, 2606, 2532, 2597, 2537, 2589, 2546, 2600, 2521, 2529, 2558, 2511, 2567, 2551, 2585, 2533, 2597, 2542, 2627, 2538, 2577, 2542, 2529, 2558, 2541, 2575, 2479, 2560, 2522, 2578, 2517, 2561, 2563, 2517, 2565, 2508, 2573, 2489, 2518, 2504, 2625, 2532, 2613, 2560, 2566, 2551, 2543, 2555, 2531, 2536, 2516, 2577, 2491, 2568, 2530, 2529, 2539, 2514, 2585, 2517, 2589, 2549, 2526, 2579, 2514, 2541, 2508, 2523, 2515, 2527, 2478, 2525, 2475, 2545, 2499, 2528, 2486, 2539, 2488, 2565, 2548, 2500, 2572, 2514],
      "WindowCenter": [753.0, 751.0, 750.0, 750.0, 749.0, 748.0, 748.0, 749.0, 749.0, 749.0, 750.0, 751.0, 751.0, 751.0, 750.0, 749.0, 749.0, 750.0, 751.0, 751.0, 751.0, 750.0, 751.0, 751.0, 751.0, 751.0, 750.0, 750.0, 750.0, 750.0, 750.0, 750.0, 751.0, 751.0, 751.0, 751.0, 750.0, 750.0, 750.0, 751.0, 751.0, 751.0, 751.0, 750.0, 750.0, 750.0, 751.0, 750.0, 750.0, 750.0, 749.0, 749.0, 750.0, 750.0, 750.0, 750.0, 749.0, 749.0, 750.0, 750.0, 750.0, 749.0, 750.0, 750.0, 750.0, 750.0, 749.0, 749.0, 749.0, 750.0, 750.0, 749.0, 749.0, 749.0, 750.0, 750.0, 750.0, 749.0, 748.0, 748.0, 748.0, 749.0, 749.0, 750.0, 750.0, 750.0, 749.0, 749.0, 748.0, 748.0, 749.0, 750.0, 749.0, 748.0, 749.0, 750.0, 750.0, 749.0, 749.0, 749.0, 748.0, 747.0, 748.0, 748.0, 748.0, 748.0, 748.0, 748.0, 748.0, 750.0, 750.0, 749.0, 748.0, 748.0, 748.0, 748.0, 747.0, 748.0, 748.0, 748.0, 748.0, 747.0, 747.0, 748.0, 748.0, 748.0, 748.0, 748.0, 748.0, 748.0, 748.0, 748.0, 748.0, 748.0, 748.0, 748.0, 748.0, 747.0, 747.0, 747.0, 748.0, 749.0, 749.0, 749.0, 748.0, 747.0, 746.0, 745.0, 746.0, 746.0, 746.0, 746.0, 746.0, 748.0, 749.0, 749.0, 748.0, 747.0, 747.0, 747.0, 747.0, 747.0, 748.0, 747.0, 746.0, 746.0, 747.0, 747.0, 747.0, 747.0, 747.0, 747.0, 747.0, 746.0, 747.0, 747.0, 747.0, 747.0, 746.0, 746.0, 747.0, 747.0, 747.0, 747.0, 748.0, 747.0, 747.0, 748.0, 747.0, 747.0, 747.0, 747.0, 747.0, 747.0, 746.0, 747.0, 748.0, 748.0, 748.0, 747.0, 746.0, 746.0, 746.0, 747.0, 747.0, 748.0, 747.0, 747.0, 746.0, 747.0, 747.0, 748.0, 748.0, 748.0],
      "WindowWidth": [1648.0, 1643.0, 1641.0, 1641.0, 1638.0, 1634.0, 1634.0, 1636.0, 1636.0, 1637.0, 1639.0, 1641.0, 1642.0, 1642.0, 1640.0, 1637.0, 1637.0, 1639.0, 1641.0, 1641.0, 1641.0, 1640.0, 1641.0, 1643.0, 1642.0, 1642.0, 1639.0, 1639.0, 1639.0, 1638.0, 1639.0, 1640.0, 1642.0, 1642.0, 1642.0, 1642.0, 1640.0, 1638.0, 1638.0, 1641.0, 1643.0, 1643.0, 1642.0, 1640.0, 1639.0, 1640.0, 1641.0, 1640.0, 1638.0, 1638.0, 1636.0, 1637.0, 1639.0, 1640.0, 1639.0, 1638.0, 1637.0, 1636.0, 1640.0, 1640.0, 1639.0, 1637.0, 1638.0, 1639.0, 1640.0, 1638.0, 1637.0, 1637.0, 1637.0, 1638.0, 1639.0, 1636.0, 1636.0, 1636.0, 1637.0, 1638.0, 1638.0, 1636.0, 1634.0, 1634.0, 1635.0, 1636.0, 1637.0, 1639.0, 1638.0, 1638.0, 1636.0, 1635.0, 1633.0, 1634.0, 1636.0, 1639.0, 1637.0, 1635.0, 1635.0, 1638.0, 1639.0, 1637.0, 1635.0, 1635.0, 1632.0, 1631.0, 1634.0, 1634.0, 1633.0, 1634.0, 1632.0, 1632.0, 1633.0, 1638.0, 1637.0, 1635.0, 1633.0, 1633.0, 1633.0, 1632.0, 1632.0, 1632.0, 1632.0, 1633.0, 1632.0, 1630.0, 1630.0, 1633.0, 1632.0, 1632.0, 1633.0, 1633.0, 1632.0, 1632.0, 1632.0, 1634.0, 1634.0, 1634.0, 1632.0, 1634.0, 1633.0, 1631.0, 1630.0, 1631.0, 1634.0, 1636.0, 1636.0, 1635.0, 1633.0, 1630.0, 1628.0, 1625.0, 1629.0, 1628.0, 1627.0, 1626.0, 1628.0, 1632.0, 1635.0, 1635.0, 1632.0, 1631.0, 1629.0, 1629.0, 1629.0, 1631.0, 1632.0, 1631.0, 1628.0, 1627.0, 1629.0, 1630.0, 1630.0, 1630.0, 1631.0, 1629.0, 1629.0, 1628.0, 1631.0, 1632.0, 1631.0, 1629.0, 1628.0, 1628.0, 1629.0, 1631.0, 1630.0, 1631.0, 1631.0, 1631.0, 1631.0, 1632.0, 1630.0, 1630.0, 1631.0, 1630.0, 1629.0, 1629.0, 1628.0, 1630.0, 1631.0, 1632.0, 1632.0, 1630.0, 1628.0, 1627.0, 1627.0, 1630.0, 1630.0, 1631.0, 1630.0, 1629.0, 1628.0, 1629.0, 1629.0, 1632.0, 1634.0, 1632.0]
    },
    "slices": {}
  }
}