{
  "AcquisitionMatrixPE": 70,
  "AcquisitionNumber": 1,
  "AcquisitionTime": "17:28:38.475000",
  "BaseResolution": 70,
  "BodyPartExamined": "BRAIN",
  "CoilCombinationMethod": "Sum of Squares",
  "ConsistencyInfo": "N4_VE11C_LATEST_20160120",
  "ConversionSoftware": "dcm2niix",
  "ConversionSoftwareVersion": "v1.0.20211006",
  "DeviceSerialNumber": "166011",
  "EchoNumber": 2,
  "EchoTime": 0.00738,
  "EchoTime1": 0.00492,
  "EchoTime2": 0.00738,
  "FlipAngle": 60,
  "ImageOrientationPatientDICOM": [
    0.999391,
    -0.00190777,
    0.0348463,
    0.00593057,
    0.993265,
    -0.115709
  ],
  "ImageType": [
    "ORIGINAL",
    "PRIMARY",
    "P",
    "ND",
    "PHASE"
  ],
  "ImagingFrequency": 123.26,
  "InPlanePhaseEncodingDirectionDICOM": "ROW",
  "InstitutionAddress": "West 130th Street 610,NY,NYC,US,10025",
  "InstitutionName": "MBBI",
  "IntendedFor": [
    "ses-3/func/sub-150_ses-3_task-langLoc_run-01_bold.nii.gz",
    "ses-3/func/sub-150_ses-3_task-langLoc_run-02_bold.nii.gz",
    "ses-3/func/sub-150_ses-3_task-langLoc_run-03_bold.nii.gz",
    "ses-3/func/sub-150_ses-3_task-vwfate_run-01_bold.nii.gz",
    "ses-3/func/sub-150_ses-3_task-vwfate_run-02_bold.nii.gz",
    "ses-3/func/sub-150_ses-3_task-vwfate_run-03_bold.nii.gz"
  ],
  "MRAcquisitionType": "2D",
  "MagneticFieldStrength": 3,
  "Manufacturer": "Siemens",
  "ManufacturersModelName": "Prisma",
  "MatrixCoilMode": "SENSE",
  "Modality": "MR",
  "MultibandAccelerationFactor": 2,
  "PartialFourier": 1,
  "PatientPosition": "HFS",
  "PercentPhaseFOV": 100,
  "PercentSampling": 100,
  "PhaseEncodingDirection": "i",
  "PhaseEncodingSteps": 70,
  "PhaseResolution": 1,
  "PixelBandwidth": 595,
  "ProcedureStepDescription": "White^Word_recognition",
  "ProtocolName": "fmap_gre_field_mapping",
  "PulseSequenceDetails": "%SiemensSeq%\\gre_field_mapping",
  "ReceiveCoilActiveElements": "HC1-7",
  "ReceiveCoilName": "HeadNeck_64",
  "ReconMatrixPE": 70,
  "RepetitionTime": 0.52,
  "SAR": 0.0840029,
  "ScanningSequence": "GR",
  "SequenceName": "*fm2d2r",
  "SequenceVariant": "SP",
  "SeriesDescription": "fmap_gre_field_mapping",
  "SeriesNumber": 16,
  "ShimSetting": [
    -1146,
    -1305,
    615,
    626,
    -124,
    85,
    -76,
    4
  ],
  "SliceThickness": 3,
  "SliceTiming": [
    0.25,
    0,
    0.26562,
    0.01562,
    0.28125,
    0.01562,
    0.29688,
    0.03125,
    0.3125,
    0.04688,
    0.3125,
    0.0625,
    0.32812,
    0.07812,
    0.34375,
    0.07812,
    0.35938,
    0.09375,
    0.375,
    0.10938,
    0.375,
    0.125,
    0.39062,
    0.14062,
    0.40625,
    0.14062,
    0.42188,
    0.15625,
    0.42188,
    0.17188,
    0.4375,
    0.1875,
    0.45312,
    0.1875,
    0.46875,
    0.20312,
    0.48438,
    0.21875,
    0.48438,
    0.23438,
    0.5,
    0.25
  ],
  "SoftwareVersions": "syngo MR E11",
  "SpacingBetweenSlices": 3,
  "StationName": "AWP166011",
  "TxRefAmp": 218.081,
  "dcmmeta_affine": [
    [
      -2.9981725215911865,
      0.01779172383248806,
      0.10317325592041016,
      109.91864013671875
    ],
    [
      0.00572331203147769,
      2.9797964096069336,
      -0.3475360870361328,
      -76.77661895751953
    ],
    [
      0.10453901439905167,
      0.34712737798690796,
      2.9780120849609375,
      -75.87419128417969
    ],
    [
      0.0,
      0.0,
      0.0,
      1.0
    ]
  ],
  "dcmmeta_reorient_transform": [
    [
      0.0,
      -1.0,
      0.0,
      69.0
    ],
    [
      1.0,
      0.0,
      0.0,
      0.0
    ],
    [
      0.0,
      0.0,
      -1.0,
      41.0
    ],
    [
      0.0,
      0.0,
      0.0,
      1.0
    ]
  ],
  "dcmmeta_shape": [
    70,
    70,
    42
  ],
  "dcmmeta_slice_dim": 2,
  "dcmmeta_version": 0.6,
  "global": {
    "const": {
      "AcquisitionMatrix": [
        0,
        70,
        70,
        0
      ],
      "AcquisitionNumber": 1,
      "AngioFlag": "N",
      "BitsAllocated": 16,
      "BitsStored": 12,
      "BodyPartExamined": "BRAIN",
      "Columns": 70,
      "EchoNumbers": 2,
      "EchoTime": 7.38,
      "EchoTrainLength": 0,
      "FlipAngle": 60.0,
      "HighBit": 11,
      "ImageOrientationPatient": [
        0.99939086103873,
        -0.0019077706348,
        0.03484633816447,
        0.00593057448605,
        0.9932654361239,
        -0.115709125344
      ],
      "ImageType": [
        "ORIGINAL",
        "PRIMARY",
        "P",
        "ND"
      ],
      "ImagedNucleus": "1H",
      "ImagingFrequency": 123.259669,
      "InPlanePhaseEncodingDirection": "ROW",
      "MRAcquisitionType": "2D",
      "MagneticFieldStrength": 3.0,
      "Manufacturer": "SIEMENS",
      "ManufacturerModelName": "Prisma",
      "Modality": "MR",
      "NumberOfAverages": 1.0,
      "NumberOfPhaseEncodingSteps": 70,
      "PercentPhaseFieldOfView": 100.0,
      "PercentSampling": 100.0,
      "PerformedProcedureStepStartTime": "162359.649000",
      "PhotometricInterpretation": "MONOCHROME2",
      "PixelBandwidth": 595.0,
      "PixelRepresentation": 0,
      "PixelSpacing": [
        3.0,
        3.0
      ],
      "ProtocolName": "fmap_gre_field_mapping",
      "RepetitionTime": 520.0,
      "RescaleIntercept": -4096.0,
      "RescaleSlope": 2.0,
      "RescaleType": "US",
      "Rows": 70,
      "SAR": 0.08400294979042,
      "SamplesPerPixel": 1,
      "ScanningSequence": "GR",
      "SequenceName": "*fm2d2r",
      "SequenceVariant": "SP",
      "SeriesDescription": "fmap_gre_field_mapping",
      "SeriesNumber": 16,
      "SeriesTime": "172951.637000",
      "SliceThickness": 3.0,
      "SoftwareVersions": "syngo MR E11",
      "SpacingBetweenSlices": 3.0,
      "SpecificCharacterSet": "ISO_IR 100",
      "StudyID": "3",
      "StudyTime": "162359.596000",
      "TransmitCoilName": "Body",
      "VariableFlipAngleFlag": "N",
      "WindowCenterWidthExplanation": "Algo1",
      "dBdt": 0.0
    },
    "slices": {
      "AcquisitionTime": [
        "172838.475000",
        "172838.215000",
        "172838.487500",
        "172838.227500",
        "172838.500000",
        "172838.240000",
        "172838.512500",
        "172838.252500",
        "172838.525000",
        "172838.265000",
        "172838.537500",
        "172838.277500",
        "172838.550000",
        "172838.290000",
        "172838.562500",
        "172838.302500",
        "172838.575000",
        "172838.315000",
        "172838.587500",
        "172838.327500",
        "172838.600000",
        "172838.340000",
        "172838.612500",
        "172838.352500",
        "172838.625000",
        "172838.365000",
        "172838.637500",
        "172838.377500",
        "172838.647500",
        "172838.387500",
        "172838.660000",
        "172838.400000",
        "172838.672500",
        "172838.412500",
        "172838.685000",
        "172838.425000",
        "172838.697500",
        "172838.437500",
        "172838.710000",
        "172838.450000",
        "172838.722500",
        "172838.462500"
      ],
      "ContentTime": [
        "172951.695000",
        "172951.639000",
        "172951.697000",
        "172951.645000",
        "172951.699000",
        "172951.647000",
        "172951.701000",
        "172951.650000",
        "172951.703000",
        "172951.652000",
        "172951.705000",
        "172951.654000",
        "172951.707000",
        "172951.656000",
        "172951.710000",
        "172951.658000",
        "172951.712000",
        "172951.660000",
        "172951.714000",
        "172951.663000",
        "172951.716000",
        "172951.665000",
        "172951.718000",
        "172951.667000",
        "172951.720000",
        "172951.669000",
        "172951.722000",
        "172951.671000",
        "172951.724000",
        "172951.673000",
        "172951.727000",
        "172951.675000",
        "172951.729000",
        "172951.684000",
        "172951.731000",
        "172951.686000",
        "172951.733000",
        "172951.688000",
        "172951.735000",
        "172951.690000",
        "172951.737000",
        "172951.692000"
      ],
      "CsaImage.ICE_Dims": [
        "X_2_1_1_1_1_1_22_1_1_1_1_65",
        "X_2_1_1_1_1_1_1_1_1_2_1_65",
        "X_2_1_1_1_1_1_23_1_1_3_1_65",
        "X_2_1_1_1_1_1_2_1_1_4_1_65",
        "X_2_1_1_1_1_1_24_1_1_5_1_65",
        "X_2_1_1_1_1_1_3_1_1_6_1_65",
        "X_2_1_1_1_1_1_25_1_1_7_1_65",
        "X_2_1_1_1_1_1_4_1_1_8_1_65",
        "X_2_1_1_1_1_1_26_1_1_9_1_65",
        "X_2_1_1_1_1_1_5_1_1_10_1_65",
        "X_2_1_1_1_1_1_27_1_1_11_1_65",
        "X_2_1_1_1_1_1_6_1_1_12_1_65",
        "X_2_1_1_1_1_1_28_1_1_13_1_65",
        "X_2_1_1_1_1_1_7_1_1_14_1_65",
        "X_2_1_1_1_1_1_29_1_1_15_1_65",
        "X_2_1_1_1_1_1_8_1_1_16_1_65",
        "X_2_1_1_1_1_1_30_1_1_17_1_65",
        "X_2_1_1_1_1_1_9_1_1_18_1_65",
        "X_2_1_1_1_1_1_31_1_1_19_1_65",
        "X_2_1_1_1_1_1_10_1_1_20_1_65",
        "X_2_1_1_1_1_1_32_1_1_21_1_65",
        "X_2_1_1_1_1_1_11_1_1_22_1_65",
        "X_2_1_1_1_1_1_33_1_1_23_1_65",
        "X_2_1_1_1_1_1_12_1_1_24_1_65",
        "X_2_1_1_1_1_1_34_1_1_25_1_65",
        "X_2_1_1_1_1_1_13_1_1_26_1_65",
        "X_2_1_1_1_1_1_35_1_1_27_1_65",
        "X_2_1_1_1_1_1_14_1_1_28_1_65",
        "X_2_1_1_1_1_1_36_1_1_29_1_65",
        "X_2_1_1_1_1_1_15_1_1_30_1_65",
        "X_2_1_1_1_1_1_37_1_1_31_1_65",
        "X_2_1_1_1_1_1_16_1_1_32_1_65",
        "X_2_1_1_1_1_1_38_1_1_33_1_65",
        "X_2_1_1_1_1_1_17_1_1_34_1_65",
        "X_2_1_1_1_1_1_39_1_1_35_1_65",
        "X_2_1_1_1_1_1_18_1_1_36_1_65",
        "X_2_1_1_1_1_1_40_1_1_37_1_65",
        "X_2_1_1_1_1_1_19_1_1_38_1_65",
        "X_2_1_1_1_1_1_41_1_1_39_1_65",
        "X_2_1_1_1_1_1_20_1_1_40_1_65",
        "X_2_1_1_1_1_1_42_1_1_41_1_65",
        "X_2_1_1_1_1_1_21_1_1_42_1_65"
      ],
      "CsaImage.ProtocolSliceNumber": [
        0,
        1,
        2,
        3,
        4,
        5,
        6,
        7,
        8,
        9,
        10,
        11,
        12,
        13,
        14,
        15,
        16,
        17,
        18,
        19,
        20,
        21,
        22,
        23,
        24,
        25,
        26,
        27,
        28,
        29,
        30,
        31,
        32,
        33,
        34,
        35,
        36,
        37,
        38,
        39,
        40,
        41
      ],
      "CsaImage.SlicePosition_PCS": [
        [
          -111.14628802,
          -128.82931788,
          -51.92252762
        ],
        [
          -111.2494608,
          -128.48178179,
          -48.94451553
        ],
        [
          -111.35263358,
          -128.1342457,
          -45.96649963
        ],
        [
          -111.45580636,
          -127.78670962,
          -42.98848373
        ],
        [
          -111.55897914,
          -127.43917353,
          -40.01046783
        ],
        [
          -111.66215191,
          -127.09163744,
          -37.03245193
        ],
        [
          -111.76532469,
          -126.74410135,
          -34.05443985
        ],
        [
          -111.86849747,
          -126.39656527,
          -31.07642395
        ],
        [
          -111.97167025,
          -126.04902918,
          -28.09840805
        ],
        [
          -112.07484303,
          -125.70149309,
          -25.12039215
        ],
        [
          -112.17801581,
          -125.35395701,
          -22.14237816
        ],
        [
          -112.28118859,
          -125.00642283,
          -19.16436226
        ],
        [
          -112.38436137,
          -124.65888674,
          -16.18634826
        ],
        [
          -112.48753415,
          -124.31135065,
          -13.20833236
        ],
        [
          -112.59070693,
          -123.96381457,
          -10.23031646
        ],
        [
          -112.69387971,
          -123.61627848,
          -7.25230247
        ],
        [
          -112.79705201,
          -123.26874239,
          -4.27428657
        ],
        [
          -112.90022479,
          -122.9212063,
          -1.29627163
        ],
        [
          -113.00339757,
          -122.57367022,
          1.68174332
        ],
        [
          -113.10657034,
          -122.22613413,
          4.6597585
        ],
        [
          -113.20974312,
          -121.87859804,
          7.63777363
        ],
        [
          -113.3129159,
          -121.53106386,
          10.61578863
        ],
        [
          -113.41608868,
          -121.18352778,
          13.59380406
        ],
        [
          -113.51926146,
          -120.83599169,
          16.571819
        ],
        [
          -113.62243424,
          -120.4884556,
          19.54983395
        ],
        [
          -113.72560654,
          -120.14091952,
          22.52784889
        ],
        [
          -113.8287798,
          -119.79338343,
          25.50586479
        ],
        [
          -113.9319521,
          -119.44584734,
          28.48387879
        ],
        [
          -114.03512536,
          -119.09831221,
          31.46189469
        ],
        [
          -114.13829766,
          -118.75077612,
          34.43991059
        ],
        [
          -114.24147091,
          -118.40324003,
          37.41792458
        ],
        [
          -114.34464322,
          -118.05570395,
          40.39594048
        ],
        [
          -114.44781647,
          -117.70816786,
          43.37395447
        ],
        [
          -114.55098877,
          -117.36063177,
          46.35197037
        ],
        [
          -114.65416203,
          -117.01309664,
          49.32998627
        ],
        [
          -114.75733433,
          -116.66556055,
          52.30800217
        ],
        [
          -114.86050759,
          -116.31802447,
          55.28601425
        ],
        [
          -114.96367989,
          -115.97048838,
          58.26403015
        ],
        [
          -115.06685315,
          -115.62295229,
          61.24204605
        ],
        [
          -115.17002545,
          -115.27541716,
          64.22006195
        ],
        [
          -115.27319775,
          -114.92788107,
          67.19807785
        ],
        [
          -115.37637101,
          -114.58034498,
          70.17608994
        ]
      ],
      "CsaImage.TimeAfterStart": [
        0.7825,
        0.5225,
        0.795,
        0.535,
        0.8075,
        0.5475,
        0.82,
        0.56,
        0.8325,
        0.5725,
        0.845,
        0.585,
        0.8575,
        0.5975,
        0.87,
        0.61,
        0.8825,
        0.6225,
        0.895,
        0.635,
        0.9075,
        0.6475,
        0.92,
        0.66,
        0.9325,
        0.6725,
        0.945,
        0.685,
        0.955,
        0.695,
        0.9675,
        0.7075,
        0.98,
        0.72,
        0.9925,
        0.7325,
        1.005,
        0.745,
        1.0175,
        0.7575,
        1.03,
        0.77
      ],
      "ImagePositionPatient": [
        [
          -111.14628801877,
          -128.82931787684,
          -51.922527615924
        ],
        [
          -111.24946079785,
          -128.48178178981,
          -48.944515530963
        ],
        [
          -111.35263357693,
          -128.13424570277,
          -45.966499631305
        ],
        [
          -111.45580635602,
          -127.78670961573,
          -42.988483731647
        ],
        [
          -111.5589791351,
          -127.4391735287,
          -40.010467831989
        ],
        [
          -111.66215191418,
          -127.09163744166,
          -37.03245193233
        ],
        [
          -111.76532469327,
          -126.74410135463,
          -34.054439847369
        ],
        [
          -111.86849747235,
          -126.39656526759,
          -31.076423947711
        ],
        [
          -111.97167025143,
          -126.04902918055,
          -28.098408048053
        ],
        [
          -112.07484303052,
          -125.70149309352,
          -25.120392148395
        ],
        [
          -112.1780158096,
          -125.35395700648,
          -22.142378156085
        ],
        [
          -112.28118858868,
          -125.00642282679,
          -19.164362256427
        ],
        [
          -112.38436136777,
          -124.65888673976,
          -16.186348264117
        ],
        [
          -112.48753414685,
          -124.31135065272,
          -13.208332364459
        ],
        [
          -112.59070692593,
          -123.96381456569,
          -10.230316464801
        ],
        [
          -112.69387970502,
          -123.61627847865,
          -7.2523024724915
        ],
        [
          -112.79705200726,
          -123.26874239161,
          -4.2742865728333
        ],
        [
          -112.90022478635,
          -122.92120630458,
          -1.2962716268494
        ],
        [
          -113.00339756543,
          -122.57367021754,
          1.6817433191345
        ],
        [
          -113.10657034451,
          -122.2261341305,
          4.6597585035369
        ],
        [
          -113.2097431236,
          -121.87859804347,
          7.6377736283348
        ],
        [
          -113.31291590268,
          -121.53106386378,
          10.615788633923
        ],
        [
          -113.41608868176,
          -121.18352777674,
          13.593804056744
        ],
        [
          -113.51926146085,
          -120.83599168971,
          16.571819002728
        ],
        [
          -113.62243423993,
          -120.48845560267,
          19.549833948712
        ],
        [
          -113.72560654217,
          -120.14091951564,
          22.527848894696
        ],
        [
          -113.82877979809,
          -119.7933834286,
          25.505864794354
        ],
        [
          -113.93195210034,
          -119.44584734156,
          28.483878786664
        ],
        [
          -114.03512535626,
          -119.0983122082,
          31.461894686322
        ],
        [
          -114.13829765851,
          -118.75077612117,
          34.43991058598
        ],
        [
          -114.24147091443,
          -118.40324003413,
          37.41792457829
        ],
        [
          -114.34464321667,
          -118.05570394709,
          40.395940477948
        ],
        [
          -114.44781647259,
          -117.70816786006,
          43.373954470258
        ],
        [
          -114.55098877484,
          -117.36063177302,
          46.351970369916
        ],
        [
          -114.65416203076,
          -117.01309663966,
          49.329986269574
        ],
        [
          -114.75733433301,
          -116.66556055262,
          52.308002169232
        ],
        [
          -114.86050758893,
          -116.31802446559,
          55.286014254193
        ],
        [
          -114.96367989117,
          -115.97048837855,
          58.264030153851
        ],
        [
          -115.06685314709,
          -115.62295229152,
          61.242046053509
        ],
        [
          -115.17002544934,
          -115.27541715815,
          64.220061953168
        ],
        [
          -115.27319775159,
          -114.92788107112,
          67.198077852826
        ],
        [
          -115.37637100751,
          -114.58034498408,
          70.176089937787
        ]
      ],
      "InstanceCreationTime": [
        "172951.695000",
        "172951.639000",
        "172951.697000",
        "172951.645000",
        "172951.699000",
        "172951.647000",
        "172951.701000",
        "172951.650000",
        "172951.703000",
        "172951.652000",
        "172951.705000",
        "172951.654000",
        "172951.707000",
        "172951.656000",
        "172951.710000",
        "172951.658000",
        "172951.712000",
        "172951.660000",
        "172951.714000",
        "172951.663000",
        "172951.716000",
        "172951.665000",
        "172951.718000",
        "172951.667000",
        "172951.720000",
        "172951.669000",
        "172951.722000",
        "172951.671000",
        "172951.724000",
        "172951.673000",
        "172951.727000",
        "172951.675000",
        "172951.729000",
        "172951.684000",
        "172951.731000",
        "172951.686000",
        "172951.733000",
        "172951.688000",
        "172951.735000",
        "172951.690000",
        "172951.737000",
        "172951.692000"
      ],
      "InstanceNumber": [
        1,
        2,
        3,
        4,
        5,
        6,
        7,
        8,
        9,
        10,
        11,
        12,
        13,
        14,
        15,
        16,
        17,
        18,
        19,
        20,
        21,
        22,
        23,
        24,
        25,
        26,
        27,
        28,
        29,
        30,
        31,
        32,
        33,
        34,
        35,
        36,
        37,
        38,
        39,
        40,
        41,
        42
      ],
      "LargestImagePixelValue": [
        4088,
        4093,
        4093,
        4094,
        4092,
        4093,
        4091,
        4093,
        4089,
        4093,
        4093,
        4089,
        4085,
        4092,
        4081,
        4059,
        4081,
        4091,
        4090,
        4086,
        4094,
        4092,
        4071,
        4087,
        4058,
        4069,
        4081,
        4090,
        4086,
        4086,
        4075,
        4068,
        4088,
        4095,
        4091,
        4086,
        4093,
        4089,
        4092,
        4093,
        4095,
        4093
      ],
      "SliceLocation": [
        -62.643872854319,
        -59.643875865603,
        -56.643875090144,
        -53.643874314685,
        -50.643873539226,
        -47.643872763768,
        -44.643875775051,
        -41.643874999592,
        -38.643874224133,
        -35.643873448675,
        -32.643874566587,
        -29.643874012086,
        -26.643875129998,
        -23.643874354539,
        -20.64387357908,
        -17.643874696993,
        -14.643873937933,
        -11.643874109159,
        -8.6438742803862,
        -5.6438742149416,
        -2.6438742086648,
        0.35612545831892,
        3.3561257604349,
        6.3561255892082,
        9.3561254179814,
        12.356125230356,
        15.356126022213,
        18.356124887902,
        21.356125569281,
        24.356126328341,
        27.356125226828,
        30.356125985888,
        33.356124884374,
        36.356125643434,
        39.356126324813,
        42.356127083873,
        45.356124088989,
        48.356124848048,
        51.356125639906,
        54.356126288487,
        57.356127047547,
        60.356124052663
      ],
      "SmallestImagePixelValue": [
        0,
        8,
        3,
        0,
        6,
        3,
        12,
        7,
        13,
        3,
        0,
        8,
        0,
        6,
        13,
        39,
        3,
        45,
        7,
        51,
        28,
        0,
        14,
        7,
        4,
        7,
        12,
        8,
        0,
        10,
        3,
        0,
        14,
        3,
        1,
        0,
        8,
        0,
        5,
        6,
        0,
        1
      ],
      "WindowCenter": [
        -248.0,
        -278.0,
        -246.0,
        -192.0,
        -166.0,
        -176.0,
        -230.0,
        -214.0,
        -218.0,
        -224.0,
        -314.0,
        -72.0,
        -52.0,
        -38.0,
        -56.0,
        -198.0,
        -200.0,
        -60.0,
        -194.0,
        -184.0,
        -176.0,
        -194.0,
        -64.0,
        -190.0,
        -188.0,
        -188.0,
        -164.0,
        -146.0,
        -150.0,
        -152.0,
        -132.0,
        -168.0,
        -8.0,
        -200.0,
        -208.0,
        -252.0,
        -168.0,
        -118.0,
        -364.0,
        -270.0,
        -198.0,
        -232.0
      ],
      "WindowWidth": [
        6036.0,
        6032.0,
        6024.0,
        6088.0,
        6070.0,
        5960.0,
        5810.0,
        5600.0,
        5416.0,
        5244.0,
        4622.0,
        5382.0,
        5422.0,
        5420.0,
        5276.0,
        4512.0,
        4520.0,
        5166.0,
        4524.0,
        4500.0,
        4486.0,
        4482.0,
        5010.0,
        4474.0,
        4470.0,
        4478.0,
        4482.0,
        4476.0,
        4502.0,
        4522.0,
        4530.0,
        4564.0,
        5272.0,
        4612.0,
        4656.0,
        4678.0,
        5102.0,
        5560.0,
        4866.0,
        5326.0,
        5880.0,
        6118.0
      ]
    }
  }
}