{
  "AcquisitionMatrixPE": 72,
  "AcquisitionNumber": 1,
  "AcquisitionTime": "10:28:7.730000",
  "BandwidthPerPixelPhaseEncode": 17.943,
  "BaseResolution": 96,
  "BodyPartExamined": "BRAIN",
  "CoilCombinationMethod": "Sum of Squares",
  "ConsistencyInfo": "N4_VE11C_LATEST_20160120",
  "ConversionSoftware": "dcm2niix",
  "ConversionSoftwareVersion": "v1.0.20211006",
  "DerivedVendorReportedEchoSpacing": 0.000552897,
  "DeviceSerialNumber": "166011",
  "DwellTime": 2.3e-06,
  "EchoTime": 0.03,
  "EchoTrainLength": 58,
  "EffectiveEchoSpacing": 0.000580542,
  "FlipAngle": 62,
  "ImageOrientationPatientDICOM": [0.996802, -0.0720543, 0.0345567, 0.0763497, 0.986392, -0.145611],
  "ImageOrientationText": "Tra>Cor(-8.5)>Sag(1.4)",
  "ImageType": [
    "ORIGINAL",
    "PRIMARY",
    "M",
    "ND",
    "MOSAIC"
],
  "ImagingFrequency": 123.26,
  "InPlanePhaseEncodingDirectionDICOM": "COL",
  "InstitutionAddress": "West 130th Street 610,NY,NYC,US,10025",
  "InstitutionName": "MBBI",
  "InstitutionalDepartmentName": "Department",
  "MRAcquisitionType": "2D",
  "MagneticFieldStrength": 3,
  "Manufacturer": "Siemens",
  "ManufacturersModelName": "Prisma",
  "Modality": "MR",
  "MultibandAccelerationFactor": 3,
  "PartialFourier": 0.75,
  "PatientPosition": "HFS",
  "PercentPhaseFOV": 100,
  "PercentSampling": 75,
  "PhaseEncodingDirection": "j-",
  "PhaseEncodingSteps": 58,
  "PhaseOversampling": 0.05,
  "PhaseResolution": 0.75,
  "PixelBandwidth": 2265,
  "ProcedureStepDescription": "White^Word_recognition",
  "ProtocolName": "func_catLoc_run1",
  "PulseSequenceDetails": "%SiemensSeq%\\ep2d_bold",
  "ReceiveCoilActiveElements": "HC1-6",
  "ReceiveCoilName": "HeadNeck_64",
  "ReconMatrixPE": 96,
  "RefLinesPE": 40,
  "RepetitionTime": 1.5,
  "SAR": 0.0504421,
  "ScanOptions": "PFP\\FS",
  "ScanningSequence": "EP",
  "SequenceName": "*epfid2d1_72",
  "SequenceVariant": "SK\\OSP",
  "SeriesDescription": "func_catLoc_run1",
  "SeriesNumber": 10,
  "ShimSetting": [-1131, -1345, 679, 584, -72, 81, -144, -43],
  "SliceThickness": 2,
  "SliceTiming": [1.0775, 0, 0.74, 0.0675, 0.8075, 0.135, 0.875, 0.2025, 0.9425, 0.27, 1.01, 0.405, 1.145, 0.4725, 1.2125, 0.5375, 1.2775, 0.605, 1.345, 0.6725, 1.4125, 0.3375, 1.0775, 0, 0.74, 0.0675, 0.8075, 0.135, 0.875, 0.2025, 0.9425, 0.27, 1.01, 0.405, 1.145, 0.4725, 1.2125, 0.5375, 1.2775, 0.605, 1.345, 0.6725, 1.4125, 0.3375, 1.0775, 0, 0.74, 0.0675, 0.8075, 0.135, 0.875, 0.2025, 0.9425, 0.27, 1.01, 0.405, 1.145, 0.4725, 1.2125, 0.5375, 1.2775, 0.605, 1.345, 0.6725, 1.4125, 0.3375],
  "SoftwareVersions": "syngo MR E11",
  "SpacingBetweenSlices": 2,
  "StationName": "AWP166011",
  "TaskName": "catLoc",
  "TotalReadoutTime": 0.0551515,
  "TxRefAmp": 207.842,
  "dcmmeta_affine": [
    [-1.9936038255691528, 0.15269942581653595, 0.04718918725848198, 92.0904769897461],
    [0.14410851895809174, 1.972783088684082, -0.2955666184425354, -72.71781158447266],
    [0.06911344081163406, 0.2912212014198303, 1.9774765968322754, -63.95372772216797],
    [0.0, 0.0, 0.0, 1.0]
],
  "dcmmeta_reorient_transform": [
    [0.0, -1.0, 0.0, 95.0],
    [1.0, 0.0, 0.0, 0.0],
    [0.0, 0.0, 1.0, 0.0],
    [0.0, 0.0, 0.0, 1.0]
],
  "dcmmeta_shape": [96, 96, 66, 214],
  "dcmmeta_slice_dim": 2,
  "dcmmeta_version": 0.6,
  "global": {
    "const": {
      "AcquisitionMatrix": [96, 0, 0, 72],
      "AngioFlag": "N",
      "BitsAllocated": 16,
      "BitsStored": 12,
      "BodyPartExamined": "BRAIN",
      "Columns": 864,
      "EchoNumbers": 1,
      "EchoTime": 30.0,
      "EchoTrainLength": 58,
      "FlipAngle": 62.0,
      "HighBit": 11,
      "ImageOrientationPatient": [0.99680189436634, -0.0720542599283, 0.03455672168867, 0.07634971191025, 0.98639154282607, -0.1456105962231],
      "ImagePositionPatient": [-930.77735916086, -816.90761277158, 49.001660726363],
      "ImageType": [
        "ORIGINAL",
        "PRIMARY",
        "M",
        "ND",
        "MOSAIC"
],
      "ImagedNucleus": "1H",
      "ImagingFrequency": 123.259517,
      "InPlanePhaseEncodingDirection": "COL",
      "MRAcquisitionType": "2D",
      "MagneticFieldStrength": 3.0,
      "Manufacturer": "SIEMENS",
      "ManufacturerModelName": "Prisma",
      "Modality": "MR",
      "NumberOfAverages": 1.0,
      "NumberOfPhaseEncodingSteps": 58,
      "PercentPhaseFieldOfView": 100.0,
      "PercentSampling": 75.0,
      "PerformedProcedureStepStartTime": "095945.114000",
      "PhotometricInterpretation": "MONOCHROME2",
      "PixelBandwidth": 2265.0,
      "PixelRepresentation": 0,
      "PixelSpacing": [2.0, 2.0],
      "ProtocolName": "func_catLoc_run1",
      "RepetitionTime": 1500.0,
      "Rows": 864,
      "SAR": 0.05044211992452,
      "SamplesPerPixel": 1,
      "ScanOptions": [
        "PFP",
        "FS"
],
      "ScanningSequence": "EP",
      "SequenceName": "*epfid2d1_72",
      "SequenceVariant": [
        "SK",
        "OSP"
],
      "SeriesDescription": "func_catLoc_run1",
      "SeriesNumber": 10,
      "SeriesTime": "102819.004000",
      "SliceLocation": -50.314182251615,
      "SliceThickness": 2.0,
      "SmallestImagePixelValue": 0,
      "SoftwareVersions": "syngo MR E11",
      "SpacingBetweenSlices": 2.000000000869,
      "SpecificCharacterSet": "ISO_IR 100",
      "StudyID": "1",
      "StudyTime": "095945.028000",
      "TransmitCoilName": "Body",
      "VariableFlipAngleFlag": "N",
      "WindowCenterWidthExplanation": "Algo1",
      "dBdt": 0.0},
    "slices": {}
  },
  "time": {
    "samples": {
      "AcquisitionNumber": [1, 2, 3, 4, 5, 6, 7, 8, 9, 10, 11, 12, 13, 14, 15, 16, 17, 18, 19, 20, 21, 22, 23, 24, 25, 26, 27, 28, 29, 30, 31, 32, 33, 34, 35, 36, 37, 38, 39, 40, 41, 42, 43, 44, 45, 46, 47, 48, 49, 50, 51, 52, 53, 54, 55, 56, 57, 58, 59, 60, 61, 62, 63, 64, 65, 66, 67, 68, 69, 70, 71, 72, 73, 74, 75, 76, 77, 78, 79, 80, 81, 82, 83, 84, 85, 86, 87, 88, 89, 90, 91, 92, 93, 94, 95, 96, 97, 98, 99, 100, 101, 102, 103, 104, 105, 106, 107, 108, 109, 110, 111, 112, 113, 114, 115, 116, 117, 118, 119, 120, 121, 122, 123, 124, 125, 126, 127, 128, 129, 130, 131, 132, 133, 134, 135, 136, 137, 138, 139, 140, 141, 142, 143, 144, 145, 146, 147, 148, 149, 150, 151, 152, 153, 154, 155, 156, 157, 158, 159, 160, 161, 162, 163, 164, 165, 166, 167, 168, 169, 170, 171, 172, 173, 174, 175, 176, 177, 178, 179, 180, 181, 182, 183, 184, 185, 186, 187, 188, 189, 190, 191, 192, 193, 194, 195, 196, 197, 198, 199, 200, 201, 202, 203, 204, 205, 206, 207, 208, 209, 210, 211, 212, 213, 214],
      "AcquisitionTime": ["102807.730000", "102809.230000", "102810.730000", "102812.230000", "102813.730000", "102815.230000", "102816.730000", "102818.230000", "102819.730000", "102821.230000", "102822.730000", "102824.230000", "102825.730000", "102827.230000", "102828.730000", "102830.230000", "102831.730000", "102833.230000", "102834.730000", "102836.230000", "102837.730000", "102839.230000", "102840.730000", "102842.230000", "102843.730000", "102845.230000", "102846.730000", "102848.230000", "102849.730000", "102851.230000", "102852.730000", "102854.230000", "102855.730000", "102857.230000", "102858.730000", "102900.230000", "102901.730000", "102903.230000", "102904.730000", "102906.230000", "102907.730000", "102909.230000", "102910.730000", "102912.230000", "102913.730000", "102915.230000", "102916.730000", "102918.230000", "102919.730000", "102921.230000", "102922.730000", "102924.230000", "102925.730000", "102927.230000", "102928.730000", "102930.230000", "102931.730000", "102933.230000", "102934.730000", "102936.230000", "102937.730000", "102939.230000", "102940.730000", "102942.230000", "102943.730000", "102945.230000", "102946.730000", "102948.230000", "102949.730000", "102951.230000", "102952.730000", "102954.230000", "102955.730000", "102957.230000", "102958.730000", "103000.230000", "103001.730000", "103003.230000", "103004.730000", "103006.230000", "103007.730000", "103009.230000", "103010.730000", "103012.230000", "103013.730000", "103015.230000", "103016.730000", "103018.230000", "103019.730000", "103021.230000", "103022.730000", "103024.230000", "103025.730000", "103027.230000", "103028.730000", "103030.230000", "103031.730000", "103033.230000", "103034.730000", "103036.230000", "103037.730000", "103039.230000", "103040.730000", "103042.230000", "103043.730000", "103045.230000", "103046.730000", "103048.230000", "103049.730000", "103051.230000", "103052.730000", "103054.230000", "103055.730000", "103057.230000", "103058.730000", "103100.230000", "103101.730000", "103103.230000", "103104.730000", "103106.230000", "103107.730000", "103109.230000", "103110.730000", "103112.230000", "103113.730000", "103115.230000", "103116.730000", "103118.230000", "103119.730000", "103121.230000", "103122.730000", "103124.230000", "103125.730000", "103127.230000", "103128.730000", "103130.230000", "103131.730000", "103133.230000", "103134.730000", "103136.230000", "103137.730000", "103139.230000", "103140.730000", "103142.230000", "103143.730000", "103145.230000", "103146.730000", "103148.230000", "103149.730000", "103151.230000", "103152.730000", "103154.230000", "103155.730000", "103157.230000", "103158.730000", "103200.230000", "103201.730000", "103203.230000", "103204.730000", "103206.230000", "103207.730000", "103209.230000", "103210.730000", "103212.230000", "103213.730000", "103215.230000", "103216.730000", "103218.230000", "103219.730000", "103221.230000", "103222.730000", "103224.230000", "103225.730000", "103227.230000", "103228.730000", "103230.230000", "103231.730000", "103233.230000", "103234.730000", "103236.230000", "103237.730000", "103239.230000", "103240.730000", "103242.230000", "103243.730000", "103245.230000", "103246.730000", "103248.230000", "103249.730000", "103251.230000", "103252.730000", "103254.230000", "103255.730000", "103257.230000", "103258.730000", "103300.230000", "103301.730000", "103303.230000", "103304.730000", "103306.230000", "103307.730000", "103309.230000", "103310.730000", "103312.230000", "103313.730000", "103315.230000", "103316.730000", "103318.230000", "103319.730000", "103321.230000", "103322.730000", "103324.230000", "103325.730000", "103327.230000"],
      "ContentTime": ["102819.008000", "102819.012000", "102819.015000", "102819.018000", "102819.021000", "102819.024000", "102819.027000", "102859.002000", "102859.005000", "102859.008000", "102859.011000", "102859.015000", "102859.018000", "102859.021000", "102859.025000", "102859.028000", "102859.031000", "102859.035000", "102859.038000", "102859.041000", "102859.044000", "102859.047000", "102859.050000", "102859.053000", "102859.056000", "102859.059000", "102859.062000", "102859.070000", "102859.073000", "102859.076000", "102859.079000", "102859.082000", "102859.085000", "102859.088000", "102939.002000", "102939.005000", "102939.008000", "102939.012000", "102939.015000", "102939.018000", "102939.021000", "102939.024000", "102939.027000", "102939.033000", "102939.036000", "102939.039000", "102939.042000", "102939.045000", "102939.048000", "102939.051000", "102939.054000", "102939.057000", "102939.060000", "102939.063000", "102939.066000", "102939.069000", "102939.072000", "102939.075000", "102939.078000", "102939.081000", "102939.084000", "103019.003000", "103019.016000", "103019.019000", "103019.022000", "103019.025000", "103019.028000", "103019.031000", "103019.034000", "103019.038000", "103019.041000", "103019.044000", "103019.047000", "103019.050000", "103019.053000", "103019.056000", "103019.059000", "103019.062000", "103019.065000", "103019.068000", "103019.071000", "103019.074000", "103019.077000", "103019.080000", "103019.083000", "103019.086000", "103019.089000", "103059.002000", "103059.005000", "103059.008000", "103059.011000", "103059.015000", "103059.018000", "103059.021000", "103059.024000", "103059.027000", "103059.030000", "103059.033000", "103059.036000", "103059.039000", "103059.042000", "103059.045000", "103059.048000", "103059.051000", "103059.054000", "103059.057000", "103059.060000", "103059.064000", "103059.066000", "103059.069000", "103059.072000", "103059.076000", "103059.079000", "103059.082000", "103139.002000", "103139.005000", "103139.008000", "103139.012000", "103139.015000", "103139.018000", "103139.021000", "103139.024000", "103139.027000", "103139.030000", "103139.033000", "103139.036000", "103139.039000", "103139.042000", "103139.045000", "103139.048000", "103139.051000", "103139.054000", "103139.057000", "103139.061000", "103139.063000", "103139.066000", "103139.069000", "103139.073000", "103139.076000", "103139.079000", "103139.082000", "103219.002000", "103219.005000", "103219.008000", "103219.011000", "103219.014000", "103219.017000", "103219.020000", "103219.023000", "103219.043000", "103219.046000", "103219.049000", "103219.052000", "103219.055000", "103219.058000", "103219.061000", "103219.064000", "103219.067000", "103219.070000", "103219.073000", "103219.076000", "103219.080000", "103219.083000", "103219.086000", "103219.089000", "103219.092000", "103219.095000", "103259.002000", "103259.005000", "103259.008000", "103259.011000", "103259.015000", "103259.018000", "103259.021000", "103259.024000", "103259.027000", "103259.030000", "103259.033000", "103259.036000", "103259.039000", "103259.042000", "103259.045000", "103259.048000", "103259.051000", "103259.054000", "103259.057000", "103259.060000", "103259.063000", "103259.066000", "103259.069000", "103259.072000", "103259.076000", "103259.079000", "103259.082000", "103328.109000", "103328.113000", "103328.116000", "103328.119000", "103328.122000", "103328.126000", "103328.129000", "103328.132000", "103328.135000", "103328.139000", "103328.142000", "103328.145000", "103328.148000", "103328.152000", "103328.155000", "103328.158000", "103328.161000", "103328.164000", "103328.168000", "103328.171000"],
      "InstanceCreationTime": ["102819.008000", "102819.012000", "102819.015000", "102819.018000", "102819.021000", "102819.024000", "102819.027000", "102859.002000", "102859.005000", "102859.008000", "102859.011000", "102859.015000", "102859.018000", "102859.021000", "102859.025000", "102859.028000", "102859.031000", "102859.035000", "102859.038000", "102859.041000", "102859.044000", "102859.047000", "102859.050000", "102859.053000", "102859.056000", "102859.059000", "102859.062000", "102859.070000", "102859.073000", "102859.076000", "102859.079000", "102859.082000", "102859.085000", "102859.088000", "102939.002000", "102939.005000", "102939.008000", "102939.012000", "102939.015000", "102939.018000", "102939.021000", "102939.024000", "102939.027000", "102939.033000", "102939.036000", "102939.039000", "102939.042000", "102939.045000", "102939.048000", "102939.051000", "102939.054000", "102939.057000", "102939.060000", "102939.063000", "102939.066000", "102939.069000", "102939.072000", "102939.075000", "102939.078000", "102939.081000", "102939.084000", "103019.003000", "103019.016000", "103019.019000", "103019.022000", "103019.025000", "103019.028000", "103019.031000", "103019.034000", "103019.038000", "103019.041000", "103019.044000", "103019.047000", "103019.050000", "103019.053000", "103019.056000", "103019.059000", "103019.062000", "103019.065000", "103019.068000", "103019.071000", "103019.074000", "103019.077000", "103019.080000", "103019.083000", "103019.086000", "103019.089000", "103059.002000", "103059.005000", "103059.008000", "103059.011000", "103059.015000", "103059.018000", "103059.021000", "103059.024000", "103059.027000", "103059.030000", "103059.033000", "103059.036000", "103059.039000", "103059.042000", "103059.045000", "103059.048000", "103059.051000", "103059.054000", "103059.057000", "103059.060000", "103059.064000", "103059.066000", "103059.069000", "103059.072000", "103059.076000", "103059.079000", "103059.082000", "103139.002000", "103139.005000", "103139.008000", "103139.012000", "103139.015000", "103139.018000", "103139.021000", "103139.024000", "103139.027000", "103139.030000", "103139.033000", "103139.036000", "103139.039000", "103139.042000", "103139.045000", "103139.048000", "103139.051000", "103139.054000", "103139.057000", "103139.061000", "103139.063000", "103139.066000", "103139.069000", "103139.073000", "103139.076000", "103139.079000", "103139.082000", "103219.002000", "103219.005000", "103219.008000", "103219.011000", "103219.014000", "103219.017000", "103219.020000", "103219.023000", "103219.043000", "103219.046000", "103219.049000", "103219.052000", "103219.055000", "103219.058000", "103219.061000", "103219.064000", "103219.067000", "103219.070000", "103219.073000", "103219.076000", "103219.080000", "103219.083000", "103219.086000", "103219.089000", "103219.092000", "103219.095000", "103259.002000", "103259.005000", "103259.008000", "103259.011000", "103259.015000", "103259.018000", "103259.021000", "103259.024000", "103259.027000", "103259.030000", "103259.033000", "103259.036000", "103259.039000", "103259.042000", "103259.045000", "103259.048000", "103259.051000", "103259.054000", "103259.057000", "103259.060000", "103259.063000", "103259.066000", "103259.069000", "103259.072000", "103259.076000", "103259.079000", "103259.082000", "103328.109000", "103328.113000", "103328.116000", "103328.119000", "103328.122000", "103328.126000", "103328.129000", "103328.132000", "103328.135000", "103328.139000", "103328.142000", "103328.145000", "103328.148000", "103328.152000", "103328.155000", "103328.158000", "103328.161000", "103328.164000", "103328.168000", "103328.171000"],
      "InstanceNumber": [1, 2, 3, 4, 5, 6, 7, 8, 9, 10, 11, 12, 13, 14, 15, 16, 17, 18, 19, 20, 21, 22, 23, 24, 25, 26, 27, 28, 29, 30, 31, 32, 33, 34, 35, 36, 37, 38, 39, 40, 41, 42, 43, 44, 45, 46, 47, 48, 49, 50, 51, 52, 53, 54, 55, 56, 57, 58, 59, 60, 61, 62, 63, 64, 65, 66, 67, 68, 69, 70, 71, 72, 73, 74, 75, 76, 77, 78, 79, 80, 81, 82, 83, 84, 85, 86, 87, 88, 89, 90, 91, 92, 93, 94, 95, 96, 97, 98, 99, 100, 101, 102, 103, 104, 105, 106, 107, 108, 109, 110, 111, 112, 113, 114, 115, 116, 117, 118, 119, 120, 121, 122, 123, 124, 125, 126, 127, 128, 129, 130, 131, 132, 133, 134, 135, 136, 137, 138, 139, 140, 141, 142, 143, 144, 145, 146, 147, 148, 149, 150, 151, 152, 153, 154, 155, 156, 157, 158, 159, 160, 161, 162, 163, 164, 165, 166, 167, 168, 169, 170, 171, 172, 173, 174, 175, 176, 177, 178, 179, 180, 181, 182, 183, 184, 185, 186, 187, 188, 189, 190, 191, 192, 193, 194, 195, 196, 197, 198, 199, 200, 201, 202, 203, 204, 205, 206, 207, 208, 209, 210, 211, 212, 213, 214],
      "LargestImagePixelValue": [2978, 2877, 2901, 2871, 2910, 2947, 2949, 2899, 2933, 2955, 2954, 2858, 2892, 2837, 2905, 2888, 2913, 3026, 3000, 2879, 2926, 2872, 2938, 2915, 2867, 2948, 2934, 2877, 2937, 2861, 2956, 2883, 2903, 2966, 3000, 2919, 2983, 2929, 2891, 2916, 2846, 2893, 2917, 2864, 2913, 2903, 2924, 2941, 2883, 2914, 2832, 2788, 2887, 2905, 2819, 2831, 2763, 2805, 2790, 2784, 2832, 2844, 2792, 2825, 2871, 2802, 2780, 2709, 2645, 2611, 2611, 2626, 2606, 2692, 2736, 2689, 2832, 2874, 2807, 2829, 2897, 2812, 2835, 2740, 2798, 2775, 2766, 2821, 2775, 2878, 2866, 2763, 2799, 2708, 2722, 2694, 2635, 2727, 2676, 2689, 2699, 2640, 2649, 2645, 2760, 2813, 2726, 2844, 2819, 2781, 2830, 2804, 2795, 2779, 2732, 2802, 2850, 2749, 2768, 2699, 2721, 2756, 2829, 2860, 2830, 2751, 2808, 2804, 2723, 2795, 2834, 2739, 2853, 2889, 2802, 2841, 2755, 2727, 2760, 2718, 2781, 2801, 2755, 2796, 2725, 2736, 2806, 2735, 2773, 2735, 2681, 2672, 2651, 2648, 2617, 2627, 2626, 2652, 2624, 2599, 2584, 2580, 2617, 2620, 2613, 2641, 2592, 2603, 2591, 2602, 2613, 2592, 2582, 2613, 2653, 2666, 2661, 2751, 2685, 2738, 2684, 2750, 2744, 2695, 2747, 2767, 2686, 2766, 2747, 2740, 2813, 2751, 2884, 2888, 2755, 2772, 2693, 2685, 2680, 2681, 2803, 2744, 2855, 2913, 2773, 2807, 2737, 2824, 2871, 2785, 2802, 2811, 2771, 2752],
      "WindowCenter": [765.0, 763.0, 763.0, 764.0, 765.0, 765.0, 765.0, 765.0, 765.0, 764.0, 763.0, 763.0, 763.0, 763.0, 763.0, 764.0, 764.0, 765.0, 764.0, 764.0, 764.0, 764.0, 764.0, 764.0, 763.0, 763.0, 763.0, 764.0, 764.0, 764.0, 765.0, 765.0, 765.0, 765.0, 766.0, 765.0, 765.0, 765.0, 765.0, 765.0, 764.0, 764.0, 763.0, 763.0, 763.0, 763.0, 764.0, 765.0, 764.0, 764.0, 763.0, 763.0, 763.0, 763.0, 762.0, 762.0, 762.0, 762.0, 762.0, 763.0, 763.0, 763.0, 763.0, 763.0, 763.0, 763.0, 762.0, 760.0, 759.0, 759.0, 759.0, 759.0, 759.0, 760.0, 761.0, 761.0, 763.0, 763.0, 763.0, 763.0, 763.0, 763.0, 762.0, 762.0, 761.0, 761.0, 761.0, 762.0, 762.0, 762.0, 762.0, 762.0, 762.0, 761.0, 761.0, 760.0, 760.0, 760.0, 760.0, 760.0, 760.0, 760.0, 760.0, 761.0, 761.0, 762.0, 761.0, 762.0, 762.0, 762.0, 762.0, 762.0, 761.0, 761.0, 761.0, 762.0, 762.0, 762.0, 762.0, 762.0, 762.0, 762.0, 763.0, 762.0, 762.0, 761.0, 761.0, 762.0, 761.0, 762.0, 762.0, 761.0, 762.0, 762.0, 761.0, 761.0, 761.0, 761.0, 761.0, 761.0, 761.0, 761.0, 761.0, 761.0, 761.0, 761.0, 761.0, 761.0, 760.0, 758.0, 758.0, 757.0, 758.0, 758.0, 757.0, 758.0, 758.0, 759.0, 759.0, 758.0, 758.0, 758.0, 758.0, 758.0, 758.0, 759.0, 758.0, 757.0, 757.0, 757.0, 757.0, 757.0, 757.0, 757.0, 758.0, 759.0, 759.0, 760.0, 760.0, 761.0, 761.0, 761.0, 760.0, 760.0, 760.0, 760.0, 760.0, 761.0, 761.0, 761.0, 761.0, 761.0, 761.0, 762.0, 761.0, 761.0, 760.0, 759.0, 760.0, 760.0, 760.0, 760.0, 761.0, 761.0, 760.0, 760.0, 760.0, 761.0, 761.0, 761.0, 761.0, 761.0, 760.0, 759.0],
      "WindowWidth": [1695.0, 1691.0, 1691.0, 1694.0, 1695.0, 1696.0, 1695.0, 1695.0, 1695.0, 1692.0, 1690.0, 1689.0, 1690.0, 1690.0, 1691.0, 1692.0, 1694.0, 1695.0, 1694.0, 1693.0, 1694.0, 1693.0, 1694.0, 1692.0, 1690.0, 1691.0, 1691.0, 1691.0, 1692.0, 1693.0, 1696.0, 1695.0, 1696.0, 1697.0, 1699.0, 1698.0, 1697.0, 1696.0, 1696.0, 1696.0, 1693.0, 1692.0, 1691.0, 1689.0, 1691.0, 1688.0, 1695.0, 1697.0, 1693.0, 1692.0, 1690.0, 1690.0, 1691.0, 1689.0, 1686.0, 1687.0, 1686.0, 1687.0, 1687.0, 1688.0, 1689.0, 1689.0, 1689.0, 1688.0, 1690.0, 1689.0, 1685.0, 1681.0, 1677.0, 1676.0, 1676.0, 1676.0, 1676.0, 1679.0, 1682.0, 1684.0, 1688.0, 1690.0, 1689.0, 1690.0, 1691.0, 1689.0, 1686.0, 1684.0, 1685.0, 1684.0, 1685.0, 1686.0, 1687.0, 1688.0, 1687.0, 1685.0, 1685.0, 1682.0, 1682.0, 1681.0, 1679.0, 1679.0, 1679.0, 1679.0, 1680.0, 1680.0, 1680.0, 1682.0, 1685.0, 1685.0, 1684.0, 1686.0, 1686.0, 1687.0, 1687.0, 1687.0, 1683.0, 1682.0, 1684.0, 1686.0, 1686.0, 1685.0, 1685.0, 1685.0, 1684.0, 1688.0, 1690.0, 1687.0, 1685.0, 1684.0, 1683.0, 1684.0, 1683.0, 1686.0, 1686.0, 1684.0, 1686.0, 1685.0, 1683.0, 1683.0, 1684.0, 1682.0, 1683.0, 1682.0, 1682.0, 1683.0, 1683.0, 1684.0, 1684.0, 1683.0, 1684.0, 1682.0, 1678.0, 1675.0, 1672.0, 1671.0, 1673.0, 1673.0, 1670.0, 1672.0, 1675.0, 1677.0, 1675.0, 1673.0, 1673.0, 1672.0, 1672.0, 1672.0, 1672.0, 1677.0, 1672.0, 1670.0, 1670.0, 1670.0, 1671.0, 1669.0, 1669.0, 1670.0, 1673.0, 1675.0, 1676.0, 1681.0, 1681.0, 1682.0, 1681.0, 1682.0, 1680.0, 1680.0, 1681.0, 1680.0, 1681.0, 1682.0, 1682.0, 1683.0, 1684.0, 1683.0, 1684.0, 1685.0, 1683.0, 1684.0, 1678.0, 1677.0, 1678.0, 1680.0, 1681.0, 1681.0, 1683.0, 1684.0, 1681.0, 1681.0, 1681.0, 1682.0, 1684.0, 1682.0, 1682.0, 1684.0, 1679.0, 1676.0]
    },
    "slices": {}
  }
}