{
  "AcquisitionMatrixPE": 72,
  "AcquisitionNumber": 1,
  "AcquisitionTime": "10:42:6.832500",
  "BandwidthPerPixelPhaseEncode": 17.943,
  "BaseResolution": 96,
  "BodyPartExamined": "BRAIN",
  "CoilCombinationMethod": "Sum of Squares",
  "ConsistencyInfo": "N4_VE11C_LATEST_20160120",
  "ConversionSoftware": "dcm2niix",
  "ConversionSoftwareVersion": "v1.0.20211006",
  "DerivedVendorReportedEchoSpacing": 0.000552897,
  "DeviceSerialNumber": "166011",
  "DwellTime": 2.3e-06,
  "EchoTime": 0.03,
  "EchoTrainLength": 58,
  "EffectiveEchoSpacing": 0.000580542,
  "FlipAngle": 62,
  "ImageOrientationPatientDICOM": [0.996802, -0.0720543, 0.0345567, 0.0763497, 0.986392, -0.145611],
  "ImageOrientationText": "Tra>Cor(-8.5)>Sag(1.4)",
  "ImageType": [
    "ORIGINAL",
    "PRIMARY",
    "M",
    "ND",
    "MOSAIC"
],
  "ImagingFrequency": 123.26,
  "InPlanePhaseEncodingDirectionDICOM": "COL",
  "InstitutionAddress": "West 130th Street 610,NY,NYC,US,10025",
  "InstitutionName": "MBBI",
  "InstitutionalDepartmentName": "Department",
  "MRAcquisitionType": "2D",
  "MagneticFieldStrength": 3,
  "Manufacturer": "Siemens",
  "ManufacturersModelName": "Prisma",
  "Modality": "MR",
  "MultibandAccelerationFactor": 3,
  "PartialFourier": 0.75,
  "PatientPosition": "HFS",
  "PercentPhaseFOV": 100,
  "PercentSampling": 75,
  "PhaseEncodingDirection": "j-",
  "PhaseEncodingSteps": 58,
  "PhaseOversampling": 0.05,
  "PhaseResolution": 0.75,
  "PixelBandwidth": 2265,
  "ProcedureStepDescription": "White^Word_recognition",
  "ProtocolName": "func_vwfate_run4",
  "PulseSequenceDetails": "%SiemensSeq%\\ep2d_bold",
  "ReceiveCoilActiveElements": "HC1-6",
  "ReceiveCoilName": "HeadNeck_64",
  "ReconMatrixPE": 96,
  "RefLinesPE": 40,
  "RepetitionTime": 1.5,
  "SAR": 0.0502848,
  "ScanOptions": "PFP\\FS",
  "ScanningSequence": "EP",
  "SequenceName": "*epfid2d1_72",
  "SequenceVariant": "SK\\OSP",
  "SeriesDescription": "func_vwfate_run4",
  "SeriesNumber": 12,
  "ShimSetting": [-1131, -1345, 679, 584, -72, 81, -144, -43],
  "SliceThickness": 2,
  "SliceTiming": [1.075, 0, 0.74, 0.065, 0.805, 0.1325, 0.8725, 0.2, 0.94, 0.2675, 1.0075, 0.4025, 1.1425, 0.47, 1.21, 0.5375, 1.2775, 0.605, 1.345, 0.6725, 1.4125, 0.335, 1.075, 0, 0.74, 0.065, 0.805, 0.1325, 0.8725, 0.2, 0.94, 0.2675, 1.0075, 0.4025, 1.1425, 0.47, 1.21, 0.5375, 1.2775, 0.605, 1.345, 0.6725, 1.4125, 0.335, 1.075, 0, 0.74, 0.065, 0.805, 0.1325, 0.8725, 0.2, 0.94, 0.2675, 1.0075, 0.4025, 1.1425, 0.47, 1.21, 0.5375, 1.2775, 0.605, 1.345, 0.6725, 1.4125, 0.335],
  "SoftwareVersions": "syngo MR E11",
  "SpacingBetweenSlices": 2,
  "StationName": "AWP166011",
  "TaskName": "vwfate",
  "TotalReadoutTime": 0.0551515,
  "TxRefAmp": 207.842,
  "dcmmeta_affine": [
    [-1.9936038255691528, 0.15269942581653595, 0.04718918725848198, 92.0904769897461],
    [0.14410851895809174, 1.972783088684082, -0.2955666184425354, -72.71781158447266],
    [0.06911344081163406, 0.2912212014198303, 1.9774765968322754, -63.95372772216797],
    [0.0, 0.0, 0.0, 1.0]
],
  "dcmmeta_reorient_transform": [
    [0.0, -1.0, 0.0, 95.0],
    [1.0, 0.0, 0.0, 0.0],
    [0.0, 0.0, 1.0, 0.0],
    [0.0, 0.0, 0.0, 1.0]
],
  "dcmmeta_shape": [96, 96, 66, 164],
  "dcmmeta_slice_dim": 2,
  "dcmmeta_version": 0.6,
  "global": {
    "const": {
      "AcquisitionMatrix": [96, 0, 0, 72],
      "AngioFlag": "N",
      "BitsAllocated": 16,
      "BitsStored": 12,
      "BodyPartExamined": "BRAIN",
      "Columns": 864,
      "EchoNumbers": 1,
      "EchoTime": 30.0,
      "EchoTrainLength": 58,
      "FlipAngle": 62.0,
      "HighBit": 11,
      "ImageOrientationPatient": [0.99680189436634, -0.0720542599283, 0.03455672168867, 0.07634971191025, 0.98639154282607, -0.1456105962231],
      "ImagePositionPatient": [-930.77735916086, -816.90761277158, 49.001660726363],
      "ImageType": [
        "ORIGINAL",
        "PRIMARY",
        "M",
        "ND",
        "MOSAIC"
],
      "ImagedNucleus": "1H",
      "ImagingFrequency": 123.259525,
      "InPlanePhaseEncodingDirection": "COL",
      "MRAcquisitionType": "2D",
      "MagneticFieldStrength": 3.0,
      "Manufacturer": "SIEMENS",
      "ManufacturerModelName": "Prisma",
      "Modality": "MR",
      "NumberOfAverages": 1.0,
      "NumberOfPhaseEncodingSteps": 58,
      "PercentPhaseFieldOfView": 100.0,
      "PercentSampling": 75.0,
      "PerformedProcedureStepStartTime": "095945.114000",
      "PhotometricInterpretation": "MONOCHROME2",
      "PixelBandwidth": 2265.0,
      "PixelRepresentation": 0,
      "PixelSpacing": [2.0, 2.0],
      "ProtocolName": "func_vwfate_run4",
      "RepetitionTime": 1500.0,
      "Rows": 864,
      "SAR": 0.05028475820587,
      "SamplesPerPixel": 1,
      "ScanOptions": [
        "PFP",
        "FS"
],
      "ScanningSequence": "EP",
      "SequenceName": "*epfid2d1_72",
      "SequenceVariant": [
        "SK",
        "OSP"
],
      "SeriesDescription": "func_vwfate_run4",
      "SeriesNumber": 12,
      "SeriesTime": "104238.907000",
      "SliceLocation": -50.314182251615,
      "SliceThickness": 2.0,
      "SmallestImagePixelValue": 0,
      "SoftwareVersions": "syngo MR E11",
      "SpacingBetweenSlices": 2.000000000869,
      "SpecificCharacterSet": "ISO_IR 100",
      "StudyID": "1",
      "StudyTime": "095945.028000",
      "TransmitCoilName": "Body",
      "VariableFlipAngleFlag": "N",
      "WindowCenterWidthExplanation": "Algo1",
      "dBdt": 0.0},
    "slices": {}
  },
  "time": {
    "samples": {
      "AcquisitionNumber": [1, 2, 3, 4, 5, 6, 7, 8, 9, 10, 11, 12, 13, 14, 15, 16, 17, 18, 19, 20, 21, 22, 23, 24, 25, 26, 27, 28, 29, 30, 31, 32, 33, 34, 35, 36, 37, 38, 39, 40, 41, 42, 43, 44, 45, 46, 47, 48, 49, 50, 51, 52, 53, 54, 55, 56, 57, 58, 59, 60, 61, 62, 63, 64, 65, 66, 67, 68, 69, 70, 71, 72, 73, 74, 75, 76, 77, 78, 79, 80, 81, 82, 83, 84, 85, 86, 87, 88, 89, 90, 91, 92, 93, 94, 95, 96, 97, 98, 99, 100, 101, 102, 103, 104, 105, 106, 107, 108, 109, 110, 111, 112, 113, 114, 115, 116, 117, 118, 119, 120, 121, 122, 123, 124, 125, 126, 127, 128, 129, 130, 131, 132, 133, 134, 135, 136, 137, 138, 139, 140, 141, 142, 143, 144, 145, 146, 147, 148, 149, 150, 151, 152, 153, 154, 155, 156, 157, 158, 159, 160, 161, 162, 163, 164],
      "AcquisitionTime": ["104206.832500", "104208.332500", "104209.832500", "104211.332500", "104212.832500", "104214.332500", "104215.832500", "104217.332500", "104218.832500", "104220.332500", "104221.832500", "104223.332500", "104224.832500", "104226.332500", "104227.832500", "104229.332500", "104230.832500", "104232.332500", "104233.832500", "104235.332500", "104236.832500", "104238.332500", "104239.832500", "104241.332500", "104242.832500", "104244.332500", "104245.832500", "104247.332500", "104248.832500", "104250.332500", "104251.832500", "104253.332500", "104254.832500", "104256.332500", "104257.832500", "104259.332500", "104300.832500", "104302.332500", "104303.832500", "104305.332500", "104306.832500", "104308.332500", "104309.832500", "104311.332500", "104312.832500", "104314.332500", "104315.832500", "104317.332500", "104318.832500", "104320.332500", "104321.832500", "104323.332500", "104324.832500", "104326.332500", "104327.832500", "104329.332500", "104330.832500", "104332.332500", "104333.832500", "104335.332500", "104336.832500", "104338.332500", "104339.832500", "104341.332500", "104342.832500", "104344.332500", "104345.832500", "104347.332500", "104348.832500", "104350.332500", "104351.832500", "104353.332500", "104354.832500", "104356.332500", "104357.832500", "104359.332500", "104400.832500", "104402.332500", "104403.832500", "104405.332500", "104406.832500", "104408.332500", "104409.832500", "104411.332500", "104412.832500", "104414.332500", "104415.832500", "104417.332500", "104418.832500", "104420.332500", "104421.832500", "104423.332500", "104424.832500", "104426.332500", "104427.832500", "104429.332500", "104430.832500", "104432.332500", "104433.832500", "104435.332500", "104436.832500", "104438.332500", "104439.832500", "104441.332500", "104442.832500", "104444.332500", "104445.832500", "104447.332500", "104448.832500", "104450.332500", "104451.832500", "104453.332500", "104454.832500", "104456.332500", "104457.832500", "104459.332500", "104500.832500", "104502.332500", "104503.832500", "104505.332500", "104506.832500", "104508.332500", "104509.832500", "104511.332500", "104512.832500", "104514.332500", "104515.832500", "104517.332500", "104518.832500", "104520.332500", "104521.832500", "104523.332500", "104524.832500", "104526.332500", "104527.832500", "104529.332500", "104530.832500", "104532.332500", "104533.832500", "104535.332500", "104536.832500", "104538.332500", "104539.832500", "104541.332500", "104542.832500", "104544.332500", "104545.832500", "104547.332500", "104548.832500", "104550.332500", "104551.832500", "104553.332500", "104554.832500", "104556.332500", "104557.832500", "104559.332500", "104600.832500", "104602.332500", "104603.832500", "104605.332500", "104606.832500", "104608.332500", "104609.832500", "104611.332500"],
      "ContentTime": ["104238.911000", "104238.915000", "104238.920000", "104238.923000", "104238.927000", "104238.930000", "104238.933000", "104238.936000", "104238.940000", "104238.944000", "104238.947000", "104238.950000", "104238.953000", "104238.956000", "104238.959000", "104238.962000", "104238.965000", "104238.968000", "104238.971000", "104238.974000", "104238.977000", "104318.906000", "104318.909000", "104318.912000", "104318.920000", "104318.923000", "104318.926000", "104318.929000", "104318.932000", "104318.935000", "104318.938000", "104318.942000", "104318.945000", "104318.948000", "104318.951000", "104318.954000", "104318.957000", "104318.960000", "104318.963000", "104318.966000", "104318.969000", "104318.972000", "104318.975000", "104318.978000", "104318.981000", "104318.984000", "104318.987000", "104318.990000", "104358.909000", "104358.912000", "104358.916000", "104358.919000", "104358.922000", "104358.925000", "104358.928000", "104358.931000", "104358.934000", "104358.937000", "104358.940000", "104358.943000", "104358.946000", "104358.950000", "104358.966000", "104358.969000", "104358.972000", "104358.976000", "104358.979000", "104358.982000", "104358.985000", "104358.992000", "104358.995000", "104358.998000", "104359.001000", "104359.005000", "104438.906000", "104438.910000", "104438.913000", "104438.916000", "104438.919000", "104438.922000", "104438.925000", "104438.928000", "104438.931000", "104438.934000", "104438.937000", "104438.940000", "104438.943000", "104438.947000", "104438.950000", "104438.953000", "104438.956000", "104438.959000", "104438.963000", "104438.966000", "104438.969000", "104438.972000", "104438.975000", "104438.978000", "104438.981000", "104438.984000", "104438.987000", "104518.906000", "104518.909000", "104518.912000", "104518.915000", "104518.919000", "104518.922000", "104518.925000", "104518.928000", "104518.931000", "104518.934000", "104518.937000", "104518.940000", "104518.943000", "104518.946000", "104518.949000", "104518.952000", "104518.956000", "104518.959000", "104518.962000", "104518.965000", "104518.968000", "104518.971000", "104518.974000", "104518.977000", "104518.980000", "104518.983000", "104518.986000", "104558.907000", "104558.910000", "104558.913000", "104558.916000", "104558.919000", "104558.922000", "104558.925000", "104558.928000", "104558.931000", "104558.935000", "104558.938000", "104558.941000", "104558.944000", "104558.947000", "104558.950000", "104558.953000", "104558.956000", "104558.960000", "104558.963000", "104558.966000", "104558.970000", "104558.973000", "104558.976000", "104558.979000", "104558.982000", "104558.985000", "104612.656000", "104612.660000", "104612.664000", "104612.668000", "104612.671000", "104612.675000", "104612.678000", "104612.682000", "104612.686000", "104612.689000"],
      "InstanceCreationTime": ["104238.911000", "104238.915000", "104238.920000", "104238.923000", "104238.927000", "104238.930000", "104238.933000", "104238.936000", "104238.940000", "104238.944000", "104238.947000", "104238.950000", "104238.953000", "104238.956000", "104238.959000", "104238.962000", "104238.965000", "104238.968000", "104238.971000", "104238.974000", "104238.977000", "104318.906000", "104318.909000", "104318.912000", "104318.920000", "104318.923000", "104318.926000", "104318.929000", "104318.932000", "104318.935000", "104318.938000", "104318.942000", "104318.945000", "104318.948000", "104318.951000", "104318.954000", "104318.957000", "104318.960000", "104318.963000", "104318.966000", "104318.969000", "104318.972000", "104318.975000", "104318.978000", "104318.981000", "104318.984000", "104318.987000", "104318.990000", "104358.909000", "104358.912000", "104358.916000", "104358.919000", "104358.922000", "104358.925000", "104358.928000", "104358.931000", "104358.934000", "104358.937000", "104358.940000", "104358.943000", "104358.946000", "104358.950000", "104358.966000", "104358.969000", "104358.972000", "104358.976000", "104358.979000", "104358.982000", "104358.985000", "104358.992000", "104358.995000", "104358.998000", "104359.001000", "104359.005000", "104438.906000", "104438.910000", "104438.913000", "104438.916000", "104438.919000", "104438.922000", "104438.925000", "104438.928000", "104438.931000", "104438.934000", "104438.937000", "104438.940000", "104438.943000", "104438.947000", "104438.950000", "104438.953000", "104438.956000", "104438.959000", "104438.963000", "104438.966000", "104438.969000", "104438.972000", "104438.975000", "104438.978000", "104438.981000", "104438.984000", "104438.987000", "104518.906000", "104518.909000", "104518.912000", "104518.915000", "104518.919000", "104518.922000", "104518.925000", "104518.928000", "104518.931000", "104518.934000", "104518.937000", "104518.940000", "104518.943000", "104518.946000", "104518.949000", "104518.952000", "104518.956000", "104518.959000", "104518.962000", "104518.965000", "104518.968000", "104518.971000", "104518.974000", "104518.977000", "104518.980000", "104518.983000", "104518.986000", "104558.907000", "104558.910000", "104558.913000", "104558.916000", "104558.919000", "104558.922000", "104558.925000", "104558.928000", "104558.931000", "104558.935000", "104558.938000", "104558.941000", "104558.944000", "104558.947000", "104558.950000", "104558.953000", "104558.956000", "104558.960000", "104558.963000", "104558.966000", "104558.970000", "104558.973000", "104558.976000", "104558.979000", "104558.982000", "104558.985000", "104612.656000", "104612.660000", "104612.664000", "104612.668000", "104612.671000", "104612.675000", "104612.678000", "104612.682000", "104612.686000", "104612.689000"],
      "InstanceNumber": [1, 2, 3, 4, 5, 6, 7, 8, 9, 10, 11, 12, 13, 14, 15, 16, 17, 18, 19, 20, 21, 22, 23, 24, 25, 26, 27, 28, 29, 30, 31, 32, 33, 34, 35, 36, 37, 38, 39, 40, 41, 42, 43, 44, 45, 46, 47, 48, 49, 50, 51, 52, 53, 54, 55, 56, 57, 58, 59, 60, 61, 62, 63, 64, 65, 66, 67, 68, 69, 70, 71, 72, 73, 74, 75, 76, 77, 78, 79, 80, 81, 82, 83, 84, 85, 86, 87, 88, 89, 90, 91, 92, 93, 94, 95, 96, 97, 98, 99, 100, 101, 102, 103, 104, 105, 106, 107, 108, 109, 110, 111, 112, 113, 114, 115, 116, 117, 118, 119, 120, 121, 122, 123, 124, 125, 126, 127, 128, 129, 130, 131, 132, 133, 134, 135, 136, 137, 138, 139, 140, 141, 142, 143, 144, 145, 146, 147, 148, 149, 150, 151, 152, 153, 154, 155, 156, 157, 158, 159, 160, 161, 162, 163, 164],
      "LargestImagePixelValue": [2716, 2616, 2574, 2569, 2557, 2591, 2532, 2534, 2539, 2518, 2529, 2530, 2495, 2489, 2534, 2548, 2527, 2562, 2528, 2506, 2504, 2497, 2529, 2513, 2536, 2554, 2551, 2563, 2579, 2547, 2565, 2564, 2567, 2551, 2619, 2580, 2574, 2616, 2580, 2604, 2586, 2585, 2613, 2596, 2588, 2503, 2631, 2595, 2622, 2607, 2584, 2616, 2611, 2549, 2628, 2621, 2589, 2641, 2553, 2645, 2646, 2630, 2616, 2647, 2619, 2627, 2652, 2600, 2614, 2545, 2608, 2613, 2617, 2622, 2640, 2648, 2645, 2643, 2653, 2632, 2594, 2579, 2634, 2605, 2673, 2647, 2627, 2616, 2604, 2596, 2596, 2627, 2581, 2591, 2607, 2585, 2602, 2609, 2610, 2594, 2606, 2655, 2628, 2673, 2633, 2624, 2621, 2593, 2593, 2616, 2581, 2613, 2673, 2622, 2626, 2613, 2606, 2630, 2591, 2599, 2621, 2626, 2586, 2644, 2650, 2644, 2644, 2635, 2645, 2650, 2670, 2649, 2648, 2671, 2658, 2695, 2674, 2696, 2698, 2669, 2679, 2658, 2700, 2683, 2679, 2713, 2706, 2705, 2668, 2690, 2702, 2697, 2762, 2742, 2730, 2725, 2722, 2718, 2663, 2742, 2718, 2740, 2751, 2769],
      "WindowCenter": [755.0, 753.0, 754.0, 754.0, 753.0, 753.0, 753.0, 752.0, 751.0, 751.0, 751.0, 750.0, 750.0, 750.0, 751.0, 750.0, 750.0, 749.0, 748.0, 747.0, 747.0, 747.0, 747.0, 747.0, 747.0, 748.0, 748.0, 748.0, 749.0, 748.0, 749.0, 748.0, 749.0, 750.0, 750.0, 749.0, 749.0, 749.0, 749.0, 749.0, 749.0, 749.0, 749.0, 749.0, 749.0, 748.0, 750.0, 750.0, 750.0, 750.0, 749.0, 749.0, 749.0, 749.0, 749.0, 750.0, 750.0, 749.0, 750.0, 750.0, 749.0, 749.0, 749.0, 749.0, 749.0, 749.0, 749.0, 749.0, 749.0, 750.0, 751.0, 751.0, 751.0, 750.0, 750.0, 750.0, 750.0, 750.0, 750.0, 749.0, 749.0, 749.0, 749.0, 750.0, 750.0, 750.0, 750.0, 749.0, 748.0, 749.0, 748.0, 748.0, 748.0, 748.0, 747.0, 747.0, 747.0, 748.0, 749.0, 749.0, 749.0, 750.0, 750.0, 751.0, 751.0, 751.0, 751.0, 751.0, 750.0, 750.0, 749.0, 749.0, 749.0, 749.0, 749.0, 749.0, 748.0, 748.0, 748.0, 748.0, 749.0, 750.0, 750.0, 750.0, 751.0, 751.0, 751.0, 751.0, 751.0, 751.0, 752.0, 751.0, 752.0, 752.0, 752.0, 752.0, 751.0, 751.0, 750.0, 750.0, 750.0, 750.0, 751.0, 751.0, 751.0, 751.0, 751.0, 752.0, 752.0, 753.0, 752.0, 752.0, 753.0, 752.0, 752.0, 751.0, 750.0, 749.0, 748.0, 749.0, 750.0, 750.0, 750.0, 750.0],
      "WindowWidth": [1664.0, 1659.0, 1660.0, 1661.0, 1657.0, 1659.0, 1658.0, 1656.0, 1652.0, 1652.0, 1651.0, 1651.0, 1650.0, 1650.0, 1652.0, 1650.0, 1650.0, 1648.0, 1644.0, 1642.0, 1641.0, 1641.0, 1641.0, 1642.0, 1642.0, 1643.0, 1643.0, 1645.0, 1646.0, 1645.0, 1648.0, 1645.0, 1646.0, 1649.0, 1649.0, 1648.0, 1646.0, 1646.0, 1647.0, 1647.0, 1647.0, 1647.0, 1648.0, 1646.0, 1646.0, 1645.0, 1649.0, 1650.0, 1650.0, 1649.0, 1648.0, 1648.0, 1648.0, 1646.0, 1648.0, 1651.0, 1649.0, 1648.0, 1650.0, 1650.0, 1646.0, 1647.0, 1648.0, 1647.0, 1647.0, 1646.0, 1646.0, 1646.0, 1649.0, 1649.0, 1653.0, 1653.0, 1653.0, 1650.0, 1651.0, 1650.0, 1651.0, 1650.0, 1649.0, 1647.0, 1646.0, 1647.0, 1647.0, 1650.0, 1651.0, 1650.0, 1650.0, 1646.0, 1644.0, 1646.0, 1644.0, 1644.0, 1643.0, 1643.0, 1641.0, 1641.0, 1643.0, 1644.0, 1646.0, 1646.0, 1648.0, 1651.0, 1651.0, 1653.0, 1653.0, 1653.0, 1654.0, 1652.0, 1650.0, 1650.0, 1648.0, 1648.0, 1647.0, 1646.0, 1646.0, 1646.0, 1645.0, 1645.0, 1645.0, 1645.0, 1648.0, 1649.0, 1650.0, 1651.0, 1652.0, 1652.0, 1653.0, 1654.0, 1653.0, 1652.0, 1655.0, 1654.0, 1655.0, 1656.0, 1656.0, 1656.0, 1654.0, 1652.0, 1651.0, 1650.0, 1650.0, 1650.0, 1652.0, 1652.0, 1653.0, 1654.0, 1654.0, 1656.0, 1655.0, 1657.0, 1657.0, 1656.0, 1657.0, 1657.0, 1656.0, 1654.0, 1650.0, 1647.0, 1646.0, 1648.0, 1650.0, 1650.0, 1651.0, 1650.0]
    },
    "slices": {}
  }
}