{
  "AcquisitionMatrixPE": 72,
  "AcquisitionNumber": 1,
  "AcquisitionTime": "10:21:58.340000",
  "BandwidthPerPixelPhaseEncode": 17.943,
  "BaseResolution": 96,
  "BodyPartExamined": "BRAIN",
  "CoilCombinationMethod": "Sum of Squares",
  "ConsistencyInfo": "N4_VE11C_LATEST_20160120",
  "ConversionSoftware": "dcm2niix",
  "ConversionSoftwareVersion": "v1.0.20211006",
  "DerivedVendorReportedEchoSpacing": 0.000552897,
  "DeviceSerialNumber": "166011",
  "DwellTime": 2.3e-06,
  "EchoTime": 0.03,
  "EchoTrainLength": 58,
  "EffectiveEchoSpacing": 0.000580542,
  "FlipAngle": 62,
  "ImageOrientationPatientDICOM": [0.996802, -0.0720543, 0.0345567, 0.0763497, 0.986392, -0.145611],
  "ImageOrientationText": "Tra>Cor(-8.5)>Sag(1.4)",
  "ImageType": [
    "ORIGINAL",
    "PRIMARY",
    "M",
    "ND",
    "MOSAIC"
],
  "ImagingFrequency": 123.26,
  "InPlanePhaseEncodingDirectionDICOM": "COL",
  "InstitutionAddress": "West 130th Street 610,NY,NYC,US,10025",
  "InstitutionName": "MBBI",
  "InstitutionalDepartmentName": "Department",
  "MRAcquisitionType": "2D",
  "MagneticFieldStrength": 3,
  "Manufacturer": "Siemens",
  "ManufacturersModelName": "Prisma",
  "Modality": "MR",
  "MultibandAccelerationFactor": 3,
  "PartialFourier": 0.75,
  "PatientPosition": "HFS",
  "PercentPhaseFOV": 100,
  "PercentSampling": 75,
  "PhaseEncodingDirection": "j-",
  "PhaseEncodingSteps": 58,
  "PhaseOversampling": 0.05,
  "PhaseResolution": 0.75,
  "PixelBandwidth": 2265,
  "ProcedureStepDescription": "White^Word_recognition",
  "ProtocolName": "func_vwfate_run2",
  "PulseSequenceDetails": "%SiemensSeq%\\ep2d_bold",
  "ReceiveCoilActiveElements": "HC1-6",
  "ReceiveCoilName": "HeadNeck_64",
  "ReconMatrixPE": 96,
  "RefLinesPE": 40,
  "RepetitionTime": 1.5,
  "SAR": 0.0502848,
  "ScanOptions": "PFP\\FS",
  "ScanningSequence": "EP",
  "SequenceName": "*epfid2d1_72",
  "SequenceVariant": "SK\\OSP",
  "SeriesDescription": "func_vwfate_run2",
  "SeriesNumber": 9,
  "ShimSetting": [-1131, -1345, 679, 584, -72, 81, -144, -43],
  "SliceThickness": 2,
  "SliceTiming": [1.0775, 0, 0.74, 0.0675, 0.8075, 0.135, 0.875, 0.2025, 0.9425, 0.27, 1.01, 0.405, 1.145, 0.4725, 1.21, 0.5375, 1.2775, 0.605, 1.345, 0.6725, 1.4125, 0.3375, 1.0775, 0, 0.74, 0.0675, 0.8075, 0.135, 0.875, 0.2025, 0.9425, 0.27, 1.01, 0.405, 1.145, 0.4725, 1.21, 0.5375, 1.2775, 0.605, 1.345, 0.6725, 1.4125, 0.3375, 1.0775, 0, 0.74, 0.0675, 0.8075, 0.135, 0.875, 0.2025, 0.9425, 0.27, 1.01, 0.405, 1.145, 0.4725, 1.21, 0.5375, 1.2775, 0.605, 1.345, 0.6725, 1.4125, 0.3375],
  "SoftwareVersions": "syngo MR E11",
  "SpacingBetweenSlices": 2,
  "StationName": "AWP166011",
  "TaskName": "vwfate",
  "TotalReadoutTime": 0.0551515,
  "TxRefAmp": 207.842,
  "dcmmeta_affine": [
    [-1.9936038255691528, 0.15269942581653595, 0.04718918725848198, 92.0904769897461],
    [0.14410851895809174, 1.972783088684082, -0.2955666184425354, -72.71781158447266],
    [0.06911344081163406, 0.2912212014198303, 1.9774765968322754, -63.95372772216797],
    [0.0, 0.0, 0.0, 1.0]
],
  "dcmmeta_reorient_transform": [
    [0.0, -1.0, 0.0, 95.0],
    [1.0, 0.0, 0.0, 0.0],
    [0.0, 0.0, 1.0, 0.0],
    [0.0, 0.0, 0.0, 1.0]
],
  "dcmmeta_shape": [96, 96, 66, 164],
  "dcmmeta_slice_dim": 2,
  "dcmmeta_version": 0.6,
  "global": {
    "const": {
      "AcquisitionMatrix": [96, 0, 0, 72],
      "AngioFlag": "N",
      "BitsAllocated": 16,
      "BitsStored": 12,
      "BodyPartExamined": "BRAIN",
      "Columns": 864,
      "EchoNumbers": 1,
      "EchoTime": 30.0,
      "EchoTrainLength": 58,
      "FlipAngle": 62.0,
      "HighBit": 11,
      "ImageOrientationPatient": [0.99680189436634, -0.0720542599283, 0.03455672168867, 0.07634971191025, 0.98639154282607, -0.1456105962231],
      "ImagePositionPatient": [-930.77735916086, -816.90761277158, 49.001660726363],
      "ImageType": [
        "ORIGINAL",
        "PRIMARY",
        "M",
        "ND",
        "MOSAIC"
],
      "ImagedNucleus": "1H",
      "ImagingFrequency": 123.259513,
      "InPlanePhaseEncodingDirection": "COL",
      "MRAcquisitionType": "2D",
      "MagneticFieldStrength": 3.0,
      "Manufacturer": "SIEMENS",
      "ManufacturerModelName": "Prisma",
      "Modality": "MR",
      "NumberOfAverages": 1.0,
      "NumberOfPhaseEncodingSteps": 58,
      "PercentPhaseFieldOfView": 100.0,
      "PercentSampling": 75.0,
      "PerformedProcedureStepStartTime": "095945.114000",
      "PhotometricInterpretation": "MONOCHROME2",
      "PixelBandwidth": 2265.0,
      "PixelRepresentation": 0,
      "PixelSpacing": [2.0, 2.0],
      "ProtocolName": "func_vwfate_run2",
      "RepetitionTime": 1500.0,
      "Rows": 864,
      "SAR": 0.05028475820587,
      "SamplesPerPixel": 1,
      "ScanOptions": [
        "PFP",
        "FS"
],
      "ScanningSequence": "EP",
      "SequenceName": "*epfid2d1_72",
      "SequenceVariant": [
        "SK",
        "OSP"
],
      "SeriesDescription": "func_vwfate_run2",
      "SeriesNumber": 9,
      "SeriesTime": "102238.907000",
      "SliceLocation": -50.314182251615,
      "SliceThickness": 2.0,
      "SmallestImagePixelValue": 0,
      "SoftwareVersions": "syngo MR E11",
      "SpacingBetweenSlices": 2.000000000869,
      "SpecificCharacterSet": "ISO_IR 100",
      "StudyID": "1",
      "StudyTime": "095945.028000",
      "TransmitCoilName": "Body",
      "VariableFlipAngleFlag": "N",
      "WindowCenterWidthExplanation": "Algo1",
      "dBdt": 0.0},
    "slices": {}
  },
  "time": {
    "samples": {
      "AcquisitionNumber": [1, 2, 3, 4, 5, 6, 7, 8, 9, 10, 11, 12, 13, 14, 15, 16, 17, 18, 19, 20, 21, 22, 23, 24, 25, 26, 27, 28, 29, 30, 31, 32, 33, 34, 35, 36, 37, 38, 39, 40, 41, 42, 43, 44, 45, 46, 47, 48, 49, 50, 51, 52, 53, 54, 55, 56, 57, 58, 59, 60, 61, 62, 63, 64, 65, 66, 67, 68, 69, 70, 71, 72, 73, 74, 75, 76, 77, 78, 79, 80, 81, 82, 83, 84, 85, 86, 87, 88, 89, 90, 91, 92, 93, 94, 95, 96, 97, 98, 99, 100, 101, 102, 103, 104, 105, 106, 107, 108, 109, 110, 111, 112, 113, 114, 115, 116, 117, 118, 119, 120, 121, 122, 123, 124, 125, 126, 127, 128, 129, 130, 131, 132, 133, 134, 135, 136, 137, 138, 139, 140, 141, 142, 143, 144, 145, 146, 147, 148, 149, 150, 151, 152, 153, 154, 155, 156, 157, 158, 159, 160, 161, 162, 163, 164],
      "AcquisitionTime": ["102158.340000", "102159.840000", "102201.340000", "102202.840000", "102204.340000", "102205.840000", "102207.340000", "102208.840000", "102210.340000", "102211.840000", "102213.340000", "102214.840000", "102216.340000", "102217.840000", "102219.340000", "102220.840000", "102222.340000", "102223.840000", "102225.340000", "102226.840000", "102228.340000", "102229.840000", "102231.340000", "102232.840000", "102234.340000", "102235.840000", "102237.340000", "102238.840000", "102240.340000", "102241.840000", "102243.340000", "102244.840000", "102246.340000", "102247.840000", "102249.340000", "102250.840000", "102252.340000", "102253.840000", "102255.340000", "102256.840000", "102258.340000", "102259.840000", "102301.340000", "102302.840000", "102304.340000", "102305.840000", "102307.340000", "102308.840000", "102310.340000", "102311.840000", "102313.340000", "102314.840000", "102316.340000", "102317.840000", "102319.340000", "102320.840000", "102322.340000", "102323.840000", "102325.340000", "102326.840000", "102328.340000", "102329.840000", "102331.340000", "102332.840000", "102334.340000", "102335.840000", "102337.340000", "102338.840000", "102340.340000", "102341.840000", "102343.340000", "102344.840000", "102346.340000", "102347.840000", "102349.340000", "102350.840000", "102352.340000", "102353.840000", "102355.340000", "102356.840000", "102358.340000", "102359.840000", "102401.340000", "102402.840000", "102404.340000", "102405.840000", "102407.340000", "102408.840000", "102410.340000", "102411.840000", "102413.340000", "102414.840000", "102416.340000", "102417.840000", "102419.340000", "102420.840000", "102422.340000", "102423.840000", "102425.340000", "102426.840000", "102428.340000", "102429.840000", "102431.340000", "102432.840000", "102434.340000", "102435.840000", "102437.340000", "102438.840000", "102440.340000", "102441.840000", "102443.340000", "102444.840000", "102446.340000", "102447.840000", "102449.340000", "102450.840000", "102452.340000", "102453.840000", "102455.340000", "102456.840000", "102458.340000", "102459.840000", "102501.340000", "102502.840000", "102504.340000", "102505.840000", "102507.340000", "102508.840000", "102510.340000", "102511.840000", "102513.340000", "102514.840000", "102516.340000", "102517.840000", "102519.340000", "102520.840000", "102522.340000", "102523.840000", "102525.340000", "102526.840000", "102528.340000", "102529.840000", "102531.340000", "102532.840000", "102534.340000", "102535.840000", "102537.340000", "102538.840000", "102540.340000", "102541.840000", "102543.340000", "102544.840000", "102546.340000", "102547.840000", "102549.340000", "102550.840000", "102552.340000", "102553.840000", "102555.340000", "102556.840000", "102558.340000", "102559.840000", "102601.340000", "102602.840000"],
      "ContentTime": ["102238.911000", "102238.915000", "102238.930000", "102238.933000", "102238.936000", "102238.942000", "102238.945000", "102238.953000", "102238.956000", "102238.959000", "102238.962000", "102238.965000", "102238.968000", "102238.971000", "102238.975000", "102238.977000", "102238.980000", "102238.983000", "102238.987000", "102238.990000", "102238.993000", "102238.996000", "102239.000000", "102239.003000", "102239.007000", "102239.010000", "102239.013000", "102318.907000", "102318.910000", "102318.913000", "102318.916000", "102318.919000", "102318.922000", "102318.925000", "102318.928000", "102318.932000", "102318.935000", "102318.938000", "102318.941000", "102318.944000", "102318.947000", "102318.950000", "102318.953000", "102318.956000", "102318.966000", "102318.969000", "102318.972000", "102318.975000", "102318.978000", "102318.981000", "102318.984000", "102318.988000", "102318.991000", "102318.994000", "102358.906000", "102358.909000", "102358.912000", "102358.915000", "102358.918000", "102358.921000", "102358.925000", "102358.928000", "102358.931000", "102358.934000", "102358.937000", "102358.941000", "102358.944000", "102358.947000", "102358.950000", "102358.953000", "102358.956000", "102358.959000", "102358.962000", "102358.965000", "102358.968000", "102358.971000", "102358.974000", "102358.977000", "102358.980000", "102358.983000", "102438.906000", "102438.909000", "102438.912000", "102438.915000", "102438.918000", "102438.921000", "102438.924000", "102438.928000", "102438.931000", "102438.934000", "102438.937000", "102438.940000", "102438.943000", "102438.946000", "102438.949000", "102438.952000", "102438.955000", "102438.958000", "102438.961000", "102438.964000", "102438.967000", "102438.970000", "102438.973000", "102438.976000", "102438.979000", "102438.982000", "102438.985000", "102518.906000", "102518.909000", "102518.912000", "102518.915000", "102518.918000", "102518.921000", "102518.924000", "102518.927000", "102518.931000", "102518.934000", "102518.937000", "102518.940000", "102518.943000", "102518.946000", "102518.949000", "102518.952000", "102518.955000", "102518.958000", "102518.961000", "102518.964000", "102518.967000", "102518.970000", "102518.973000", "102518.976000", "102518.979000", "102518.982000", "102518.985000", "102558.906000", "102558.909000", "102558.912000", "102558.915000", "102558.918000", "102558.921000", "102558.925000", "102558.928000", "102558.931000", "102558.934000", "102558.937000", "102558.940000", "102558.943000", "102558.946000", "102558.949000", "102558.962000", "102558.965000", "102558.968000", "102558.971000", "102558.974000", "102558.977000", "102558.980000", "102558.983000", "102558.986000", "102558.989000", "102558.997000", "102603.543000", "102603.546000", "102603.550000", "102603.553000"],
      "InstanceCreationTime": ["102238.911000", "102238.915000", "102238.930000", "102238.933000", "102238.936000", "102238.942000", "102238.945000", "102238.953000", "102238.956000", "102238.959000", "102238.962000", "102238.965000", "102238.968000", "102238.971000", "102238.975000", "102238.977000", "102238.980000", "102238.983000", "102238.987000", "102238.990000", "102238.993000", "102238.996000", "102239.000000", "102239.003000", "102239.007000", "102239.010000", "102239.013000", "102318.907000", "102318.910000", "102318.913000", "102318.916000", "102318.919000", "102318.922000", "102318.925000", "102318.928000", "102318.932000", "102318.935000", "102318.938000", "102318.941000", "102318.944000", "102318.947000", "102318.950000", "102318.953000", "102318.956000", "102318.966000", "102318.969000", "102318.972000", "102318.975000", "102318.978000", "102318.981000", "102318.984000", "102318.988000", "102318.991000", "102318.994000", "102358.906000", "102358.909000", "102358.912000", "102358.915000", "102358.918000", "102358.921000", "102358.925000", "102358.928000", "102358.931000", "102358.934000", "102358.937000", "102358.941000", "102358.944000", "102358.947000", "102358.950000", "102358.953000", "102358.956000", "102358.959000", "102358.962000", "102358.965000", "102358.968000", "102358.971000", "102358.974000", "102358.977000", "102358.980000", "102358.983000", "102438.906000", "102438.909000", "102438.912000", "102438.915000", "102438.918000", "102438.921000", "102438.924000", "102438.928000", "102438.931000", "102438.934000", "102438.937000", "102438.940000", "102438.943000", "102438.946000", "102438.949000", "102438.952000", "102438.955000", "102438.958000", "102438.961000", "102438.964000", "102438.967000", "102438.970000", "102438.973000", "102438.976000", "102438.979000", "102438.982000", "102438.985000", "102518.906000", "102518.909000", "102518.912000", "102518.915000", "102518.918000", "102518.921000", "102518.924000", "102518.927000", "102518.931000", "102518.934000", "102518.937000", "102518.940000", "102518.943000", "102518.946000", "102518.949000", "102518.952000", "102518.955000", "102518.958000", "102518.961000", "102518.964000", "102518.967000", "102518.970000", "102518.973000", "102518.976000", "102518.979000", "102518.982000", "102518.985000", "102558.906000", "102558.909000", "102558.912000", "102558.915000", "102558.918000", "102558.921000", "102558.925000", "102558.928000", "102558.931000", "102558.934000", "102558.937000", "102558.940000", "102558.943000", "102558.946000", "102558.949000", "102558.962000", "102558.965000", "102558.968000", "102558.971000", "102558.974000", "102558.977000", "102558.980000", "102558.983000", "102558.986000", "102558.989000", "102558.997000", "102603.543000", "102603.546000", "102603.550000", "102603.553000"],
      "InstanceNumber": [1, 2, 3, 4, 5, 6, 7, 8, 9, 10, 11, 12, 13, 14, 15, 16, 17, 18, 19, 20, 21, 22, 23, 24, 25, 26, 27, 28, 29, 30, 31, 32, 33, 34, 35, 36, 37, 38, 39, 40, 41, 42, 43, 44, 45, 46, 47, 48, 49, 50, 51, 52, 53, 54, 55, 56, 57, 58, 59, 60, 61, 62, 63, 64, 65, 66, 67, 68, 69, 70, 71, 72, 73, 74, 75, 76, 77, 78, 79, 80, 81, 82, 83, 84, 85, 86, 87, 88, 89, 90, 91, 92, 93, 94, 95, 96, 97, 98, 99, 100, 101, 102, 103, 104, 105, 106, 107, 108, 109, 110, 111, 112, 113, 114, 115, 116, 117, 118, 119, 120, 121, 122, 123, 124, 125, 126, 127, 128, 129, 130, 131, 132, 133, 134, 135, 136, 137, 138, 139, 140, 141, 142, 143, 144, 145, 146, 147, 148, 149, 150, 151, 152, 153, 154, 155, 156, 157, 158, 159, 160, 161, 162, 163, 164],
      "LargestImagePixelValue": [2830, 2798, 2789, 2783, 2738, 2734, 2773, 2720, 2762, 2732, 2717, 2711, 2630, 2640, 2643, 2658, 2662, 2663, 2647, 2622, 2672, 2666, 2699, 2718, 2757, 2707, 2639, 2604, 2624, 2616, 2599, 2632, 2637, 2637, 2669, 2645, 2650, 2659, 2722, 2683, 2660, 2625, 2624, 2608, 2668, 2630, 2641, 2675, 2672, 2672, 2620, 2661, 2688, 2637, 2648, 2633, 2625, 2648, 2646, 2616, 2652, 2641, 2677, 2656, 2639, 2673, 2644, 2676, 2626, 2725, 2741, 2751, 2752, 2748, 2633, 2627, 2613, 2598, 2590, 2591, 2604, 2597, 2595, 2629, 2626, 2618, 2640, 2678, 2710, 2683, 2680, 2592, 2623, 2660, 2660, 2689, 2689, 2688, 2732, 2751, 2711, 2722, 2702, 2755, 2727, 2685, 2723, 2654, 2667, 2650, 2623, 2598, 2611, 2606, 2597, 2599, 2584, 2581, 2624, 2612, 2651, 2692, 2682, 2727, 2747, 2771, 2804, 2727, 2693, 2664, 2641, 2617, 2629, 2611, 2637, 2658, 2713, 2705, 2709, 2668, 2665, 2627, 2620, 2619, 2624, 2612, 2624, 2641, 2706, 2719, 2728, 2757, 2721, 2698, 2690, 2668, 2627, 2612, 2613, 2601, 2619, 2647, 2614, 2669],
      "WindowCenter": [767.0, 766.0, 766.0, 766.0, 766.0, 765.0, 766.0, 766.0, 766.0, 765.0, 765.0, 764.0, 763.0, 762.0, 762.0, 762.0, 762.0, 763.0, 762.0, 762.0, 763.0, 764.0, 765.0, 766.0, 765.0, 764.0, 762.0, 761.0, 760.0, 760.0, 760.0, 760.0, 760.0, 760.0, 761.0, 761.0, 761.0, 761.0, 762.0, 763.0, 762.0, 762.0, 762.0, 763.0, 764.0, 763.0, 762.0, 763.0, 762.0, 762.0, 761.0, 762.0, 762.0, 763.0, 762.0, 761.0, 761.0, 761.0, 761.0, 762.0, 762.0, 762.0, 762.0, 761.0, 761.0, 761.0, 761.0, 762.0, 762.0, 764.0, 764.0, 764.0, 764.0, 762.0, 761.0, 760.0, 759.0, 758.0, 758.0, 758.0, 757.0, 757.0, 758.0, 759.0, 760.0, 761.0, 762.0, 763.0, 763.0, 763.0, 763.0, 762.0, 762.0, 762.0, 763.0, 763.0, 764.0, 764.0, 765.0, 764.0, 764.0, 763.0, 763.0, 763.0, 763.0, 763.0, 763.0, 763.0, 763.0, 762.0, 761.0, 761.0, 760.0, 760.0, 760.0, 760.0, 760.0, 761.0, 762.0, 763.0, 764.0, 765.0, 765.0, 765.0, 765.0, 765.0, 765.0, 765.0, 765.0, 765.0, 764.0, 764.0, 763.0, 763.0, 763.0, 764.0, 764.0, 764.0, 765.0, 764.0, 764.0, 763.0, 762.0, 761.0, 761.0, 761.0, 762.0, 762.0, 763.0, 764.0, 765.0, 766.0, 765.0, 764.0, 764.0, 763.0, 762.0, 762.0, 762.0, 761.0, 760.0, 759.0, 759.0, 760.0],
      "WindowWidth": [1704.0, 1700.0, 1698.0, 1698.0, 1698.0, 1697.0, 1698.0, 1698.0, 1698.0, 1696.0, 1695.0, 1693.0, 1689.0, 1687.0, 1686.0, 1687.0, 1687.0, 1689.0, 1687.0, 1687.0, 1691.0, 1692.0, 1695.0, 1698.0, 1695.0, 1691.0, 1687.0, 1683.0, 1680.0, 1679.0, 1680.0, 1680.0, 1679.0, 1681.0, 1684.0, 1683.0, 1683.0, 1685.0, 1687.0, 1688.0, 1687.0, 1686.0, 1687.0, 1688.0, 1692.0, 1689.0, 1687.0, 1688.0, 1687.0, 1687.0, 1684.0, 1686.0, 1688.0, 1688.0, 1685.0, 1683.0, 1682.0, 1683.0, 1683.0, 1686.0, 1685.0, 1686.0, 1687.0, 1684.0, 1682.0, 1683.0, 1684.0, 1686.0, 1687.0, 1691.0, 1691.0, 1694.0, 1691.0, 1687.0, 1683.0, 1680.0, 1678.0, 1675.0, 1673.0, 1673.0, 1672.0, 1672.0, 1675.0, 1677.0, 1680.0, 1683.0, 1686.0, 1689.0, 1690.0, 1689.0, 1688.0, 1686.0, 1687.0, 1688.0, 1689.0, 1691.0, 1692.0, 1694.0, 1695.0, 1693.0, 1691.0, 1690.0, 1690.0, 1689.0, 1690.0, 1689.0, 1689.0, 1689.0, 1689.0, 1686.0, 1684.0, 1682.0, 1681.0, 1680.0, 1680.0, 1681.0, 1682.0, 1683.0, 1686.0, 1688.0, 1693.0, 1696.0, 1696.0, 1695.0, 1695.0, 1697.0, 1696.0, 1696.0, 1695.0, 1694.0, 1693.0, 1691.0, 1691.0, 1689.0, 1689.0, 1692.0, 1694.0, 1694.0, 1695.0, 1692.0, 1692.0, 1690.0, 1688.0, 1684.0, 1684.0, 1684.0, 1685.0, 1687.0, 1690.0, 1692.0, 1696.0, 1698.0, 1696.0, 1694.0, 1691.0, 1691.0, 1687.0, 1686.0, 1686.0, 1682.0, 1679.0, 1678.0, 1677.0, 1680.0]
    },
    "slices": {}
  }
}