{
  "AcquisitionMatrixPE": 72,
  "AcquisitionNumber": 1,
  "AcquisitionTime": "18:28:8.580000",
  "BandwidthPerPixelPhaseEncode": 17.943,
  "BaseResolution": 96,
  "BodyPartExamined": "BRAIN",
  "CoilCombinationMethod": "Sum of Squares",
  "ConsistencyInfo": "N4_VE11C_LATEST_20160120",
  "ConversionSoftware": "dcm2niix",
  "ConversionSoftwareVersion": "v1.0.20211006",
  "DerivedVendorReportedEchoSpacing": 0.000552897,
  "DeviceSerialNumber": "166011",
  "EchoTime": 0.03,
  "EchoTrainLength": 58,
  "EffectiveEchoSpacing": 0.000580542,
  "FlipAngle": 62,
  "ImageOrientationPatientDICOM": [0.998183, 0.0178568, 0.0575566, -0.0174234, 0.999816, -0.00802286],
  "ImageType": [
    "ORIGINAL",
    "PRIMARY",
    "M",
    "ND",
    "MOSAIC"
],
  "ImagingFrequency": 123.259,
  "InPlanePhaseEncodingDirectionDICOM": "COL",
  "InstitutionAddress": "West 130th Street 610,NY,NYC,US,10025",
  "InstitutionName": "MBBI",
  "MRAcquisitionType": "2D",
  "MagneticFieldStrength": 3,
  "Manufacturer": "Siemens",
  "ManufacturersModelName": "Prisma",
  "Modality": "MR",
  "MultibandAccelerationFactor": 3,
  "PartialFourier": 0.75,
  "PatientPosition": "HFS",
  "PercentPhaseFOV": 100,
  "PercentSampling": 75,
  "PhaseEncodingDirection": "j-",
  "PhaseEncodingSteps": 58,
  "PhaseOversampling": 0.05,
  "PhaseResolution": 0.75,
  "PixelBandwidth": 2265,
  "ProcedureStepDescription": "White^Word_recognition",
  "ProtocolName": "func_vwfate_run14",
  "PulseSequenceDetails": "%SiemensSeq%\\ep2d_bold",
  "ReceiveCoilActiveElements": "HC1-7",
  "ReceiveCoilName": "HeadNeck_64",
  "ReconMatrixPE": 96,
  "RefLinesPE": 40,
  "RepetitionTime": 1.5,
  "SAR": 0.0501462,
  "ScanOptions": "PFP\\FS",
  "ScanningSequence": "EP",
  "SequenceName": "*epfid2d1_72",
  "SequenceVariant": "SK\\OSP",
  "SeriesDescription": "func_vwfate_run14",
  "SeriesNumber": 9,
  "ShimSetting": [-1136, -1386, 689, 581, -71, -103, -44, -18],
  "SliceThickness": 2,
  "SliceTiming": [1.075, 0, 0.74, 0.065, 0.805, 0.1325, 0.8725, 0.2, 0.94, 0.2675, 1.0075, 0.4025, 1.1425, 0.47, 1.21, 0.5375, 1.2775, 0.605, 1.345, 0.6725, 1.4125, 0.335, 1.075, 0, 0.74, 0.065, 0.805, 0.1325, 0.8725, 0.2, 0.94, 0.2675, 1.0075, 0.4025, 1.1425, 0.47, 1.21, 0.5375, 1.2775, 0.605, 1.345, 0.6725, 1.4125, 0.335, 1.075, 0, 0.74, 0.065, 0.805, 0.1325, 0.8725, 0.2, 0.94, 0.2675, 1.0075, 0.4025, 1.1425, 0.47, 1.21, 0.5375, 1.2775, 0.605, 1.345, 0.6725, 1.4125, 0.335],
  "SoftwareVersions": "syngo MR E11",
  "SpacingBetweenSlices": 2,
  "StationName": "AWP166011",
  "TaskName": "vwfate",
  "TotalReadoutTime": 0.0551515,
  "TxRefAmp": 217.565,
  "dcmmeta_affine": [
    [-1.9963650703430176, -0.03484679013490677, 0.11537857353687286, 97.50405883789062],
    [-0.0357135646045208, 1.9996320009231567, -0.014010893180966377, -75.61785888671875],
    [0.11511322855949402, 0.016045719385147095, 1.9966200590133667, -46.63097381591797],
    [0.0, 0.0, 0.0, 1.0]
],
  "dcmmeta_reorient_transform": [
    [0.0, -1.0, 0.0, 95.0],
    [1.0, 0.0, 0.0, 0.0],
    [0.0, 0.0, 1.0, 0.0],
    [0.0, 0.0, 0.0, 1.0]
],
  "dcmmeta_shape": [96, 96, 66, 164],
  "dcmmeta_slice_dim": 2,
  "dcmmeta_version": 0.6,
  "global": {
    "const": {
      "AcquisitionMatrix": [96, 0, 0, 72],
      "AngioFlag": "N",
      "BitsAllocated": 16,
      "BitsStored": 12,
      "BodyPartExamined": "BRAIN",
      "Columns": 864,
      "EchoNumbers": 1,
      "EchoTime": 30.0,
      "EchoTrainLength": 58,
      "FlipAngle": 62.0,
      "HighBit": 11,
      "ImageOrientationPatient": [0.99818253404803, 0.01785678245405, 0.05755661596935, -0.0174233948182, 0.99981601259405, -0.0080228594372],
      "ImagePositionPatient": [-847.41663029879, -895.91988772551, -83.148556482428],
      "ImageType": [
        "ORIGINAL",
        "PRIMARY",
        "M",
        "ND",
        "MOSAIC"
],
      "ImagedNucleus": "1H",
      "ImagingFrequency": 123.259488,
      "InPlanePhaseEncodingDirection": "COL",
      "MRAcquisitionType": "2D",
      "MagneticFieldStrength": 3.0,
      "Manufacturer": "SIEMENS",
      "ManufacturerModelName": "Prisma",
      "Modality": "MR",
      "NumberOfAverages": 1.0,
      "NumberOfPhaseEncodingSteps": 58,
      "PercentPhaseFieldOfView": 100.0,
      "PercentSampling": 75.0,
      "PerformedProcedureStepStartTime": "180110.988000",
      "PhotometricInterpretation": "MONOCHROME2",
      "PixelBandwidth": 2265.0,
      "PixelRepresentation": 0,
      "PixelSpacing": [2.0, 2.0],
      "ProtocolName": "func_vwfate_run14",
      "RepetitionTime": 1500.0,
      "Rows": 864,
      "SAR": 0.05014620304514,
      "SamplesPerPixel": 1,
      "ScanOptions": [
        "PFP",
        "FS"
],
      "ScanningSequence": "EP",
      "SequenceName": "*epfid2d1_72",
      "SequenceVariant": [
        "SK",
        "OSP"
],
      "SeriesDescription": "func_vwfate_run14",
      "SeriesNumber": 9,
      "SeriesTime": "182839.003000",
      "SliceLocation": -40.397492184313,
      "SliceThickness": 2.0,
      "SmallestImagePixelValue": 0,
      "SoftwareVersions": "syngo MR E11",
      "SpacingBetweenSlices": 1.9999999885712,
      "SpecificCharacterSet": "ISO_IR 100",
      "StudyID": "3",
      "StudyTime": "180110.867000",
      "TransmitCoilName": "Body",
      "VariableFlipAngleFlag": "N",
      "WindowCenterWidthExplanation": "Algo1",
      "dBdt": 0.0},
    "slices": {}
  },
  "time": {
    "samples": {
      "AcquisitionNumber": [1, 2, 3, 4, 5, 6, 7, 8, 9, 10, 11, 12, 13, 14, 15, 16, 17, 18, 19, 20, 21, 22, 23, 24, 25, 26, 27, 28, 29, 30, 31, 32, 33, 34, 35, 36, 37, 38, 39, 40, 41, 42, 43, 44, 45, 46, 47, 48, 49, 50, 51, 52, 53, 54, 55, 56, 57, 58, 59, 60, 61, 62, 63, 64, 65, 66, 67, 68, 69, 70, 71, 72, 73, 74, 75, 76, 77, 78, 79, 80, 81, 82, 83, 84, 85, 86, 87, 88, 89, 90, 91, 92, 93, 94, 95, 96, 97, 98, 99, 100, 101, 102, 103, 104, 105, 106, 107, 108, 109, 110, 111, 112, 113, 114, 115, 116, 117, 118, 119, 120, 121, 122, 123, 124, 125, 126, 127, 128, 129, 130, 131, 132, 133, 134, 135, 136, 137, 138, 139, 140, 141, 142, 143, 144, 145, 146, 147, 148, 149, 150, 151, 152, 153, 154, 155, 156, 157, 158, 159, 160, 161, 162, 163, 164],
      "AcquisitionTime": ["182808.580000", "182810.080000", "182811.580000", "182813.080000", "182814.580000", "182816.080000", "182817.580000", "182819.080000", "182820.580000", "182822.080000", "182823.580000", "182825.080000", "182826.580000", "182828.080000", "182829.580000", "182831.080000", "182832.580000", "182834.080000", "182835.580000", "182837.080000", "182838.580000", "182840.080000", "182841.580000", "182843.080000", "182844.580000", "182846.080000", "182847.580000", "182849.080000", "182850.580000", "182852.080000", "182853.580000", "182855.080000", "182856.580000", "182858.080000", "182859.580000", "182901.080000", "182902.580000", "182904.080000", "182905.580000", "182907.080000", "182908.580000", "182910.080000", "182911.580000", "182913.080000", "182914.580000", "182916.080000", "182917.580000", "182919.080000", "182920.580000", "182922.080000", "182923.580000", "182925.080000", "182926.580000", "182928.080000", "182929.580000", "182931.080000", "182932.580000", "182934.080000", "182935.580000", "182937.080000", "182938.580000", "182940.080000", "182941.580000", "182943.080000", "182944.580000", "182946.080000", "182947.580000", "182949.080000", "182950.580000", "182952.080000", "182953.580000", "182955.080000", "182956.580000", "182958.080000", "182959.580000", "183001.080000", "183002.580000", "183004.080000", "183005.580000", "183007.080000", "183008.580000", "183010.080000", "183011.580000", "183013.080000", "183014.580000", "183016.080000", "183017.580000", "183019.080000", "183020.580000", "183022.080000", "183023.580000", "183025.080000", "183026.580000", "183028.080000", "183029.580000", "183031.080000", "183032.580000", "183034.080000", "183035.580000", "183037.080000", "183038.580000", "183040.080000", "183041.580000", "183043.080000", "183044.580000", "183046.080000", "183047.580000", "183049.080000", "183050.580000", "183052.080000", "183053.580000", "183055.080000", "183056.580000", "183058.080000", "183059.580000", "183101.080000", "183102.580000", "183104.080000", "183105.580000", "183107.080000", "183108.580000", "183110.080000", "183111.580000", "183113.080000", "183114.580000", "183116.080000", "183117.580000", "183119.080000", "183120.580000", "183122.080000", "183123.580000", "183125.080000", "183126.580000", "183128.080000", "183129.580000", "183131.080000", "183132.580000", "183134.080000", "183135.580000", "183137.080000", "183138.580000", "183140.080000", "183141.580000", "183143.080000", "183144.580000", "183146.080000", "183147.580000", "183149.080000", "183150.580000", "183152.080000", "183153.580000", "183155.080000", "183156.580000", "183158.080000", "183159.580000", "183201.080000", "183202.580000", "183204.080000", "183205.580000", "183207.080000", "183208.580000", "183210.080000", "183211.580000", "183213.080000"],
      "ContentTime": ["182839.007000", "182839.011000", "182839.014000", "182839.017000", "182839.020000", "182839.023000", "182839.026000", "182839.029000", "182839.032000", "182839.035000", "182839.038000", "182839.042000", "182839.045000", "182839.054000", "182839.057000", "182839.061000", "182839.064000", "182839.067000", "182839.070000", "182839.073000", "182919.002000", "182919.005000", "182919.009000", "182919.012000", "182919.015000", "182919.019000", "182919.027000", "182919.030000", "182919.033000", "182919.036000", "182919.039000", "182919.042000", "182919.045000", "182919.048000", "182919.051000", "182919.054000", "182919.057000", "182919.061000", "182919.064000", "182919.067000", "182919.071000", "182919.075000", "182919.078000", "182919.081000", "182919.085000", "182919.088000", "182919.091000", "182959.002000", "182959.006000", "182959.009000", "182959.012000", "182959.015000", "182959.018000", "182959.022000", "182959.025000", "182959.028000", "182959.031000", "182959.034000", "182959.037000", "182959.040000", "182959.043000", "182959.046000", "182959.049000", "182959.052000", "182959.055000", "182959.058000", "182959.061000", "182959.064000", "182959.071000", "182959.074000", "182959.078000", "182959.080000", "182959.083000", "183039.002000", "183039.006000", "183039.009000", "183039.016000", "183039.019000", "183039.022000", "183039.025000", "183039.028000", "183039.031000", "183039.034000", "183039.037000", "183039.040000", "183039.043000", "183039.046000", "183039.050000", "183039.053000", "183039.056000", "183039.061000", "183039.064000", "183039.067000", "183039.070000", "183039.073000", "183039.076000", "183039.079000", "183039.082000", "183039.085000", "183039.088000", "183119.002000", "183119.006000", "183119.009000", "183119.012000", "183119.015000", "183119.018000", "183119.021000", "183119.024000", "183119.027000", "183119.030000", "183119.033000", "183119.036000", "183119.039000", "183119.043000", "183119.046000", "183119.050000", "183119.053000", "183119.057000", "183119.060000", "183119.064000", "183119.067000", "183119.070000", "183119.073000", "183119.076000", "183119.079000", "183119.082000", "183119.085000", "183159.003000", "183159.007000", "183159.010000", "183159.013000", "183159.016000", "183159.020000", "183159.023000", "183159.026000", "183159.030000", "183159.033000", "183159.036000", "183159.040000", "183159.044000", "183159.047000", "183159.050000", "183159.053000", "183159.057000", "183159.060000", "183159.063000", "183159.066000", "183159.069000", "183159.072000", "183159.075000", "183159.078000", "183159.081000", "183159.084000", "183214.018000", "183214.022000", "183214.026000", "183214.029000", "183214.032000", "183214.035000", "183214.039000", "183214.042000", "183214.045000", "183214.049000", "183214.052000"],
      "InstanceCreationTime": ["182839.007000", "182839.011000", "182839.014000", "182839.017000", "182839.020000", "182839.023000", "182839.026000", "182839.029000", "182839.032000", "182839.035000", "182839.038000", "182839.042000", "182839.045000", "182839.054000", "182839.057000", "182839.061000", "182839.064000", "182839.067000", "182839.070000", "182839.073000", "182919.002000", "182919.005000", "182919.009000", "182919.012000", "182919.015000", "182919.019000", "182919.027000", "182919.030000", "182919.033000", "182919.036000", "182919.039000", "182919.042000", "182919.045000", "182919.048000", "182919.051000", "182919.054000", "182919.057000", "182919.061000", "182919.064000", "182919.067000", "182919.071000", "182919.075000", "182919.078000", "182919.081000", "182919.085000", "182919.088000", "182919.091000", "182959.002000", "182959.006000", "182959.009000", "182959.012000", "182959.015000", "182959.018000", "182959.022000", "182959.025000", "182959.028000", "182959.031000", "182959.034000", "182959.037000", "182959.040000", "182959.043000", "182959.046000", "182959.049000", "182959.052000", "182959.055000", "182959.058000", "182959.061000", "182959.064000", "182959.071000", "182959.074000", "182959.078000", "182959.080000", "182959.083000", "183039.002000", "183039.006000", "183039.009000", "183039.016000", "183039.019000", "183039.022000", "183039.025000", "183039.028000", "183039.031000", "183039.034000", "183039.037000", "183039.040000", "183039.043000", "183039.046000", "183039.050000", "183039.053000", "183039.056000", "183039.061000", "183039.064000", "183039.067000", "183039.070000", "183039.073000", "183039.076000", "183039.079000", "183039.082000", "183039.085000", "183039.088000", "183119.002000", "183119.006000", "183119.009000", "183119.012000", "183119.015000", "183119.018000", "183119.021000", "183119.024000", "183119.027000", "183119.030000", "183119.033000", "183119.036000", "183119.039000", "183119.043000", "183119.046000", "183119.050000", "183119.053000", "183119.057000", "183119.060000", "183119.064000", "183119.067000", "183119.070000", "183119.073000", "183119.076000", "183119.079000", "183119.082000", "183119.085000", "183159.003000", "183159.007000", "183159.010000", "183159.013000", "183159.016000", "183159.020000", "183159.023000", "183159.026000", "183159.030000", "183159.033000", "183159.036000", "183159.040000", "183159.044000", "183159.047000", "183159.050000", "183159.053000", "183159.057000", "183159.060000", "183159.063000", "183159.066000", "183159.069000", "183159.072000", "183159.075000", "183159.078000", "183159.081000", "183159.084000", "183214.018000", "183214.022000", "183214.026000", "183214.029000", "183214.032000", "183214.035000", "183214.039000", "183214.042000", "183214.045000", "183214.049000", "183214.052000"],
      "InstanceNumber": [1, 2, 3, 4, 5, 6, 7, 8, 9, 10, 11, 12, 13, 14, 15, 16, 17, 18, 19, 20, 21, 22, 23, 24, 25, 26, 27, 28, 29, 30, 31, 32, 33, 34, 35, 36, 37, 38, 39, 40, 41, 42, 43, 44, 45, 46, 47, 48, 49, 50, 51, 52, 53, 54, 55, 56, 57, 58, 59, 60, 61, 62, 63, 64, 65, 66, 67, 68, 69, 70, 71, 72, 73, 74, 75, 76, 77, 78, 79, 80, 81, 82, 83, 84, 85, 86, 87, 88, 89, 90, 91, 92, 93, 94, 95, 96, 97, 98, 99, 100, 101, 102, 103, 104, 105, 106, 107, 108, 109, 110, 111, 112, 113, 114, 115, 116, 117, 118, 119, 120, 121, 122, 123, 124, 125, 126, 127, 128, 129, 130, 131, 132, 133, 134, 135, 136, 137, 138, 139, 140, 141, 142, 143, 144, 145, 146, 147, 148, 149, 150, 151, 152, 153, 154, 155, 156, 157, 158, 159, 160, 161, 162, 163, 164],
      "LargestImagePixelValue": [3670, 3561, 3572, 3559, 3564, 3541, 3554, 3533, 3492, 3509, 3511, 3532, 3532, 3547, 3563, 3538, 3574, 3554, 3556, 3544, 3574, 3577, 3548, 3601, 3563, 3595, 3609, 3622, 3635, 3602, 3617, 3565, 3583, 3597, 3587, 3578, 3579, 3587, 3605, 3655, 3637, 3643, 3654, 3623, 3673, 3653, 3655, 3639, 3604, 3624, 3625, 3597, 3629, 3594, 3589, 3612, 3597, 3642, 3608, 3609, 3600, 3610, 3611, 3579, 3616, 3613, 3613, 3616, 3619, 3604, 3639, 3634, 3638, 3656, 3640, 3646, 3667, 3665, 3669, 3681, 3629, 3660, 3614, 3641, 3626, 3611, 3622, 3605, 3605, 3661, 3634, 3629, 3620, 3624, 3606, 3592, 3588, 3563, 3559, 3596, 3575, 3564, 3577, 3563, 3577, 3587, 3620, 3616, 3619, 3607, 3562, 3570, 3585, 3557, 3597, 3607, 3546, 3593, 3573, 3572, 3575, 3580, 3613, 3606, 3602, 3650, 3642, 3633, 3597, 3615, 3650, 3609, 3647, 3622, 3632, 3629, 3624, 3608, 3611, 3575, 3588, 3603, 3612, 3632, 3624, 3612, 3637, 3621, 3656, 3635, 3635, 3660, 3640, 3646, 3652, 3642, 3633, 3657, 3627, 3630, 3641, 3651, 3654, 3683],
      "WindowCenter": [761.0, 760.0, 759.0, 760.0, 761.0, 761.0, 762.0, 763.0, 763.0, 763.0, 763.0, 763.0, 764.0, 763.0, 763.0, 763.0, 763.0, 764.0, 765.0, 764.0, 764.0, 764.0, 764.0, 766.0, 766.0, 765.0, 764.0, 764.0, 765.0, 764.0, 765.0, 765.0, 765.0, 765.0, 765.0, 765.0, 764.0, 764.0, 763.0, 764.0, 764.0, 764.0, 764.0, 764.0, 765.0, 765.0, 764.0, 764.0, 764.0, 764.0, 764.0, 765.0, 765.0, 765.0, 765.0, 765.0, 764.0, 763.0, 763.0, 764.0, 763.0, 763.0, 763.0, 764.0, 765.0, 764.0, 764.0, 764.0, 763.0, 764.0, 766.0, 766.0, 766.0, 765.0, 764.0, 763.0, 763.0, 763.0, 764.0, 764.0, 765.0, 765.0, 765.0, 764.0, 763.0, 763.0, 764.0, 763.0, 764.0, 763.0, 763.0, 762.0, 762.0, 762.0, 762.0, 763.0, 763.0, 763.0, 764.0, 764.0, 764.0, 764.0, 763.0, 763.0, 763.0, 763.0, 763.0, 764.0, 764.0, 764.0, 764.0, 764.0, 764.0, 764.0, 764.0, 764.0, 764.0, 764.0, 765.0, 765.0, 764.0, 765.0, 765.0, 764.0, 763.0, 762.0, 761.0, 762.0, 762.0, 763.0, 763.0, 763.0, 763.0, 763.0, 763.0, 764.0, 764.0, 764.0, 764.0, 764.0, 764.0, 764.0, 764.0, 764.0, 764.0, 764.0, 764.0, 765.0, 765.0, 765.0, 764.0, 764.0, 764.0, 764.0, 764.0, 764.0, 764.0, 764.0, 764.0, 764.0, 764.0, 764.0, 764.0, 764.0],
      "WindowWidth": [1679.0, 1676.0, 1673.0, 1675.0, 1678.0, 1679.0, 1681.0, 1684.0, 1685.0, 1685.0, 1686.0, 1686.0, 1686.0, 1685.0, 1685.0, 1684.0, 1685.0, 1688.0, 1690.0, 1688.0, 1687.0, 1686.0, 1688.0, 1693.0, 1694.0, 1692.0, 1689.0, 1689.0, 1689.0, 1689.0, 1690.0, 1689.0, 1691.0, 1691.0, 1692.0, 1691.0, 1688.0, 1687.0, 1685.0, 1687.0, 1687.0, 1687.0, 1688.0, 1689.0, 1692.0, 1691.0, 1688.0, 1687.0, 1686.0, 1687.0, 1688.0, 1690.0, 1690.0, 1691.0, 1692.0, 1691.0, 1688.0, 1686.0, 1685.0, 1687.0, 1685.0, 1686.0, 1686.0, 1686.0, 1689.0, 1687.0, 1687.0, 1687.0, 1686.0, 1688.0, 1692.0, 1693.0, 1692.0, 1690.0, 1687.0, 1685.0, 1685.0, 1685.0, 1686.0, 1688.0, 1689.0, 1690.0, 1688.0, 1687.0, 1685.0, 1684.0, 1686.0, 1685.0, 1686.0, 1685.0, 1684.0, 1682.0, 1681.0, 1681.0, 1682.0, 1684.0, 1684.0, 1686.0, 1688.0, 1688.0, 1688.0, 1686.0, 1685.0, 1684.0, 1684.0, 1684.0, 1685.0, 1686.0, 1687.0, 1686.0, 1687.0, 1688.0, 1688.0, 1687.0, 1687.0, 1686.0, 1686.0, 1688.0, 1690.0, 1690.0, 1689.0, 1691.0, 1690.0, 1687.0, 1683.0, 1681.0, 1679.0, 1681.0, 1683.0, 1683.0, 1683.0, 1683.0, 1684.0, 1683.0, 1685.0, 1686.0, 1687.0, 1686.0, 1688.0, 1687.0, 1687.0, 1687.0, 1687.0, 1687.0, 1687.0, 1687.0, 1688.0, 1690.0, 1690.0, 1689.0, 1688.0, 1688.0, 1687.0, 1686.0, 1687.0, 1687.0, 1687.0, 1687.0, 1688.0, 1688.0, 1688.0, 1686.0, 1687.0, 1687.0]
    },
    "slices": {}
  }
}