{
  "AcquisitionMatrixPE": 72,
  "AcquisitionNumber": 1,
  "AcquisitionTime": "18:33:2.492500",
  "BandwidthPerPixelPhaseEncode": 17.943,
  "BaseResolution": 96,
  "BodyPartExamined": "BRAIN",
  "CoilCombinationMethod": "Sum of Squares",
  "ConsistencyInfo": "N4_VE11C_LATEST_20160120",
  "ConversionSoftware": "dcm2niix",
  "ConversionSoftwareVersion": "v1.0.20211006",
  "DerivedVendorReportedEchoSpacing": 0.000552897,
  "DeviceSerialNumber": "166011",
  "EchoTime": 0.03,
  "EchoTrainLength": 58,
  "EffectiveEchoSpacing": 0.000580542,
  "FlipAngle": 62,
  "ImageOrientationPatientDICOM": [0.998183, 0.0178568, 0.0575566, -0.0174234, 0.999816, -0.00802286],
  "ImageType": [
    "ORIGINAL",
    "PRIMARY",
    "M",
    "ND",
    "MOSAIC"
],
  "ImagingFrequency": 123.259,
  "InPlanePhaseEncodingDirectionDICOM": "COL",
  "InstitutionAddress": "West 130th Street 610,NY,NYC,US,10025",
  "InstitutionName": "MBBI",
  "MRAcquisitionType": "2D",
  "MagneticFieldStrength": 3,
  "Manufacturer": "Siemens",
  "ManufacturersModelName": "Prisma",
  "Modality": "MR",
  "MultibandAccelerationFactor": 3,
  "PartialFourier": 0.75,
  "PatientPosition": "HFS",
  "PercentPhaseFOV": 100,
  "PercentSampling": 75,
  "PhaseEncodingDirection": "j-",
  "PhaseEncodingSteps": 58,
  "PhaseOversampling": 0.05,
  "PhaseResolution": 0.75,
  "PixelBandwidth": 2265,
  "ProcedureStepDescription": "White^Word_recognition",
  "ProtocolName": "func_vwfate_run15",
  "PulseSequenceDetails": "%SiemensSeq%\\ep2d_bold",
  "ReceiveCoilActiveElements": "HC1-7",
  "ReceiveCoilName": "HeadNeck_64",
  "ReconMatrixPE": 96,
  "RefLinesPE": 40,
  "RepetitionTime": 1.5,
  "SAR": 0.0501462,
  "ScanOptions": "PFP\\FS",
  "ScanningSequence": "EP",
  "SequenceName": "*epfid2d1_72",
  "SequenceVariant": "SK\\OSP",
  "SeriesDescription": "func_vwfate_run15",
  "SeriesNumber": 10,
  "ShimSetting": [-1136, -1386, 689, 581, -71, -103, -44, -18],
  "SliceThickness": 2,
  "SliceTiming": [1.0775, 0, 0.74, 0.0675, 0.8075, 0.135, 0.875, 0.2025, 0.9425, 0.27, 1.01, 0.405, 1.145, 0.4725, 1.2125, 0.54, 1.28, 0.6075, 1.3475, 0.675, 1.4125, 0.3375, 1.0775, 0, 0.74, 0.0675, 0.8075, 0.135, 0.875, 0.2025, 0.9425, 0.27, 1.01, 0.405, 1.145, 0.4725, 1.2125, 0.54, 1.28, 0.6075, 1.3475, 0.675, 1.4125, 0.3375, 1.0775, 0, 0.74, 0.0675, 0.8075, 0.135, 0.875, 0.2025, 0.9425, 0.27, 1.01, 0.405, 1.145, 0.4725, 1.2125, 0.54, 1.28, 0.6075, 1.3475, 0.675, 1.4125, 0.3375],
  "SoftwareVersions": "syngo MR E11",
  "SpacingBetweenSlices": 2,
  "StationName": "AWP166011",
  "TaskName": "vwfate",
  "TotalReadoutTime": 0.0551515,
  "TxRefAmp": 217.565,
  "dcmmeta_affine": [
    [-1.9963650703430176, -0.03484679013490677, 0.11537857353687286, 97.50405883789062],
    [-0.0357135646045208, 1.9996320009231567, -0.014010893180966377, -75.61785888671875],
    [0.11511322855949402, 0.016045719385147095, 1.9966200590133667, -46.63097381591797],
    [0.0, 0.0, 0.0, 1.0]
],
  "dcmmeta_reorient_transform": [
    [0.0, -1.0, 0.0, 95.0],
    [1.0, 0.0, 0.0, 0.0],
    [0.0, 0.0, 1.0, 0.0],
    [0.0, 0.0, 0.0, 1.0]
],
  "dcmmeta_shape": [96, 96, 66, 164],
  "dcmmeta_slice_dim": 2,
  "dcmmeta_version": 0.6,
  "global": {
    "const": {
      "AcquisitionMatrix": [96, 0, 0, 72],
      "AngioFlag": "N",
      "BitsAllocated": 16,
      "BitsStored": 12,
      "BodyPartExamined": "BRAIN",
      "Columns": 864,
      "EchoNumbers": 1,
      "EchoTime": 30.0,
      "EchoTrainLength": 58,
      "FlipAngle": 62.0,
      "HighBit": 11,
      "ImageOrientationPatient": [0.99818253404803, 0.01785678245405, 0.05755661596935, -0.0174233948182, 0.99981601259405, -0.0080228594372],
      "ImagePositionPatient": [-847.41663029879, -895.91988772551, -83.148556482428],
      "ImageType": [
        "ORIGINAL",
        "PRIMARY",
        "M",
        "ND",
        "MOSAIC"
],
      "ImagedNucleus": "1H",
      "ImagingFrequency": 123.259492,
      "InPlanePhaseEncodingDirection": "COL",
      "MRAcquisitionType": "2D",
      "MagneticFieldStrength": 3.0,
      "Manufacturer": "SIEMENS",
      "ManufacturerModelName": "Prisma",
      "Modality": "MR",
      "NumberOfAverages": 1.0,
      "NumberOfPhaseEncodingSteps": 58,
      "PercentPhaseFieldOfView": 100.0,
      "PercentSampling": 75.0,
      "PerformedProcedureStepStartTime": "180110.988000",
      "PhotometricInterpretation": "MONOCHROME2",
      "PixelBandwidth": 2265.0,
      "PixelRepresentation": 0,
      "PixelSpacing": [2.0, 2.0],
      "ProtocolName": "func_vwfate_run15",
      "RepetitionTime": 1500.0,
      "Rows": 864,
      "SAR": 0.05014620304514,
      "SamplesPerPixel": 1,
      "ScanOptions": [
        "PFP",
        "FS"
],
      "ScanningSequence": "EP",
      "SequenceName": "*epfid2d1_72",
      "SequenceVariant": [
        "SK",
        "OSP"
],
      "SeriesDescription": "func_vwfate_run15",
      "SeriesNumber": 10,
      "SeriesTime": "183342.616000",
      "SliceLocation": -40.397492184313,
      "SliceThickness": 2.0,
      "SmallestImagePixelValue": 0,
      "SoftwareVersions": "syngo MR E11",
      "SpacingBetweenSlices": 1.9999999885712,
      "SpecificCharacterSet": "ISO_IR 100",
      "StudyID": "3",
      "StudyTime": "180110.867000",
      "TransmitCoilName": "Body",
      "VariableFlipAngleFlag": "N",
      "WindowCenterWidthExplanation": "Algo1",
      "dBdt": 0.0},
    "slices": {}
  },
  "time": {
    "samples": {
      "AcquisitionNumber": [1, 2, 3, 4, 5, 6, 7, 8, 9, 10, 11, 12, 13, 14, 15, 16, 17, 18, 19, 20, 21, 22, 23, 24, 25, 26, 27, 28, 29, 30, 31, 32, 33, 34, 35, 36, 37, 38, 39, 40, 41, 42, 43, 44, 45, 46, 47, 48, 49, 50, 51, 52, 53, 54, 55, 56, 57, 58, 59, 60, 61, 62, 63, 64, 65, 66, 67, 68, 69, 70, 71, 72, 73, 74, 75, 76, 77, 78, 79, 80, 81, 82, 83, 84, 85, 86, 87, 88, 89, 90, 91, 92, 93, 94, 95, 96, 97, 98, 99, 100, 101, 102, 103, 104, 105, 106, 107, 108, 109, 110, 111, 112, 113, 114, 115, 116, 117, 118, 119, 120, 121, 122, 123, 124, 125, 126, 127, 128, 129, 130, 131, 132, 133, 134, 135, 136, 137, 138, 139, 140, 141, 142, 143, 144, 145, 146, 147, 148, 149, 150, 151, 152, 153, 154, 155, 156, 157, 158, 159, 160, 161, 162, 163, 164],
      "AcquisitionTime": ["183302.492500", "183303.992500", "183305.492500", "183306.992500", "183308.492500", "183309.992500", "183311.492500", "183312.992500", "183314.492500", "183315.992500", "183317.492500", "183318.992500", "183320.492500", "183321.992500", "183323.492500", "183324.992500", "183326.492500", "183327.992500", "183329.492500", "183330.992500", "183332.492500", "183333.992500", "183335.492500", "183336.992500", "183338.492500", "183339.992500", "183341.492500", "183342.992500", "183344.492500", "183345.992500", "183347.492500", "183348.992500", "183350.492500", "183351.992500", "183353.492500", "183354.992500", "183356.492500", "183357.992500", "183359.492500", "183400.992500", "183402.492500", "183403.992500", "183405.492500", "183406.992500", "183408.492500", "183409.992500", "183411.492500", "183412.992500", "183414.492500", "183415.992500", "183417.492500", "183418.992500", "183420.492500", "183421.992500", "183423.492500", "183424.992500", "183426.492500", "183427.992500", "183429.492500", "183430.992500", "183432.492500", "183433.992500", "183435.492500", "183436.992500", "183438.492500", "183439.992500", "183441.492500", "183442.992500", "183444.492500", "183445.992500", "183447.492500", "183448.992500", "183450.492500", "183451.992500", "183453.492500", "183454.992500", "183456.492500", "183457.992500", "183459.492500", "183500.992500", "183502.492500", "183503.992500", "183505.492500", "183506.992500", "183508.492500", "183509.992500", "183511.492500", "183512.992500", "183514.492500", "183515.992500", "183517.492500", "183518.992500", "183520.492500", "183521.992500", "183523.492500", "183524.992500", "183526.492500", "183527.992500", "183529.492500", "183530.992500", "183532.492500", "183533.992500", "183535.492500", "183536.992500", "183538.492500", "183539.992500", "183541.492500", "183542.992500", "183544.492500", "183545.992500", "183547.492500", "183548.992500", "183550.492500", "183551.992500", "183553.492500", "183554.992500", "183556.492500", "183557.992500", "183559.492500", "183600.992500", "183602.492500", "183603.992500", "183605.492500", "183606.992500", "183608.492500", "183609.992500", "183611.492500", "183612.992500", "183614.492500", "183615.992500", "183617.492500", "183618.992500", "183620.492500", "183621.992500", "183623.492500", "183624.992500", "183626.492500", "183627.992500", "183629.492500", "183630.992500", "183632.492500", "183633.992500", "183635.492500", "183636.992500", "183638.492500", "183639.992500", "183641.492500", "183642.992500", "183644.492500", "183645.992500", "183647.492500", "183648.992500", "183650.492500", "183651.992500", "183653.492500", "183654.992500", "183656.492500", "183657.992500", "183659.492500", "183700.992500", "183702.492500", "183703.992500", "183705.492500", "183706.992500"],
      "ContentTime": ["183342.620000", "183342.624000", "183342.632000", "183342.635000", "183342.638000", "183342.641000", "183342.649000", "183342.653000", "183342.656000", "183342.659000", "183342.662000", "183342.666000", "183342.669000", "183342.672000", "183342.675000", "183342.684000", "183342.687000", "183342.690000", "183342.693000", "183342.696000", "183342.699000", "183342.702000", "183342.705000", "183342.708000", "183342.711000", "183342.714000", "183422.615000", "183422.618000", "183422.621000", "183422.624000", "183422.627000", "183422.630000", "183422.634000", "183422.637000", "183422.640000", "183422.643000", "183422.646000", "183422.649000", "183422.652000", "183422.655000", "183422.658000", "183422.668000", "183422.671000", "183422.674000", "183422.677000", "183422.680000", "183422.683000", "183422.686000", "183422.689000", "183422.704000", "183422.708000", "183422.711000", "183422.714000", "183502.615000", "183502.618000", "183502.621000", "183502.624000", "183502.627000", "183502.631000", "183502.633000", "183502.636000", "183502.640000", "183502.644000", "183502.647000", "183502.650000", "183502.653000", "183502.656000", "183502.659000", "183502.662000", "183502.665000", "183502.668000", "183502.671000", "183502.674000", "183502.682000", "183502.685000", "183502.688000", "183502.691000", "183502.694000", "183502.697000", "183502.700000", "183542.615000", "183542.618000", "183542.621000", "183542.624000", "183542.627000", "183542.630000", "183542.634000", "183542.637000", "183542.640000", "183542.643000", "183542.646000", "183542.649000", "183542.652000", "183542.655000", "183542.659000", "183542.663000", "183542.666000", "183542.669000", "183542.673000", "183542.697000", "183542.700000", "183542.703000", "183542.706000", "183542.709000", "183542.712000", "183542.715000", "183622.615000", "183622.618000", "183622.622000", "183622.625000", "183622.628000", "183622.631000", "183622.634000", "183622.637000", "183622.640000", "183622.643000", "183622.646000", "183622.649000", "183622.653000", "183622.656000", "183622.659000", "183622.662000", "183622.666000", "183622.669000", "183622.672000", "183622.675000", "183622.678000", "183622.681000", "183622.684000", "183622.687000", "183622.690000", "183622.693000", "183622.696000", "183702.615000", "183702.618000", "183702.621000", "183702.624000", "183702.641000", "183702.644000", "183702.647000", "183702.650000", "183702.653000", "183702.656000", "183702.659000", "183702.663000", "183702.666000", "183702.669000", "183702.672000", "183702.675000", "183702.678000", "183702.681000", "183702.685000", "183702.688000", "183702.691000", "183702.694000", "183702.697000", "183702.700000", "183702.703000", "183702.706000", "183702.709000", "183708.381000", "183708.384000", "183708.388000", "183708.391000"],
      "InstanceCreationTime": ["183342.620000", "183342.624000", "183342.632000", "183342.635000", "183342.638000", "183342.641000", "183342.649000", "183342.653000", "183342.656000", "183342.659000", "183342.662000", "183342.666000", "183342.669000", "183342.672000", "183342.675000", "183342.684000", "183342.687000", "183342.690000", "183342.693000", "183342.696000", "183342.699000", "183342.702000", "183342.705000", "183342.708000", "183342.711000", "183342.714000", "183422.615000", "183422.618000", "183422.621000", "183422.624000", "183422.627000", "183422.630000", "183422.634000", "183422.637000", "183422.640000", "183422.643000", "183422.646000", "183422.649000", "183422.652000", "183422.655000", "183422.658000", "183422.668000", "183422.671000", "183422.674000", "183422.677000", "183422.680000", "183422.683000", "183422.686000", "183422.689000", "183422.704000", "183422.708000", "183422.711000", "183422.714000", "183502.615000", "183502.618000", "183502.621000", "183502.624000", "183502.627000", "183502.631000", "183502.633000", "183502.636000", "183502.640000", "183502.644000", "183502.647000", "183502.650000", "183502.653000", "183502.656000", "183502.659000", "183502.662000", "183502.665000", "183502.668000", "183502.671000", "183502.674000", "183502.682000", "183502.685000", "183502.688000", "183502.691000", "183502.694000", "183502.697000", "183502.700000", "183542.615000", "183542.618000", "183542.621000", "183542.624000", "183542.627000", "183542.630000", "183542.634000", "183542.637000", "183542.640000", "183542.643000", "183542.646000", "183542.649000", "183542.652000", "183542.655000", "183542.659000", "183542.663000", "183542.666000", "183542.669000", "183542.673000", "183542.697000", "183542.700000", "183542.703000", "183542.706000", "183542.709000", "183542.712000", "183542.715000", "183622.615000", "183622.618000", "183622.622000", "183622.625000", "183622.628000", "183622.631000", "183622.634000", "183622.637000", "183622.640000", "183622.643000", "183622.646000", "183622.649000", "183622.653000", "183622.656000", "183622.659000", "183622.662000", "183622.666000", "183622.669000", "183622.672000", "183622.675000", "183622.678000", "183622.681000", "183622.684000", "183622.687000", "183622.690000", "183622.693000", "183622.696000", "183702.615000", "183702.618000", "183702.621000", "183702.624000", "183702.641000", "183702.644000", "183702.647000", "183702.650000", "183702.653000", "183702.656000", "183702.659000", "183702.663000", "183702.666000", "183702.669000", "183702.672000", "183702.675000", "183702.678000", "183702.681000", "183702.685000", "183702.688000", "183702.691000", "183702.694000", "183702.697000", "183702.700000", "183702.703000", "183702.706000", "183702.709000", "183708.381000", "183708.384000", "183708.388000", "183708.391000"],
      "InstanceNumber": [1, 2, 3, 4, 5, 6, 7, 8, 9, 10, 11, 12, 13, 14, 15, 16, 17, 18, 19, 20, 21, 22, 23, 24, 25, 26, 27, 28, 29, 30, 31, 32, 33, 34, 35, 36, 37, 38, 39, 40, 41, 42, 43, 44, 45, 46, 47, 48, 49, 50, 51, 52, 53, 54, 55, 56, 57, 58, 59, 60, 61, 62, 63, 64, 65, 66, 67, 68, 69, 70, 71, 72, 73, 74, 75, 76, 77, 78, 79, 80, 81, 82, 83, 84, 85, 86, 87, 88, 89, 90, 91, 92, 93, 94, 95, 96, 97, 98, 99, 100, 101, 102, 103, 104, 105, 106, 107, 108, 109, 110, 111, 112, 113, 114, 115, 116, 117, 118, 119, 120, 121, 122, 123, 124, 125, 126, 127, 128, 129, 130, 131, 132, 133, 134, 135, 136, 137, 138, 139, 140, 141, 142, 143, 144, 145, 146, 147, 148, 149, 150, 151, 152, 153, 154, 155, 156, 157, 158, 159, 160, 161, 162, 163, 164],
      "LargestImagePixelValue": [3609, 3709, 3563, 3480, 3484, 3396, 3458, 3435, 3446, 3447, 3434, 3466, 3441, 3450, 3432, 3415, 3395, 3417, 3397, 3431, 3387, 3381, 3385, 3363, 3406, 3342, 3395, 3377, 3380, 3438, 3395, 3413, 3434, 3381, 3406, 3418, 3418, 3407, 3411, 3427, 3419, 3431, 3428, 3419, 3434, 3425, 3464, 3427, 3435, 3428, 3404, 3434, 3466, 3478, 3479, 3433, 3440, 3438, 3412, 3387, 3405, 3435, 3416, 3428, 3468, 3429, 3437, 3452, 3419, 3455, 3430, 3461, 3456, 3420, 3450, 3411, 3419, 3398, 3390, 3448, 3404, 3418, 3404, 3413, 3442, 3388, 3475, 3378, 3483, 3392, 3294, 3299, 3315, 3423, 3453, 3462, 3450, 3459, 3487, 3479, 3499, 3499, 3506, 3544, 3485, 3490, 3509, 3493, 3490, 3463, 3489, 3525, 3493, 3489, 3459, 3453, 3492, 3531, 3473, 3493, 3482, 3508, 3468, 3516, 3462, 3435, 3474, 3495, 3485, 3493, 3440, 3477, 3534, 3483, 3540, 3528, 3502, 3549, 3483, 3514, 3515, 3467, 3522, 3480, 3482, 3519, 3502, 3505, 3413, 3436, 3381, 3404, 3479, 3428, 3451, 3364, 3379, 3424, 3397, 3525, 3500, 3528, 3485, 3485],
      "WindowCenter": [763.0, 759.0, 759.0, 761.0, 762.0, 761.0, 759.0, 758.0, 757.0, 757.0, 758.0, 759.0, 760.0, 760.0, 760.0, 760.0, 761.0, 761.0, 761.0, 761.0, 761.0, 761.0, 763.0, 764.0, 765.0, 764.0, 764.0, 762.0, 762.0, 761.0, 762.0, 762.0, 762.0, 761.0, 761.0, 761.0, 761.0, 760.0, 761.0, 762.0, 762.0, 762.0, 761.0, 761.0, 762.0, 762.0, 762.0, 762.0, 762.0, 762.0, 761.0, 761.0, 761.0, 762.0, 763.0, 762.0, 762.0, 762.0, 761.0, 760.0, 760.0, 761.0, 761.0, 760.0, 761.0, 761.0, 761.0, 761.0, 761.0, 761.0, 761.0, 761.0, 762.0, 762.0, 763.0, 763.0, 762.0, 762.0, 761.0, 761.0, 761.0, 762.0, 762.0, 762.0, 762.0, 761.0, 761.0, 761.0, 759.0, 760.0, 763.0, 764.0, 761.0, 759.0, 757.0, 757.0, 757.0, 757.0, 758.0, 759.0, 759.0, 760.0, 760.0, 760.0, 759.0, 760.0, 760.0, 760.0, 762.0, 763.0, 763.0, 762.0, 761.0, 761.0, 761.0, 761.0, 762.0, 762.0, 761.0, 761.0, 761.0, 761.0, 760.0, 760.0, 760.0, 760.0, 761.0, 762.0, 763.0, 763.0, 762.0, 762.0, 761.0, 761.0, 762.0, 761.0, 761.0, 761.0, 761.0, 761.0, 761.0, 760.0, 760.0, 760.0, 760.0, 761.0, 762.0, 761.0, 760.0, 761.0, 761.0, 761.0, 761.0, 759.0, 759.0, 758.0, 757.0, 758.0, 759.0, 760.0, 761.0, 760.0, 760.0, 760.0],
      "WindowWidth": [1686.0, 1675.0, 1673.0, 1677.0, 1680.0, 1677.0, 1673.0, 1668.0, 1667.0, 1667.0, 1670.0, 1673.0, 1675.0, 1675.0, 1674.0, 1676.0, 1677.0, 1678.0, 1678.0, 1678.0, 1678.0, 1679.0, 1683.0, 1687.0, 1690.0, 1688.0, 1686.0, 1682.0, 1680.0, 1679.0, 1680.0, 1681.0, 1681.0, 1679.0, 1677.0, 1677.0, 1677.0, 1677.0, 1678.0, 1681.0, 1683.0, 1682.0, 1680.0, 1678.0, 1680.0, 1681.0, 1681.0, 1680.0, 1681.0, 1681.0, 1679.0, 1679.0, 1679.0, 1682.0, 1684.0, 1683.0, 1681.0, 1680.0, 1678.0, 1677.0, 1677.0, 1678.0, 1678.0, 1676.0, 1677.0, 1678.0, 1678.0, 1679.0, 1678.0, 1678.0, 1678.0, 1679.0, 1681.0, 1682.0, 1684.0, 1683.0, 1682.0, 1680.0, 1679.0, 1680.0, 1679.0, 1681.0, 1681.0, 1680.0, 1680.0, 1679.0, 1679.0, 1679.0, 1674.0, 1674.0, 1684.0, 1685.0, 1678.0, 1671.0, 1666.0, 1666.0, 1666.0, 1667.0, 1669.0, 1672.0, 1674.0, 1674.0, 1674.0, 1675.0, 1673.0, 1674.0, 1674.0, 1676.0, 1680.0, 1684.0, 1683.0, 1681.0, 1679.0, 1678.0, 1679.0, 1679.0, 1680.0, 1680.0, 1679.0, 1678.0, 1677.0, 1677.0, 1675.0, 1675.0, 1675.0, 1675.0, 1677.0, 1681.0, 1684.0, 1684.0, 1680.0, 1680.0, 1679.0, 1679.0, 1680.0, 1678.0, 1680.0, 1679.0, 1678.0, 1678.0, 1677.0, 1676.0, 1676.0, 1676.0, 1677.0, 1678.0, 1680.0, 1679.0, 1676.0, 1679.0, 1678.0, 1678.0, 1676.0, 1672.0, 1671.0, 1668.0, 1666.0, 1669.0, 1671.0, 1677.0, 1678.0, 1676.0, 1674.0, 1674.0]
    },
    "slices": {}
  }
}