{
  "AcquisitionMatrixPE": 72,
  "AcquisitionNumber": 1,
  "AcquisitionTime": "17:17:39.567500",
  "BandwidthPerPixelPhaseEncode": 17.943,
  "BaseResolution": 96,
  "BodyPartExamined": "BRAIN",
  "CoilCombinationMethod": "Sum of Squares",
  "ConsistencyInfo": "N4_VE11C_LATEST_20160120",
  "ConversionSoftware": "dcm2niix",
  "ConversionSoftwareVersion": "v1.0.20211006",
  "DerivedVendorReportedEchoSpacing": 0.000552897,
  "DeviceSerialNumber": "166011",
  "EchoTime": 0.03,
  "EchoTrainLength": 58,
  "EffectiveEchoSpacing": 0.000580542,
  "FlipAngle": 62,
  "ImageOrientationPatientDICOM": [0.998758, -0.00110549, -0.0498217, 0.00139455, 0.999982, 0.00576764],
  "ImageType": [
    "ORIGINAL",
    "PRIMARY",
    "M",
    "ND",
    "MOSAIC"
],
  "ImagingFrequency": 123.259,
  "InPlanePhaseEncodingDirectionDICOM": "COL",
  "InstitutionAddress": "West 130th Street 610,NY,NYC,US,10025",
  "InstitutionName": "MBBI",
  "MRAcquisitionType": "2D",
  "MagneticFieldStrength": 3,
  "Manufacturer": "Siemens",
  "ManufacturersModelName": "Prisma",
  "Modality": "MR",
  "MultibandAccelerationFactor": 3,
  "PartialFourier": 0.75,
  "PatientPosition": "HFS",
  "PercentPhaseFOV": 100,
  "PercentSampling": 75,
  "PhaseEncodingDirection": "j-",
  "PhaseEncodingSteps": 58,
  "PhaseOversampling": 0.05,
  "PhaseResolution": 0.75,
  "PixelBandwidth": 2265,
  "ProcedureStepDescription": "White^Word_recognition",
  "ProtocolName": "func_language_run2",
  "PulseSequenceDetails": "%SiemensSeq%\\ep2d_bold",
  "ReceiveCoilActiveElements": "HC1-7",
  "ReceiveCoilName": "HeadNeck_64",
  "ReconMatrixPE": 96,
  "RefLinesPE": 40,
  "RepetitionTime": 1.5,
  "SAR": 0.0528708,
  "ScanOptions": "PFP\\FS",
  "ScanningSequence": "EP",
  "SequenceName": "*epfid2d1_72",
  "SequenceVariant": "SK\\OSP",
  "SeriesDescription": "func_language_run2",
  "SeriesNumber": 12,
  "ShimSetting": [-1174, -1387, 740, 589, -142, -18, -41, 49],
  "SliceThickness": 2,
  "SliceTiming": [1.0775, 0, 0.74, 0.0675, 0.8075, 0.135, 0.875, 0.2025, 0.9425, 0.27, 1.01, 0.405, 1.145, 0.47, 1.21, 0.5375, 1.2775, 0.605, 1.345, 0.6725, 1.4125, 0.3375, 1.0775, 0, 0.74, 0.0675, 0.8075, 0.135, 0.875, 0.2025, 0.9425, 0.27, 1.01, 0.405, 1.145, 0.47, 1.21, 0.5375, 1.2775, 0.605, 1.345, 0.6725, 1.4125, 0.3375, 1.0775, 0, 0.74, 0.0675, 0.8075, 0.135, 0.875, 0.2025, 0.9425, 0.27, 1.01, 0.405, 1.145, 0.47, 1.21, 0.5375, 1.2775, 0.605, 1.345, 0.6725, 1.4125, 0.3375],
  "SoftwareVersions": "syngo MR E11",
  "SpacingBetweenSlices": 2,
  "StationName": "AWP166011",
  "TaskName": "langLoc",
  "TotalReadoutTime": 0.0551515,
  "TxRefAmp": 214.652,
  "dcmmeta_affine": [
    [-1.997515082359314, 0.002789104823023081, -0.09962886571884155, 100.03141784667969],
    [0.0022109709680080414, 1.9999648332595825, 0.011659911833703518, -63.44742202758789],
    [-0.09964337199926376, -0.011535285972058773, 1.9974830150604248, -37.550411224365234],
    [0.0, 0.0, 0.0, 1.0]
],
  "dcmmeta_reorient_transform": [
    [0.0, -1.0, 0.0, 95.0],
    [1.0, 0.0, 0.0, 0.0],
    [0.0, 0.0, 1.0, 0.0],
    [0.0, 0.0, 0.0, 1.0]
],
  "dcmmeta_shape": [96, 96, 66, 239],
  "dcmmeta_slice_dim": 2,
  "dcmmeta_version": 0.6,
  "global": {
    "const": {
      "AcquisitionMatrix": [96, 0, 0, 72],
      "AngioFlag": "N",
      "BitsAllocated": 16,
      "BitsStored": 12,
      "BodyPartExamined": "BRAIN",
      "Columns": 864,
      "EchoNumbers": 1,
      "EchoTime": 30.0,
      "EchoTrainLength": 58,
      "FlipAngle": 62.0,
      "HighBit": 11,
      "ImageOrientationPatient": [0.99875751689853, -0.0011054854784, -0.0498216854446, 0.00139455241879, 0.99998239460394, 0.00576764299496],
      "ImagePositionPatient": [-868.41317242462, -893.68669866352, -4.8127574577737],
      "ImageType": [
        "ORIGINAL",
        "PRIMARY",
        "M",
        "ND",
        "MOSAIC"
],
      "ImagedNucleus": "1H",
      "ImagingFrequency": 123.259459,
      "InPlanePhaseEncodingDirection": "COL",
      "MRAcquisitionType": "2D",
      "MagneticFieldStrength": 3.0,
      "Manufacturer": "SIEMENS",
      "ManufacturerModelName": "Prisma",
      "Modality": "MR",
      "NumberOfAverages": 1.0,
      "NumberOfPhaseEncodingSteps": 58,
      "PercentPhaseFieldOfView": 100.0,
      "PercentSampling": 75.0,
      "PerformedProcedureStepStartTime": "162510.957000",
      "PhotometricInterpretation": "MONOCHROME2",
      "PixelBandwidth": 2265.0,
      "PixelRepresentation": 0,
      "PixelSpacing": [2.0, 2.0],
      "ProtocolName": "func_language_run2",
      "RepetitionTime": 1500.0,
      "Rows": 864,
      "SAR": 0.05287075097298,
      "SamplesPerPixel": 1,
      "ScanOptions": [
        "PFP",
        "FS"
],
      "ScanningSequence": "EP",
      "SequenceName": "*epfid2d1_72",
      "SequenceVariant": [
        "SK",
        "OSP"
],
      "SeriesDescription": "func_language_run2",
      "SeriesNumber": 12,
      "SeriesTime": "171809.653000",
      "SliceLocation": -42.856055735472,
      "SliceThickness": 2.0,
      "SmallestImagePixelValue": 0,
      "SoftwareVersions": "syngo MR E11",
      "SpacingBetweenSlices": 2.0000000540485,
      "SpecificCharacterSet": "ISO_IR 100",
      "StudyID": "3",
      "StudyTime": "162510.732000",
      "TransmitCoilName": "Body",
      "VariableFlipAngleFlag": "N",
      "WindowCenterWidthExplanation": "Algo1",
      "dBdt": 0.0},
    "slices": {}
  },
  "time": {
    "samples": {
      "AcquisitionNumber": [1, 2, 3, 4, 5, 6, 7, 8, 9, 10, 11, 12, 13, 14, 15, 16, 17, 18, 19, 20, 21, 22, 23, 24, 25, 26, 27, 28, 29, 30, 31, 32, 33, 34, 35, 36, 37, 38, 39, 40, 41, 42, 43, 44, 45, 46, 47, 48, 49, 50, 51, 52, 53, 54, 55, 56, 57, 58, 59, 60, 61, 62, 63, 64, 65, 66, 67, 68, 69, 70, 71, 72, 73, 74, 75, 76, 77, 78, 79, 80, 81, 82, 83, 84, 85, 86, 87, 88, 89, 90, 91, 92, 93, 94, 95, 96, 97, 98, 99, 100, 101, 102, 103, 104, 105, 106, 107, 108, 109, 110, 111, 112, 113, 114, 115, 116, 117, 118, 119, 120, 121, 122, 123, 124, 125, 126, 127, 128, 129, 130, 131, 132, 133, 134, 135, 136, 137, 138, 139, 140, 141, 142, 143, 144, 145, 146, 147, 148, 149, 150, 151, 152, 153, 154, 155, 156, 157, 158, 159, 160, 161, 162, 163, 164, 165, 166, 167, 168, 169, 170, 171, 172, 173, 174, 175, 176, 177, 178, 179, 180, 181, 182, 183, 184, 185, 186, 187, 188, 189, 190, 191, 192, 193, 194, 195, 196, 197, 198, 199, 200, 201, 202, 203, 204, 205, 206, 207, 208, 209, 210, 211, 212, 213, 214, 215, 216, 217, 218, 219, 220, 221, 222, 223, 224, 225, 226, 227, 228, 229, 230, 231, 232, 233, 234, 235, 236, 237, 238, 239],
      "AcquisitionTime": ["171739.567500", "171741.067500", "171742.567500", "171744.067500", "171745.567500", "171747.067500", "171748.567500", "171750.067500", "171751.567500", "171753.067500", "171754.567500", "171756.067500", "171757.567500", "171759.067500", "171800.567500", "171802.067500", "171803.567500", "171805.067500", "171806.567500", "171808.067500", "171809.567500", "171811.067500", "171812.567500", "171814.067500", "171815.567500", "171817.067500", "171818.567500", "171820.067500", "171821.567500", "171823.067500", "171824.567500", "171826.067500", "171827.567500", "171829.067500", "171830.567500", "171832.067500", "171833.567500", "171835.067500", "171836.567500", "171838.067500", "171839.567500", "171841.067500", "171842.567500", "171844.067500", "171845.567500", "171847.067500", "171848.567500", "171850.067500", "171851.567500", "171853.067500", "171854.567500", "171856.067500", "171857.567500", "171859.067500", "171900.567500", "171902.067500", "171903.567500", "171905.067500", "171906.567500", "171908.067500", "171909.567500", "171911.067500", "171912.567500", "171914.067500", "171915.567500", "171917.067500", "171918.567500", "171920.067500", "171921.567500", "171923.067500", "171924.567500", "171926.067500", "171927.567500", "171929.067500", "171930.567500", "171932.067500", "171933.567500", "171935.067500", "171936.567500", "171938.067500", "171939.567500", "171941.067500", "171942.567500", "171944.067500", "171945.567500", "171947.067500", "171948.567500", "171950.067500", "171951.567500", "171953.067500", "171954.567500", "171956.067500", "171957.567500", "171959.067500", "172000.567500", "172002.067500", "172003.567500", "172005.067500", "172006.567500", "172008.067500", "172009.567500", "172011.067500", "172012.567500", "172014.067500", "172015.567500", "172017.067500", "172018.567500", "172020.067500", "172021.567500", "172023.067500", "172024.567500", "172026.067500", "172027.567500", "172029.067500", "172030.567500", "172032.067500", "172033.567500", "172035.067500", "172036.567500", "172038.067500", "172039.567500", "172041.067500", "172042.567500", "172044.067500", "172045.567500", "172047.067500", "172048.567500", "172050.067500", "172051.567500", "172053.067500", "172054.567500", "172056.067500", "172057.567500", "172059.067500", "172100.567500", "172102.067500", "172103.567500", "172105.067500", "172106.567500", "172108.067500", "172109.567500", "172111.067500", "172112.567500", "172114.067500", "172115.567500", "172117.067500", "172118.567500", "172120.067500", "172121.567500", "172123.067500", "172124.567500", "172126.067500", "172127.567500", "172129.067500", "172130.567500", "172132.067500", "172133.567500", "172135.067500", "172136.567500", "172138.067500", "172139.567500", "172141.067500", "172142.567500", "172144.067500", "172145.567500", "172147.067500", "172148.567500", "172150.067500", "172151.567500", "172153.067500", "172154.567500", "172156.067500", "172157.567500", "172159.067500", "172200.567500", "172202.067500", "172203.567500", "172205.067500", "172206.567500", "172208.067500", "172209.567500", "172211.067500", "172212.567500", "172214.067500", "172215.567500", "172217.067500", "172218.567500", "172220.067500", "172221.567500", "172223.067500", "172224.567500", "172226.067500", "172227.567500", "172229.067500", "172230.567500", "172232.067500", "172233.567500", "172235.067500", "172236.567500", "172238.067500", "172239.567500", "172241.067500", "172242.567500", "172244.067500", "172245.567500", "172247.067500", "172248.567500", "172250.067500", "172251.567500", "172253.067500", "172254.567500", "172256.067500", "172257.567500", "172259.067500", "172300.567500", "172302.067500", "172303.567500", "172305.067500", "172306.567500", "172308.067500", "172309.567500", "172311.067500", "172312.567500", "172314.067500", "172315.567500", "172317.067500", "172318.567500", "172320.067500", "172321.567500", "172323.067500", "172324.567500", "172326.067500", "172327.567500", "172329.067500", "172330.567500", "172332.067500", "172333.567500", "172335.067500", "172336.567500"],
      "ContentTime": ["171809.657000", "171809.661000", "171809.664000", "171809.667000", "171809.670000", "171809.673000", "171809.677000", "171809.687000", "171809.690000", "171809.693000", "171809.696000", "171809.699000", "171809.702000", "171809.705000", "171809.709000", "171809.711000", "171809.714000", "171809.717000", "171809.720000", "171809.723000", "171849.651000", "171849.654000", "171849.657000", "171849.669000", "171849.672000", "171849.675000", "171849.678000", "171849.681000", "171849.684000", "171849.687000", "171849.690000", "171849.693000", "171849.696000", "171849.699000", "171849.702000", "171849.706000", "171849.709000", "171849.712000", "171849.715000", "171849.718000", "171849.721000", "171849.724000", "171849.726000", "171849.730000", "171849.732000", "171849.735000", "171849.738000", "171929.651000", "171929.654000", "171929.657000", "171929.660000", "171929.663000", "171929.666000", "171929.669000", "171929.672000", "171929.675000", "171929.678000", "171929.692000", "171929.695000", "171929.698000", "171929.701000", "171929.704000", "171929.718000", "171929.721000", "171929.724000", "171929.727000", "171929.730000", "171929.733000", "171929.739000", "171929.742000", "171929.745000", "171929.750000", "171929.754000", "172009.651000", "172009.654000", "172009.657000", "172009.660000", "172009.663000", "172009.666000", "172009.669000", "172009.672000", "172009.675000", "172009.678000", "172009.681000", "172009.684000", "172009.687000", "172009.690000", "172009.694000", "172009.697000", "172009.700000", "172009.703000", "172009.706000", "172009.709000", "172009.712000", "172009.715000", "172009.718000", "172009.721000", "172009.724000", "172009.727000", "172009.730000", "172049.652000", "172049.655000", "172049.658000", "172049.661000", "172049.664000", "172049.667000", "172049.670000", "172049.673000", "172049.676000", "172049.679000", "172049.682000", "172049.685000", "172049.688000", "172049.691000", "172049.694000", "172049.697000", "172049.700000", "172049.703000", "172049.706000", "172049.709000", "172049.712000", "172049.715000", "172049.718000", "172049.721000", "172049.724000", "172049.727000", "172049.730000", "172129.651000", "172129.654000", "172129.657000", "172129.660000", "172129.663000", "172129.666000", "172129.669000", "172129.672000", "172129.675000", "172129.678000", "172129.681000", "172129.684000", "172129.687000", "172129.690000", "172129.693000", "172129.696000", "172129.699000", "172129.702000", "172129.705000", "172129.708000", "172129.711000", "172129.714000", "172129.717000", "172129.720000", "172129.724000", "172129.726000", "172209.651000", "172209.654000", "172209.657000", "172209.660000", "172209.663000", "172209.666000", "172209.669000", "172209.672000", "172209.675000", "172209.678000", "172209.681000", "172209.684000", "172209.687000", "172209.690000", "172209.693000", "172209.696000", "172209.700000", "172209.702000", "172209.705000", "172209.708000", "172209.711000", "172209.714000", "172209.717000", "172209.720000", "172209.724000", "172209.726000", "172209.729000", "172249.652000", "172249.655000", "172249.658000", "172249.661000", "172249.664000", "172249.667000", "172249.670000", "172249.674000", "172249.676000", "172249.679000", "172249.682000", "172249.686000", "172249.689000", "172249.691000", "172249.694000", "172249.698000", "172249.701000", "172249.703000", "172249.706000", "172249.710000", "172249.713000", "172249.716000", "172249.719000", "172249.722000", "172249.725000", "172249.728000", "172249.731000", "172329.651000", "172329.654000", "172329.657000", "172329.660000", "172329.663000", "172329.666000", "172329.669000", "172329.672000", "172329.675000", "172329.678000", "172329.681000", "172329.684000", "172329.687000", "172329.690000", "172329.693000", "172329.696000", "172329.699000", "172329.702000", "172329.705000", "172329.708000", "172329.711000", "172329.714000", "172329.717000", "172329.720000", "172329.723000", "172329.726000", "172337.243000", "172337.246000", "172337.250000", "172337.263000", "172337.266000", "172337.269000"],
      "InstanceCreationTime": ["171809.657000", "171809.661000", "171809.664000", "171809.667000", "171809.670000", "171809.673000", "171809.677000", "171809.687000", "171809.690000", "171809.693000", "171809.696000", "171809.699000", "171809.702000", "171809.705000", "171809.709000", "171809.711000", "171809.714000", "171809.717000", "171809.720000", "171809.723000", "171849.651000", "171849.654000", "171849.657000", "171849.669000", "171849.672000", "171849.675000", "171849.678000", "171849.681000", "171849.684000", "171849.687000", "171849.690000", "171849.693000", "171849.696000", "171849.699000", "171849.702000", "171849.706000", "171849.709000", "171849.712000", "171849.715000", "171849.718000", "171849.721000", "171849.724000", "171849.726000", "171849.730000", "171849.732000", "171849.735000", "171849.738000", "171929.651000", "171929.654000", "171929.657000", "171929.660000", "171929.663000", "171929.666000", "171929.669000", "171929.672000", "171929.675000", "171929.678000", "171929.692000", "171929.695000", "171929.698000", "171929.701000", "171929.704000", "171929.718000", "171929.721000", "171929.724000", "171929.727000", "171929.730000", "171929.733000", "171929.739000", "171929.742000", "171929.745000", "171929.750000", "171929.754000", "172009.651000", "172009.654000", "172009.657000", "172009.660000", "172009.663000", "172009.666000", "172009.669000", "172009.672000", "172009.675000", "172009.678000", "172009.681000", "172009.684000", "172009.687000", "172009.690000", "172009.694000", "172009.697000", "172009.700000", "172009.703000", "172009.706000", "172009.709000", "172009.712000", "172009.715000", "172009.718000", "172009.721000", "172009.724000", "172009.727000", "172009.730000", "172049.652000", "172049.655000", "172049.658000", "172049.661000", "172049.664000", "172049.667000", "172049.670000", "172049.673000", "172049.676000", "172049.679000", "172049.682000", "172049.685000", "172049.688000", "172049.691000", "172049.694000", "172049.697000", "172049.700000", "172049.703000", "172049.706000", "172049.709000", "172049.712000", "172049.715000", "172049.718000", "172049.721000", "172049.724000", "172049.727000", "172049.730000", "172129.651000", "172129.654000", "172129.657000", "172129.660000", "172129.663000", "172129.666000", "172129.669000", "172129.672000", "172129.675000", "172129.678000", "172129.681000", "172129.684000", "172129.687000", "172129.690000", "172129.693000", "172129.696000", "172129.699000", "172129.702000", "172129.705000", "172129.708000", "172129.711000", "172129.714000", "172129.717000", "172129.720000", "172129.724000", "172129.726000", "172209.651000", "172209.654000", "172209.657000", "172209.660000", "172209.663000", "172209.666000", "172209.669000", "172209.672000", "172209.675000", "172209.678000", "172209.681000", "172209.684000", "172209.687000", "172209.690000", "172209.693000", "172209.696000", "172209.700000", "172209.702000", "172209.705000", "172209.708000", "172209.711000", "172209.714000", "172209.717000", "172209.720000", "172209.724000", "172209.726000", "172209.729000", "172249.652000", "172249.655000", "172249.658000", "172249.661000", "172249.664000", "172249.667000", "172249.670000", "172249.674000", "172249.676000", "172249.679000", "172249.682000", "172249.686000", "172249.689000", "172249.691000", "172249.694000", "172249.698000", "172249.701000", "172249.703000", "172249.706000", "172249.710000", "172249.713000", "172249.716000", "172249.719000", "172249.722000", "172249.725000", "172249.728000", "172249.731000", "172329.651000", "172329.654000", "172329.657000", "172329.660000", "172329.663000", "172329.666000", "172329.669000", "172329.672000", "172329.675000", "172329.678000", "172329.681000", "172329.684000", "172329.687000", "172329.690000", "172329.693000", "172329.696000", "172329.699000", "172329.702000", "172329.705000", "172329.708000", "172329.711000", "172329.714000", "172329.717000", "172329.720000", "172329.723000", "172329.726000", "172337.243000", "172337.246000", "172337.250000", "172337.263000", "172337.266000", "172337.269000"],
      "InstanceNumber": [1, 2, 3, 4, 5, 6, 7, 8, 9, 10, 11, 12, 13, 14, 15, 16, 17, 18, 19, 20, 21, 22, 23, 24, 25, 26, 27, 28, 29, 30, 31, 32, 33, 34, 35, 36, 37, 38, 39, 40, 41, 42, 43, 44, 45, 46, 47, 48, 49, 50, 51, 52, 53, 54, 55, 56, 57, 58, 59, 60, 61, 62, 63, 64, 65, 66, 67, 68, 69, 70, 71, 72, 73, 74, 75, 76, 77, 78, 79, 80, 81, 82, 83, 84, 85, 86, 87, 88, 89, 90, 91, 92, 93, 94, 95, 96, 97, 98, 99, 100, 101, 102, 103, 104, 105, 106, 107, 108, 109, 110, 111, 112, 113, 114, 115, 116, 117, 118, 119, 120, 121, 122, 123, 124, 125, 126, 127, 128, 129, 130, 131, 132, 133, 134, 135, 136, 137, 138, 139, 140, 141, 142, 143, 144, 145, 146, 147, 148, 149, 150, 151, 152, 153, 154, 155, 156, 157, 158, 159, 160, 161, 162, 163, 164, 165, 166, 167, 168, 169, 170, 171, 172, 173, 174, 175, 176, 177, 178, 179, 180, 181, 182, 183, 184, 185, 186, 187, 188, 189, 190, 191, 192, 193, 194, 195, 196, 197, 198, 199, 200, 201, 202, 203, 204, 205, 206, 207, 208, 209, 210, 211, 212, 213, 214, 215, 216, 217, 218, 219, 220, 221, 222, 223, 224, 225, 226, 227, 228, 229, 230, 231, 232, 233, 234, 235, 236, 237, 238, 239],
      "LargestImagePixelValue": [2938, 2922, 2855, 2865, 2830, 2964, 2808, 2891, 2818, 2844, 2816, 2829, 2813, 2853, 2860, 2817, 2879, 2816, 2889, 2809, 2860, 2807, 2846, 2861, 2824, 2857, 2810, 2852, 2817, 2877, 2786, 2865, 2820, 2840, 2921, 2844, 2881, 2827, 2813, 2887, 2837, 2887, 2870, 2877, 2849, 2892, 2889, 2873, 2899, 2857, 2924, 2853, 2877, 2887, 2860, 2889, 2841, 2894, 2832, 2850, 2811, 2875, 2845, 2856, 2847, 2872, 2851, 2888, 2890, 2896, 2901, 2872, 2941, 2814, 2902, 2832, 2827, 2829, 2870, 2840, 2859, 2844, 2849, 2858, 2834, 2873, 2813, 2842, 2869, 2829, 2875, 2818, 2854, 2826, 2877, 2850, 2829, 2881, 2818, 2886, 2841, 2879, 2840, 2917, 2874, 2877, 2860, 2847, 2859, 2857, 2900, 2848, 2898, 2857, 2841, 2899, 2863, 2897, 2846, 2870, 2831, 2888, 2856, 2903, 2847, 2893, 2844, 2870, 2877, 2862, 2869, 2846, 2900, 2862, 2928, 2843, 2907, 2879, 2930, 2867, 2967, 2900, 2936, 2893, 2889, 2922, 2860, 2916, 2852, 2873, 2895, 2872, 2928, 2892, 2913, 2890, 2885, 2900, 2863, 2883, 2857, 2886, 2859, 2931, 2871, 2898, 2884, 2919, 2908, 2881, 2908, 2902, 2903, 2864, 2911, 2869, 2894, 2889, 2867, 2888, 2864, 2881, 2855, 2906, 2899, 2878, 2851, 2882, 2849, 2879, 2882, 2857, 2874, 2878, 2905, 2868, 2887, 2851, 2884, 2868, 2863, 2859, 2878, 2882, 2867, 2900, 2865, 2883, 2873, 2870, 2882, 2872, 2891, 2896, 2919, 2881, 2905, 2875, 2913, 2860, 2893, 2877, 2892, 2878, 2852, 2894, 2890, 2873, 2858, 2883, 2898, 2891, 2897, 2888, 2898, 2897, 2871, 2884, 2907],
      "WindowCenter": [753.0, 752.0, 750.0, 751.0, 751.0, 755.0, 753.0, 752.0, 751.0, 750.0, 750.0, 750.0, 751.0, 751.0, 751.0, 751.0, 751.0, 750.0, 751.0, 751.0, 753.0, 752.0, 752.0, 751.0, 751.0, 750.0, 750.0, 750.0, 750.0, 749.0, 749.0, 750.0, 750.0, 749.0, 749.0, 748.0, 749.0, 748.0, 749.0, 750.0, 750.0, 751.0, 751.0, 751.0, 752.0, 752.0, 753.0, 752.0, 752.0, 751.0, 751.0, 752.0, 753.0, 753.0, 752.0, 752.0, 751.0, 751.0, 750.0, 750.0, 749.0, 749.0, 748.0, 748.0, 747.0, 749.0, 750.0, 750.0, 749.0, 749.0, 749.0, 750.0, 751.0, 751.0, 751.0, 750.0, 750.0, 749.0, 748.0, 748.0, 750.0, 750.0, 750.0, 749.0, 748.0, 748.0, 748.0, 748.0, 749.0, 750.0, 751.0, 750.0, 750.0, 749.0, 749.0, 749.0, 749.0, 750.0, 749.0, 750.0, 749.0, 750.0, 750.0, 751.0, 752.0, 752.0, 751.0, 751.0, 751.0, 751.0, 751.0, 751.0, 752.0, 751.0, 751.0, 750.0, 751.0, 750.0, 748.0, 748.0, 747.0, 748.0, 750.0, 751.0, 749.0, 749.0, 748.0, 747.0, 747.0, 747.0, 748.0, 747.0, 748.0, 749.0, 750.0, 750.0, 751.0, 750.0, 751.0, 751.0, 753.0, 752.0, 751.0, 751.0, 751.0, 751.0, 750.0, 749.0, 748.0, 747.0, 748.0, 748.0, 748.0, 748.0, 749.0, 749.0, 749.0, 748.0, 748.0, 747.0, 747.0, 749.0, 749.0, 750.0, 749.0, 750.0, 751.0, 750.0, 750.0, 750.0, 751.0, 750.0, 749.0, 749.0, 751.0, 751.0, 750.0, 748.0, 747.0, 748.0, 747.0, 748.0, 749.0, 749.0, 750.0, 750.0, 750.0, 750.0, 750.0, 748.0, 749.0, 749.0, 750.0, 749.0, 750.0, 751.0, 751.0, 750.0, 748.0, 747.0, 747.0, 747.0, 747.0, 748.0, 748.0, 748.0, 748.0, 749.0, 749.0, 749.0, 750.0, 750.0, 750.0, 749.0, 750.0, 752.0, 752.0, 751.0, 750.0, 748.0, 748.0, 748.0, 748.0, 748.0, 748.0, 747.0, 747.0, 748.0, 749.0, 749.0, 750.0, 750.0, 750.0, 749.0, 748.0, 749.0, 749.0, 748.0, 749.0],
      "WindowWidth": [1637.0, 1632.0, 1629.0, 1631.0, 1630.0, 1640.0, 1635.0, 1633.0, 1629.0, 1626.0, 1626.0, 1628.0, 1629.0, 1630.0, 1629.0, 1629.0, 1630.0, 1628.0, 1630.0, 1631.0, 1635.0, 1632.0, 1631.0, 1630.0, 1629.0, 1628.0, 1625.0, 1627.0, 1625.0, 1625.0, 1624.0, 1627.0, 1626.0, 1625.0, 1624.0, 1622.0, 1624.0, 1623.0, 1623.0, 1626.0, 1628.0, 1629.0, 1629.0, 1630.0, 1631.0, 1634.0, 1635.0, 1634.0, 1631.0, 1628.0, 1630.0, 1632.0, 1636.0, 1636.0, 1633.0, 1633.0, 1630.0, 1629.0, 1627.0, 1626.0, 1623.0, 1624.0, 1622.0, 1621.0, 1619.0, 1624.0, 1626.0, 1626.0, 1625.0, 1625.0, 1626.0, 1627.0, 1630.0, 1630.0, 1630.0, 1628.0, 1626.0, 1624.0, 1622.0, 1622.0, 1626.0, 1627.0, 1625.0, 1624.0, 1622.0, 1622.0, 1622.0, 1622.0, 1624.0, 1628.0, 1629.0, 1626.0, 1626.0, 1623.0, 1623.0, 1624.0, 1625.0, 1627.0, 1625.0, 1626.0, 1625.0, 1626.0, 1626.0, 1630.0, 1632.0, 1632.0, 1629.0, 1629.0, 1629.0, 1628.0, 1629.0, 1631.0, 1632.0, 1629.0, 1628.0, 1628.0, 1628.0, 1627.0, 1622.0, 1620.0, 1618.0, 1621.0, 1626.0, 1628.0, 1625.0, 1623.0, 1620.0, 1620.0, 1619.0, 1620.0, 1621.0, 1619.0, 1621.0, 1623.0, 1626.0, 1626.0, 1628.0, 1628.0, 1630.0, 1630.0, 1634.0, 1631.0, 1629.0, 1629.0, 1631.0, 1630.0, 1626.0, 1624.0, 1620.0, 1620.0, 1622.0, 1621.0, 1621.0, 1621.0, 1623.0, 1623.0, 1623.0, 1622.0, 1620.0, 1620.0, 1619.0, 1623.0, 1625.0, 1626.0, 1625.0, 1626.0, 1628.0, 1628.0, 1626.0, 1628.0, 1629.0, 1626.0, 1623.0, 1624.0, 1629.0, 1629.0, 1627.0, 1621.0, 1618.0, 1620.0, 1618.0, 1621.0, 1624.0, 1623.0, 1627.0, 1627.0, 1627.0, 1627.0, 1625.0, 1622.0, 1623.0, 1624.0, 1625.0, 1624.0, 1626.0, 1628.0, 1629.0, 1625.0, 1622.0, 1619.0, 1618.0, 1617.0, 1617.0, 1620.0, 1620.0, 1621.0, 1622.0, 1624.0, 1624.0, 1625.0, 1627.0, 1628.0, 1626.0, 1625.0, 1628.0, 1632.0, 1632.0, 1629.0, 1625.0, 1622.0, 1622.0, 1621.0, 1620.0, 1621.0, 1620.0, 1618.0, 1618.0, 1621.0, 1624.0, 1625.0, 1627.0, 1628.0, 1627.0, 1624.0, 1622.0, 1623.0, 1623.0, 1621.0, 1623.0]
    },
    "slices": {}
  }
}