{
  "AcquisitionMatrixPE": 72,
  "AcquisitionNumber": 1,
  "AcquisitionTime": "16:53:51.930000",
  "BandwidthPerPixelPhaseEncode": 17.943,
  "BaseResolution": 96,
  "BodyPartExamined": "BRAIN",
  "CoilCombinationMethod": "Sum of Squares",
  "ConsistencyInfo": "N4_VE11C_LATEST_20160120",
  "ConversionSoftware": "dcm2niix",
  "ConversionSoftwareVersion": "v1.0.20211006",
  "DerivedVendorReportedEchoSpacing": 0.000552897,
  "DeviceSerialNumber": "166011",
  "EchoTime": 0.03,
  "EchoTrainLength": 58,
  "EffectiveEchoSpacing": 0.000580542,
  "FlipAngle": 62,
  "ImageOrientationPatientDICOM": [0.998758, -0.00110549, -0.0498217, 0.00139455, 0.999982, 0.00576764],
  "ImageType": [
    "ORIGINAL",
    "PRIMARY",
    "M",
    "ND",
    "MOSAIC"
],
  "ImagingFrequency": 123.259,
  "InPlanePhaseEncodingDirectionDICOM": "COL",
  "InstitutionAddress": "West 130th Street 610,NY,NYC,US,10025",
  "InstitutionName": "MBBI",
  "MRAcquisitionType": "2D",
  "MagneticFieldStrength": 3,
  "Manufacturer": "Siemens",
  "ManufacturersModelName": "Prisma",
  "Modality": "MR",
  "MultibandAccelerationFactor": 3,
  "PartialFourier": 0.75,
  "PatientPosition": "HFS",
  "PercentPhaseFOV": 100,
  "PercentSampling": 75,
  "PhaseEncodingDirection": "j-",
  "PhaseEncodingSteps": 58,
  "PhaseOversampling": 0.05,
  "PhaseResolution": 0.75,
  "PixelBandwidth": 2265,
  "ProcedureStepDescription": "White^Word_recognition",
  "ProtocolName": "func_vwfate_run13",
  "PulseSequenceDetails": "%SiemensSeq%\\ep2d_bold",
  "ReceiveCoilActiveElements": "HC1-7",
  "ReceiveCoilName": "HeadNeck_64",
  "ReconMatrixPE": 96,
  "RefLinesPE": 40,
  "RepetitionTime": 1.5,
  "SAR": 0.0526487,
  "ScanOptions": "PFP\\FS",
  "ScanningSequence": "EP",
  "SequenceName": "*epfid2d1_72",
  "SequenceVariant": "SK\\OSP",
  "SeriesDescription": "func_vwfate_run13",
  "SeriesNumber": 8,
  "ShimSetting": [-1174, -1387, 740, 589, -142, -18, -41, 49],
  "SliceThickness": 2,
  "SliceTiming": [1.0775, 0, 0.74, 0.0675, 0.8075, 0.135, 0.875, 0.2025, 0.9425, 0.27, 1.01, 0.405, 1.145, 0.4725, 1.21, 0.5375, 1.2775, 0.605, 1.345, 0.6725, 1.4125, 0.3375, 1.0775, 0, 0.74, 0.0675, 0.8075, 0.135, 0.875, 0.2025, 0.9425, 0.27, 1.01, 0.405, 1.145, 0.4725, 1.21, 0.5375, 1.2775, 0.605, 1.345, 0.6725, 1.4125, 0.3375, 1.0775, 0, 0.74, 0.0675, 0.8075, 0.135, 0.875, 0.2025, 0.9425, 0.27, 1.01, 0.405, 1.145, 0.4725, 1.21, 0.5375, 1.2775, 0.605, 1.345, 0.6725, 1.4125, 0.3375],
  "SoftwareVersions": "syngo MR E11",
  "SpacingBetweenSlices": 2,
  "StationName": "AWP166011",
  "TaskName": "vwfate",
  "TotalReadoutTime": 0.0551515,
  "TxRefAmp": 214.652,
  "dcmmeta_affine": [
    [-1.997515082359314, 0.002789104823023081, -0.09962886571884155, 100.03141784667969],
    [0.0022109709680080414, 1.9999648332595825, 0.011659911833703518, -63.44742202758789],
    [-0.09964337199926376, -0.011535285972058773, 1.9974830150604248, -37.550411224365234],
    [0.0, 0.0, 0.0, 1.0]
],
  "dcmmeta_reorient_transform": [
    [0.0, -1.0, 0.0, 95.0],
    [1.0, 0.0, 0.0, 0.0],
    [0.0, 0.0, 1.0, 0.0],
    [0.0, 0.0, 0.0, 1.0]
],
  "dcmmeta_shape": [96, 96, 66, 164],
  "dcmmeta_slice_dim": 2,
  "dcmmeta_version": 0.6,
  "global": {
    "const": {
      "AcquisitionMatrix": [96, 0, 0, 72],
      "AngioFlag": "N",
      "BitsAllocated": 16,
      "BitsStored": 12,
      "BodyPartExamined": "BRAIN",
      "Columns": 864,
      "EchoNumbers": 1,
      "EchoTime": 30.0,
      "EchoTrainLength": 58,
      "FlipAngle": 62.0,
      "HighBit": 11,
      "ImageOrientationPatient": [0.99875751689853, -0.0011054854784, -0.0498216854446, 0.00139455241879, 0.99998239460394, 0.00576764299496],
      "ImagePositionPatient": [-868.41317242462, -893.68669866352, -4.8127574577737],
      "ImageType": [
        "ORIGINAL",
        "PRIMARY",
        "M",
        "ND",
        "MOSAIC"
],
      "ImagedNucleus": "1H",
      "ImagingFrequency": 123.259446,
      "InPlanePhaseEncodingDirection": "COL",
      "MRAcquisitionType": "2D",
      "MagneticFieldStrength": 3.0,
      "Manufacturer": "SIEMENS",
      "ManufacturerModelName": "Prisma",
      "Modality": "MR",
      "NumberOfAverages": 1.0,
      "NumberOfPhaseEncodingSteps": 58,
      "PercentPhaseFieldOfView": 100.0,
      "PercentSampling": 75.0,
      "PerformedProcedureStepStartTime": "162510.957000",
      "PhotometricInterpretation": "MONOCHROME2",
      "PixelBandwidth": 2265.0,
      "PixelRepresentation": 0,
      "PixelSpacing": [2.0, 2.0],
      "ProtocolName": "func_vwfate_run13",
      "RepetitionTime": 1500.0,
      "Rows": 864,
      "SAR": 0.05264872841041,
      "SamplesPerPixel": 1,
      "ScanOptions": [
        "PFP",
        "FS"
],
      "ScanningSequence": "EP",
      "SequenceName": "*epfid2d1_72",
      "SequenceVariant": [
        "SK",
        "OSP"
],
      "SeriesDescription": "func_vwfate_run13",
      "SeriesNumber": 8,
      "SeriesTime": "165429.584000",
      "SliceLocation": -42.856055735472,
      "SliceThickness": 2.0,
      "SmallestImagePixelValue": 0,
      "SoftwareVersions": "syngo MR E11",
      "SpacingBetweenSlices": 2.0000000540485,
      "SpecificCharacterSet": "ISO_IR 100",
      "StudyID": "3",
      "StudyTime": "162510.732000",
      "TransmitCoilName": "Body",
      "VariableFlipAngleFlag": "N",
      "WindowCenterWidthExplanation": "Algo1",
      "dBdt": 0.0},
    "slices": {}
  },
  "time": {
    "samples": {
      "AcquisitionNumber": [1, 2, 3, 4, 5, 6, 7, 8, 9, 10, 11, 12, 13, 14, 15, 16, 17, 18, 19, 20, 21, 22, 23, 24, 25, 26, 27, 28, 29, 30, 31, 32, 33, 34, 35, 36, 37, 38, 39, 40, 41, 42, 43, 44, 45, 46, 47, 48, 49, 50, 51, 52, 53, 54, 55, 56, 57, 58, 59, 60, 61, 62, 63, 64, 65, 66, 67, 68, 69, 70, 71, 72, 73, 74, 75, 76, 77, 78, 79, 80, 81, 82, 83, 84, 85, 86, 87, 88, 89, 90, 91, 92, 93, 94, 95, 96, 97, 98, 99, 100, 101, 102, 103, 104, 105, 106, 107, 108, 109, 110, 111, 112, 113, 114, 115, 116, 117, 118, 119, 120, 121, 122, 123, 124, 125, 126, 127, 128, 129, 130, 131, 132, 133, 134, 135, 136, 137, 138, 139, 140, 141, 142, 143, 144, 145, 146, 147, 148, 149, 150, 151, 152, 153, 154, 155, 156, 157, 158, 159, 160, 161, 162, 163, 164],
      "AcquisitionTime": ["165351.930000", "165353.430000", "165354.930000", "165356.430000", "165357.930000", "165359.430000", "165400.930000", "165402.430000", "165403.930000", "165405.430000", "165406.930000", "165408.430000", "165409.930000", "165411.430000", "165412.930000", "165414.430000", "165415.930000", "165417.430000", "165418.930000", "165420.430000", "165421.930000", "165423.430000", "165424.930000", "165426.430000", "165427.930000", "165429.430000", "165430.930000", "165432.430000", "165433.930000", "165435.430000", "165436.930000", "165438.430000", "165439.930000", "165441.430000", "165442.930000", "165444.430000", "165445.930000", "165447.430000", "165448.930000", "165450.430000", "165451.930000", "165453.430000", "165454.930000", "165456.430000", "165457.930000", "165459.430000", "165500.930000", "165502.430000", "165503.930000", "165505.430000", "165506.930000", "165508.430000", "165509.930000", "165511.430000", "165512.930000", "165514.430000", "165515.930000", "165517.430000", "165518.930000", "165520.430000", "165521.930000", "165523.430000", "165524.930000", "165526.430000", "165527.930000", "165529.430000", "165530.930000", "165532.430000", "165533.930000", "165535.430000", "165536.930000", "165538.430000", "165539.930000", "165541.430000", "165542.930000", "165544.430000", "165545.930000", "165547.430000", "165548.930000", "165550.430000", "165551.930000", "165553.430000", "165554.930000", "165556.430000", "165557.930000", "165559.430000", "165600.930000", "165602.430000", "165603.930000", "165605.430000", "165606.930000", "165608.430000", "165609.930000", "165611.430000", "165612.930000", "165614.430000", "165615.930000", "165617.430000", "165618.930000", "165620.430000", "165621.930000", "165623.430000", "165624.930000", "165626.430000", "165627.930000", "165629.430000", "165630.930000", "165632.430000", "165633.930000", "165635.430000", "165636.930000", "165638.430000", "165639.930000", "165641.430000", "165642.930000", "165644.430000", "165645.930000", "165647.430000", "165648.930000", "165650.430000", "165651.930000", "165653.430000", "165654.930000", "165656.430000", "165657.930000", "165659.430000", "165700.930000", "165702.430000", "165703.930000", "165705.430000", "165706.930000", "165708.430000", "165709.930000", "165711.430000", "165712.930000", "165714.430000", "165715.930000", "165717.430000", "165718.930000", "165720.430000", "165721.930000", "165723.430000", "165724.930000", "165726.430000", "165727.930000", "165729.430000", "165730.930000", "165732.430000", "165733.930000", "165735.430000", "165736.930000", "165738.430000", "165739.930000", "165741.430000", "165742.930000", "165744.430000", "165745.930000", "165747.430000", "165748.930000", "165750.430000", "165751.930000", "165753.430000", "165754.930000", "165756.430000"],
      "ContentTime": ["165429.589000", "165429.593000", "165429.599000", "165429.605000", "165429.608000", "165429.611000", "165429.614000", "165429.617000", "165429.620000", "165429.623000", "165429.626000", "165429.629000", "165429.632000", "165429.635000", "165429.638000", "165429.641000", "165429.644000", "165429.648000", "165429.651000", "165429.654000", "165429.661000", "165429.665000", "165429.668000", "165429.671000", "165429.674000", "165509.578000", "165509.581000", "165509.589000", "165509.592000", "165509.595000", "165509.598000", "165509.601000", "165509.605000", "165509.608000", "165509.611000", "165509.614000", "165509.617000", "165509.620000", "165509.623000", "165509.626000", "165509.629000", "165509.632000", "165509.635000", "165509.638000", "165509.641000", "165509.644000", "165509.656000", "165509.659000", "165509.662000", "165509.665000", "165509.668000", "165549.577000", "165549.580000", "165549.583000", "165549.587000", "165549.590000", "165549.593000", "165549.596000", "165549.599000", "165549.602000", "165549.605000", "165549.608000", "165549.611000", "165549.614000", "165549.617000", "165549.620000", "165549.623000", "165549.626000", "165549.629000", "165549.632000", "165549.635000", "165549.638000", "165549.649000", "165549.652000", "165549.656000", "165549.659000", "165549.662000", "165549.665000", "165629.577000", "165629.580000", "165629.583000", "165629.586000", "165629.589000", "165629.592000", "165629.596000", "165629.599000", "165629.602000", "165629.605000", "165629.608000", "165629.611000", "165629.614000", "165629.617000", "165629.620000", "165629.623000", "165629.626000", "165629.629000", "165629.632000", "165629.635000", "165629.638000", "165629.641000", "165629.644000", "165629.647000", "165629.650000", "165629.653000", "165629.656000", "165709.577000", "165709.580000", "165709.583000", "165709.586000", "165709.590000", "165709.593000", "165709.595000", "165709.600000", "165709.603000", "165709.606000", "165709.609000", "165709.612000", "165709.615000", "165709.618000", "165709.621000", "165709.624000", "165709.627000", "165709.630000", "165709.633000", "165709.636000", "165709.639000", "165709.642000", "165709.645000", "165709.648000", "165709.651000", "165709.654000", "165749.577000", "165749.580000", "165749.583000", "165749.586000", "165749.589000", "165749.592000", "165749.595000", "165749.598000", "165749.601000", "165749.604000", "165749.607000", "165749.611000", "165749.614000", "165749.617000", "165749.620000", "165749.623000", "165749.626000", "165749.629000", "165749.632000", "165749.635000", "165749.638000", "165749.641000", "165749.644000", "165749.647000", "165749.650000", "165749.653000", "165749.656000", "165757.868000", "165757.872000", "165757.875000", "165757.878000", "165757.881000", "165757.884000"],
      "InstanceCreationTime": ["165429.589000", "165429.593000", "165429.599000", "165429.605000", "165429.608000", "165429.611000", "165429.614000", "165429.617000", "165429.620000", "165429.623000", "165429.626000", "165429.629000", "165429.632000", "165429.635000", "165429.638000", "165429.641000", "165429.644000", "165429.648000", "165429.651000", "165429.654000", "165429.661000", "165429.665000", "165429.668000", "165429.671000", "165429.674000", "165509.578000", "165509.581000", "165509.589000", "165509.592000", "165509.595000", "165509.598000", "165509.601000", "165509.605000", "165509.608000", "165509.611000", "165509.614000", "165509.617000", "165509.620000", "165509.623000", "165509.626000", "165509.629000", "165509.632000", "165509.635000", "165509.638000", "165509.641000", "165509.644000", "165509.656000", "165509.659000", "165509.662000", "165509.665000", "165509.668000", "165549.577000", "165549.580000", "165549.583000", "165549.587000", "165549.590000", "165549.593000", "165549.596000", "165549.599000", "165549.602000", "165549.605000", "165549.608000", "165549.611000", "165549.614000", "165549.617000", "165549.620000", "165549.623000", "165549.626000", "165549.629000", "165549.632000", "165549.635000", "165549.638000", "165549.649000", "165549.652000", "165549.656000", "165549.659000", "165549.662000", "165549.665000", "165629.577000", "165629.580000", "165629.583000", "165629.586000", "165629.589000", "165629.592000", "165629.596000", "165629.599000", "165629.602000", "165629.605000", "165629.608000", "165629.611000", "165629.614000", "165629.617000", "165629.620000", "165629.623000", "165629.626000", "165629.629000", "165629.632000", "165629.635000", "165629.638000", "165629.641000", "165629.644000", "165629.647000", "165629.650000", "165629.653000", "165629.656000", "165709.577000", "165709.580000", "165709.583000", "165709.586000", "165709.590000", "165709.593000", "165709.595000", "165709.600000", "165709.603000", "165709.606000", "165709.609000", "165709.612000", "165709.615000", "165709.618000", "165709.621000", "165709.624000", "165709.627000", "165709.630000", "165709.633000", "165709.636000", "165709.639000", "165709.642000", "165709.645000", "165709.648000", "165709.651000", "165709.654000", "165749.577000", "165749.580000", "165749.583000", "165749.586000", "165749.589000", "165749.592000", "165749.595000", "165749.598000", "165749.601000", "165749.604000", "165749.607000", "165749.611000", "165749.614000", "165749.617000", "165749.620000", "165749.623000", "165749.626000", "165749.629000", "165749.632000", "165749.635000", "165749.638000", "165749.641000", "165749.644000", "165749.647000", "165749.650000", "165749.653000", "165749.656000", "165757.868000", "165757.872000", "165757.875000", "165757.878000", "165757.881000", "165757.884000"],
      "InstanceNumber": [1, 2, 3, 4, 5, 6, 7, 8, 9, 10, 11, 12, 13, 14, 15, 16, 17, 18, 19, 20, 21, 22, 23, 24, 25, 26, 27, 28, 29, 30, 31, 32, 33, 34, 35, 36, 37, 38, 39, 40, 41, 42, 43, 44, 45, 46, 47, 48, 49, 50, 51, 52, 53, 54, 55, 56, 57, 58, 59, 60, 61, 62, 63, 64, 65, 66, 67, 68, 69, 70, 71, 72, 73, 74, 75, 76, 77, 78, 79, 80, 81, 82, 83, 84, 85, 86, 87, 88, 89, 90, 91, 92, 93, 94, 95, 96, 97, 98, 99, 100, 101, 102, 103, 104, 105, 106, 107, 108, 109, 110, 111, 112, 113, 114, 115, 116, 117, 118, 119, 120, 121, 122, 123, 124, 125, 126, 127, 128, 129, 130, 131, 132, 133, 134, 135, 136, 137, 138, 139, 140, 141, 142, 143, 144, 145, 146, 147, 148, 149, 150, 151, 152, 153, 154, 155, 156, 157, 158, 159, 160, 161, 162, 163, 164],
      "LargestImagePixelValue": [3062, 3002, 2935, 2925, 2907, 2906, 2887, 2892, 2895, 2882, 2887, 2897, 2870, 2905, 2889, 2892, 2877, 2889, 2918, 2867, 2916, 2886, 2891, 2910, 2876, 2888, 2910, 2912, 2904, 2881, 2874, 2892, 2896, 2885, 2857, 2909, 2886, 2903, 2903, 2911, 2892, 2934, 2911, 2905, 2897, 2915, 2890, 2902, 2892, 2908, 2902, 2897, 2897, 2906, 2915, 2906, 2904, 2902, 2897, 2897, 2912, 2830, 2807, 2853, 2874, 2913, 2905, 2899, 2897, 2910, 2891, 2887, 2898, 2901, 2896, 2916, 2898, 2896, 2899, 2900, 2930, 2910, 2890, 2880, 2901, 2892, 2894, 2892, 2885, 2886, 2893, 2884, 2886, 2897, 2892, 2879, 2880, 2881, 2908, 2893, 2885, 2900, 2885, 2907, 2899, 2883, 2885, 2895, 2898, 2899, 2888, 2903, 2835, 2915, 2879, 2870, 2891, 2869, 2878, 2866, 2896, 2848, 2821, 2861, 2863, 2880, 2824, 2887, 2876, 2886, 2866, 2856, 2869, 2851, 2905, 2887, 2873, 2875, 2850, 2886, 2863, 2860, 2879, 2864, 2885, 2868, 2840, 2872, 2864, 2878, 2876, 3012, 2883, 2839, 2886, 2862, 2868, 2868, 2849, 2879, 2842, 2916, 2882, 2880],
      "WindowCenter": [759.0, 758.0, 758.0, 757.0, 757.0, 756.0, 756.0, 756.0, 756.0, 755.0, 755.0, 755.0, 755.0, 755.0, 755.0, 755.0, 755.0, 755.0, 755.0, 755.0, 755.0, 754.0, 755.0, 755.0, 755.0, 756.0, 757.0, 757.0, 757.0, 756.0, 755.0, 755.0, 755.0, 756.0, 756.0, 756.0, 755.0, 755.0, 754.0, 754.0, 755.0, 756.0, 756.0, 756.0, 755.0, 755.0, 755.0, 755.0, 755.0, 755.0, 756.0, 756.0, 756.0, 756.0, 756.0, 755.0, 756.0, 756.0, 757.0, 757.0, 754.0, 758.0, 756.0, 756.0, 755.0, 755.0, 755.0, 755.0, 755.0, 755.0, 754.0, 753.0, 753.0, 753.0, 754.0, 754.0, 755.0, 755.0, 756.0, 755.0, 756.0, 756.0, 756.0, 756.0, 756.0, 756.0, 756.0, 756.0, 756.0, 756.0, 755.0, 754.0, 753.0, 754.0, 754.0, 755.0, 755.0, 754.0, 754.0, 754.0, 754.0, 754.0, 755.0, 754.0, 753.0, 752.0, 752.0, 752.0, 753.0, 754.0, 755.0, 755.0, 755.0, 755.0, 754.0, 753.0, 753.0, 753.0, 753.0, 754.0, 754.0, 756.0, 756.0, 755.0, 755.0, 754.0, 753.0, 753.0, 753.0, 754.0, 755.0, 755.0, 754.0, 754.0, 754.0, 754.0, 754.0, 754.0, 754.0, 754.0, 754.0, 753.0, 753.0, 752.0, 753.0, 753.0, 753.0, 754.0, 754.0, 754.0, 754.0, 754.0, 753.0, 753.0, 754.0, 753.0, 753.0, 752.0, 751.0, 751.0, 752.0, 753.0, 753.0, 753.0],
      "WindowWidth": [1655.0, 1651.0, 1650.0, 1648.0, 1647.0, 1645.0, 1645.0, 1644.0, 1643.0, 1642.0, 1642.0, 1642.0, 1641.0, 1642.0, 1642.0, 1641.0, 1641.0, 1641.0, 1642.0, 1641.0, 1640.0, 1640.0, 1641.0, 1642.0, 1643.0, 1645.0, 1647.0, 1646.0, 1646.0, 1644.0, 1643.0, 1642.0, 1642.0, 1643.0, 1645.0, 1645.0, 1643.0, 1641.0, 1639.0, 1640.0, 1641.0, 1644.0, 1644.0, 1643.0, 1643.0, 1642.0, 1641.0, 1641.0, 1642.0, 1643.0, 1644.0, 1644.0, 1644.0, 1644.0, 1643.0, 1643.0, 1644.0, 1645.0, 1646.0, 1647.0, 1640.0, 1651.0, 1644.0, 1643.0, 1642.0, 1641.0, 1641.0, 1641.0, 1641.0, 1640.0, 1639.0, 1637.0, 1635.0, 1635.0, 1637.0, 1640.0, 1641.0, 1643.0, 1643.0, 1643.0, 1644.0, 1645.0, 1645.0, 1645.0, 1645.0, 1644.0, 1645.0, 1645.0, 1645.0, 1644.0, 1642.0, 1639.0, 1637.0, 1638.0, 1639.0, 1640.0, 1641.0, 1639.0, 1637.0, 1638.0, 1639.0, 1639.0, 1640.0, 1639.0, 1637.0, 1633.0, 1632.0, 1632.0, 1636.0, 1638.0, 1641.0, 1642.0, 1642.0, 1642.0, 1639.0, 1636.0, 1635.0, 1636.0, 1636.0, 1637.0, 1640.0, 1643.0, 1643.0, 1642.0, 1640.0, 1637.0, 1634.0, 1634.0, 1636.0, 1638.0, 1640.0, 1640.0, 1639.0, 1637.0, 1638.0, 1639.0, 1639.0, 1639.0, 1638.0, 1639.0, 1638.0, 1636.0, 1635.0, 1634.0, 1634.0, 1635.0, 1635.0, 1637.0, 1637.0, 1638.0, 1637.0, 1639.0, 1636.0, 1636.0, 1637.0, 1635.0, 1634.0, 1633.0, 1631.0, 1631.0, 1632.0, 1635.0, 1635.0, 1636.0]
    },
    "slices": {}
  }
}