{
  "AcquisitionMatrixPE": 72,
  "AcquisitionNumber": 1,
  "AcquisitionTime": "17:09:55.957500",
  "BandwidthPerPixelPhaseEncode": 17.943,
  "BaseResolution": 96,
  "BodyPartExamined": "BRAIN",
  "CoilCombinationMethod": "Sum of Squares",
  "ConsistencyInfo": "N4_VE11C_LATEST_20160120",
  "ConversionSoftware": "dcm2niix",
  "ConversionSoftwareVersion": "v1.0.20211006",
  "DerivedVendorReportedEchoSpacing": 0.000552897,
  "DeviceSerialNumber": "166011",
  "EchoTime": 0.03,
  "EchoTrainLength": 58,
  "EffectiveEchoSpacing": 0.000580542,
  "FlipAngle": 62,
  "ImageOrientationPatientDICOM": [0.998758, -0.00110549, -0.0498217, 0.00139455, 0.999982, 0.00576764],
  "ImageType": [
    "ORIGINAL",
    "PRIMARY",
    "M",
    "ND",
    "MOSAIC"
],
  "ImagingFrequency": 123.259,
  "InPlanePhaseEncodingDirectionDICOM": "COL",
  "InstitutionAddress": "West 130th Street 610,NY,NYC,US,10025",
  "InstitutionName": "MBBI",
  "MRAcquisitionType": "2D",
  "MagneticFieldStrength": 3,
  "Manufacturer": "Siemens",
  "ManufacturersModelName": "Prisma",
  "Modality": "MR",
  "MultibandAccelerationFactor": 3,
  "PartialFourier": 0.75,
  "PatientPosition": "HFS",
  "PercentPhaseFOV": 100,
  "PercentSampling": 75,
  "PhaseEncodingDirection": "j-",
  "PhaseEncodingSteps": 58,
  "PhaseOversampling": 0.05,
  "PhaseResolution": 0.75,
  "PixelBandwidth": 2265,
  "ProcedureStepDescription": "White^Word_recognition",
  "ProtocolName": "func_language_run1",
  "PulseSequenceDetails": "%SiemensSeq%\\ep2d_bold",
  "ReceiveCoilActiveElements": "HC1-7",
  "ReceiveCoilName": "HeadNeck_64",
  "ReconMatrixPE": 96,
  "RefLinesPE": 40,
  "RepetitionTime": 1.5,
  "SAR": 0.0528708,
  "ScanOptions": "PFP\\FS",
  "ScanningSequence": "EP",
  "SequenceName": "*epfid2d1_72",
  "SequenceVariant": "SK\\OSP",
  "SeriesDescription": "func_language_run1",
  "SeriesNumber": 11,
  "ShimSetting": [-1174, -1387, 740, 589, -142, -18, -41, 49],
  "SliceThickness": 2,
  "SliceTiming": [1.075, 0, 0.74, 0.0675, 0.8075, 0.1325, 0.8725, 0.2, 0.94, 0.2675, 1.0075, 0.4025, 1.1425, 0.47, 1.21, 0.5375, 1.2775, 0.605, 1.345, 0.6725, 1.4125, 0.335, 1.075, 0, 0.74, 0.0675, 0.8075, 0.1325, 0.8725, 0.2, 0.94, 0.2675, 1.0075, 0.4025, 1.1425, 0.47, 1.21, 0.5375, 1.2775, 0.605, 1.345, 0.6725, 1.4125, 0.335, 1.075, 0, 0.74, 0.0675, 0.8075, 0.1325, 0.8725, 0.2, 0.94, 0.2675, 1.0075, 0.4025, 1.1425, 0.47, 1.21, 0.5375, 1.2775, 0.605, 1.345, 0.6725, 1.4125, 0.335],
  "SoftwareVersions": "syngo MR E11",
  "SpacingBetweenSlices": 2,
  "StationName": "AWP166011",
  "TaskName": "langLoc",
  "TotalReadoutTime": 0.0551515,
  "TxRefAmp": 214.652,
  "dcmmeta_affine": [
    [-1.997515082359314, 0.002789104823023081, -0.09962886571884155, 100.03141784667969],
    [0.0022109709680080414, 1.9999648332595825, 0.011659911833703518, -63.44742202758789],
    [-0.09964337199926376, -0.011535285972058773, 1.9974830150604248, -37.550411224365234],
    [0.0, 0.0, 0.0, 1.0]
],
  "dcmmeta_reorient_transform": [
    [0.0, -1.0, 0.0, 95.0],
    [1.0, 0.0, 0.0, 0.0],
    [0.0, 0.0, 1.0, 0.0],
    [0.0, 0.0, 0.0, 1.0]
],
  "dcmmeta_shape": [96, 96, 66, 239],
  "dcmmeta_slice_dim": 2,
  "dcmmeta_version": 0.6,
  "global": {
    "const": {
      "AcquisitionMatrix": [96, 0, 0, 72],
      "AngioFlag": "N",
      "BitsAllocated": 16,
      "BitsStored": 12,
      "BodyPartExamined": "BRAIN",
      "Columns": 864,
      "EchoNumbers": 1,
      "EchoTime": 30.0,
      "EchoTrainLength": 58,
      "FlipAngle": 62.0,
      "HighBit": 11,
      "ImageOrientationPatient": [0.99875751689853, -0.0011054854784, -0.0498216854446, 0.00139455241879, 0.99998239460394, 0.00576764299496],
      "ImagePositionPatient": [-868.41317242462, -893.68669866352, -4.8127574577737],
      "ImageType": [
        "ORIGINAL",
        "PRIMARY",
        "M",
        "ND",
        "MOSAIC"
],
      "ImagedNucleus": "1H",
      "ImagingFrequency": 123.259455,
      "InPlanePhaseEncodingDirection": "COL",
      "MRAcquisitionType": "2D",
      "MagneticFieldStrength": 3.0,
      "Manufacturer": "SIEMENS",
      "ManufacturerModelName": "Prisma",
      "Modality": "MR",
      "NumberOfAverages": 1.0,
      "NumberOfPhaseEncodingSteps": 58,
      "PercentPhaseFieldOfView": 100.0,
      "PercentSampling": 75.0,
      "PerformedProcedureStepStartTime": "162510.957000",
      "PhotometricInterpretation": "MONOCHROME2",
      "PixelBandwidth": 2265.0,
      "PixelRepresentation": 0,
      "PixelSpacing": [2.0, 2.0],
      "ProtocolName": "func_language_run1",
      "RepetitionTime": 1500.0,
      "Rows": 864,
      "SAR": 0.05287075097298,
      "SamplesPerPixel": 1,
      "ScanOptions": [
        "PFP",
        "FS"
],
      "ScanningSequence": "EP",
      "SequenceName": "*epfid2d1_72",
      "SequenceVariant": [
        "SK",
        "OSP"
],
      "SeriesDescription": "func_language_run1",
      "SeriesNumber": 11,
      "SeriesTime": "171029.578000",
      "SliceLocation": -42.856055735472,
      "SliceThickness": 2.0,
      "SmallestImagePixelValue": 0,
      "SoftwareVersions": "syngo MR E11",
      "SpacingBetweenSlices": 2.0000000540485,
      "SpecificCharacterSet": "ISO_IR 100",
      "StudyID": "3",
      "StudyTime": "162510.732000",
      "TransmitCoilName": "Body",
      "VariableFlipAngleFlag": "N",
      "WindowCenterWidthExplanation": "Algo1",
      "dBdt": 0.0},
    "slices": {}
  },
  "time": {
    "samples": {
      "AcquisitionNumber": [1, 2, 3, 4, 5, 6, 7, 8, 9, 10, 11, 12, 13, 14, 15, 16, 17, 18, 19, 20, 21, 22, 23, 24, 25, 26, 27, 28, 29, 30, 31, 32, 33, 34, 35, 36, 37, 38, 39, 40, 41, 42, 43, 44, 45, 46, 47, 48, 49, 50, 51, 52, 53, 54, 55, 56, 57, 58, 59, 60, 61, 62, 63, 64, 65, 66, 67, 68, 69, 70, 71, 72, 73, 74, 75, 76, 77, 78, 79, 80, 81, 82, 83, 84, 85, 86, 87, 88, 89, 90, 91, 92, 93, 94, 95, 96, 97, 98, 99, 100, 101, 102, 103, 104, 105, 106, 107, 108, 109, 110, 111, 112, 113, 114, 115, 116, 117, 118, 119, 120, 121, 122, 123, 124, 125, 126, 127, 128, 129, 130, 131, 132, 133, 134, 135, 136, 137, 138, 139, 140, 141, 142, 143, 144, 145, 146, 147, 148, 149, 150, 151, 152, 153, 154, 155, 156, 157, 158, 159, 160, 161, 162, 163, 164, 165, 166, 167, 168, 169, 170, 171, 172, 173, 174, 175, 176, 177, 178, 179, 180, 181, 182, 183, 184, 185, 186, 187, 188, 189, 190, 191, 192, 193, 194, 195, 196, 197, 198, 199, 200, 201, 202, 203, 204, 205, 206, 207, 208, 209, 210, 211, 212, 213, 214, 215, 216, 217, 218, 219, 220, 221, 222, 223, 224, 225, 226, 227, 228, 229, 230, 231, 232, 233, 234, 235, 236, 237, 238, 239],
      "AcquisitionTime": ["170955.957500", "170957.457500", "170958.957500", "171000.457500", "171001.957500", "171003.457500", "171004.957500", "171006.457500", "171007.957500", "171009.457500", "171010.957500", "171012.457500", "171013.957500", "171015.457500", "171016.957500", "171018.457500", "171019.957500", "171021.457500", "171022.957500", "171024.457500", "171025.957500", "171027.457500", "171028.957500", "171030.457500", "171031.957500", "171033.457500", "171034.957500", "171036.457500", "171037.957500", "171039.457500", "171040.957500", "171042.457500", "171043.957500", "171045.457500", "171046.957500", "171048.457500", "171049.957500", "171051.457500", "171052.957500", "171054.457500", "171055.957500", "171057.457500", "171058.957500", "171100.457500", "171101.957500", "171103.457500", "171104.957500", "171106.457500", "171107.957500", "171109.457500", "171110.957500", "171112.457500", "171113.957500", "171115.457500", "171116.957500", "171118.457500", "171119.957500", "171121.457500", "171122.957500", "171124.457500", "171125.957500", "171127.457500", "171128.957500", "171130.457500", "171131.957500", "171133.457500", "171134.957500", "171136.457500", "171137.957500", "171139.457500", "171140.957500", "171142.457500", "171143.957500", "171145.457500", "171146.957500", "171148.457500", "171149.957500", "171151.457500", "171152.957500", "171154.457500", "171155.957500", "171157.457500", "171158.957500", "171200.457500", "171201.957500", "171203.457500", "171204.957500", "171206.457500", "171207.957500", "171209.457500", "171210.957500", "171212.457500", "171213.957500", "171215.457500", "171216.957500", "171218.457500", "171219.957500", "171221.457500", "171222.957500", "171224.457500", "171225.957500", "171227.457500", "171228.957500", "171230.457500", "171231.957500", "171233.457500", "171234.957500", "171236.457500", "171237.957500", "171239.457500", "171240.957500", "171242.457500", "171243.957500", "171245.457500", "171246.957500", "171248.457500", "171249.957500", "171251.457500", "171252.957500", "171254.457500", "171255.957500", "171257.457500", "171258.957500", "171300.457500", "171301.957500", "171303.457500", "171304.957500", "171306.457500", "171307.957500", "171309.457500", "171310.957500", "171312.457500", "171313.957500", "171315.457500", "171316.957500", "171318.457500", "171319.957500", "171321.457500", "171322.957500", "171324.457500", "171325.957500", "171327.457500", "171328.957500", "171330.457500", "171331.957500", "171333.457500", "171334.957500", "171336.457500", "171337.957500", "171339.457500", "171340.957500", "171342.457500", "171343.957500", "171345.457500", "171346.957500", "171348.457500", "171349.957500", "171351.457500", "171352.957500", "171354.457500", "171355.957500", "171357.457500", "171358.957500", "171400.457500", "171401.957500", "171403.457500", "171404.957500", "171406.457500", "171407.957500", "171409.457500", "171410.957500", "171412.457500", "171413.957500", "171415.457500", "171416.957500", "171418.457500", "171419.957500", "171421.457500", "171422.957500", "171424.457500", "171425.957500", "171427.457500", "171428.957500", "171430.457500", "171431.957500", "171433.457500", "171434.957500", "171436.457500", "171437.957500", "171439.457500", "171440.957500", "171442.457500", "171443.957500", "171445.457500", "171446.957500", "171448.457500", "171449.957500", "171451.457500", "171452.957500", "171454.457500", "171455.957500", "171457.457500", "171458.957500", "171500.457500", "171501.957500", "171503.457500", "171504.957500", "171506.457500", "171507.957500", "171509.457500", "171510.957500", "171512.457500", "171513.957500", "171515.457500", "171516.957500", "171518.457500", "171519.957500", "171521.457500", "171522.957500", "171524.457500", "171525.957500", "171527.457500", "171528.957500", "171530.457500", "171531.957500", "171533.457500", "171534.957500", "171536.457500", "171537.957500", "171539.457500", "171540.957500", "171542.457500", "171543.957500", "171545.457500", "171546.957500", "171548.457500", "171549.957500", "171551.457500", "171552.957500"],
      "ContentTime": ["171029.582000", "171029.586000", "171029.589000", "171029.592000", "171029.595000", "171029.599000", "171029.602000", "171029.605000", "171029.608000", "171029.611000", "171029.613000", "171029.626000", "171029.650000", "171029.655000", "171029.658000", "171029.661000", "171029.664000", "171029.672000", "171029.675000", "171029.684000", "171029.687000", "171029.690000", "171109.577000", "171109.580000", "171109.583000", "171109.586000", "171109.589000", "171109.592000", "171109.595000", "171109.598000", "171109.601000", "171109.604000", "171109.608000", "171109.611000", "171109.613000", "171109.616000", "171109.619000", "171109.623000", "171109.625000", "171109.628000", "171109.632000", "171109.634000", "171109.637000", "171109.640000", "171109.643000", "171109.646000", "171109.649000", "171109.652000", "171109.655000", "171149.577000", "171149.580000", "171149.583000", "171149.587000", "171149.590000", "171149.592000", "171149.595000", "171149.599000", "171149.602000", "171149.604000", "171149.607000", "171149.611000", "171149.614000", "171149.617000", "171149.620000", "171149.623000", "171149.626000", "171149.629000", "171149.632000", "171149.635000", "171149.638000", "171149.652000", "171149.655000", "171149.658000", "171149.661000", "171149.664000", "171229.577000", "171229.580000", "171229.583000", "171229.586000", "171229.589000", "171229.592000", "171229.595000", "171229.599000", "171229.602000", "171229.605000", "171229.608000", "171229.611000", "171229.614000", "171229.617000", "171229.620000", "171229.623000", "171229.626000", "171229.629000", "171229.632000", "171229.635000", "171229.638000", "171229.641000", "171229.644000", "171229.647000", "171229.650000", "171229.653000", "171229.656000", "171309.577000", "171309.580000", "171309.583000", "171309.586000", "171309.589000", "171309.592000", "171309.595000", "171309.598000", "171309.601000", "171309.604000", "171309.608000", "171309.611000", "171309.614000", "171309.616000", "171309.620000", "171309.623000", "171309.626000", "171309.629000", "171309.632000", "171309.635000", "171309.638000", "171309.640000", "171309.644000", "171309.647000", "171309.650000", "171309.652000", "171309.656000", "171349.578000", "171349.581000", "171349.585000", "171349.588000", "171349.591000", "171349.594000", "171349.597000", "171349.600000", "171349.603000", "171349.606000", "171349.609000", "171349.612000", "171349.615000", "171349.618000", "171349.621000", "171349.624000", "171349.627000", "171349.630000", "171349.633000", "171349.636000", "171349.639000", "171349.642000", "171349.645000", "171349.648000", "171349.651000", "171349.654000", "171429.577000", "171429.580000", "171429.583000", "171429.586000", "171429.589000", "171429.592000", "171429.595000", "171429.598000", "171429.601000", "171429.604000", "171429.607000", "171429.611000", "171429.613000", "171429.616000", "171429.620000", "171429.623000", "171429.626000", "171429.629000", "171429.632000", "171429.635000", "171429.638000", "171429.641000", "171429.644000", "171429.647000", "171429.650000", "171429.653000", "171429.656000", "171509.577000", "171509.580000", "171509.583000", "171509.586000", "171509.589000", "171509.592000", "171509.596000", "171509.598000", "171509.601000", "171509.604000", "171509.608000", "171509.611000", "171509.614000", "171509.617000", "171509.620000", "171509.623000", "171509.626000", "171509.641000", "171509.644000", "171509.647000", "171509.650000", "171509.653000", "171509.656000", "171509.659000", "171509.662000", "171509.665000", "171509.668000", "171549.577000", "171549.580000", "171549.583000", "171549.587000", "171549.590000", "171549.593000", "171549.596000", "171549.599000", "171549.602000", "171549.605000", "171549.608000", "171549.611000", "171549.615000", "171549.618000", "171549.621000", "171549.624000", "171549.627000", "171549.630000", "171549.633000", "171549.636000", "171549.639000", "171549.642000", "171549.645000", "171549.648000", "171549.651000", "171549.655000", "171554.333000", "171554.337000", "171554.340000", "171554.343000"],
      "InstanceCreationTime": ["171029.582000", "171029.586000", "171029.589000", "171029.592000", "171029.595000", "171029.599000", "171029.602000", "171029.605000", "171029.608000", "171029.611000", "171029.613000", "171029.626000", "171029.650000", "171029.655000", "171029.658000", "171029.661000", "171029.664000", "171029.672000", "171029.675000", "171029.684000", "171029.687000", "171029.690000", "171109.577000", "171109.580000", "171109.583000", "171109.586000", "171109.589000", "171109.592000", "171109.595000", "171109.598000", "171109.601000", "171109.604000", "171109.608000", "171109.611000", "171109.613000", "171109.616000", "171109.619000", "171109.623000", "171109.625000", "171109.628000", "171109.632000", "171109.634000", "171109.637000", "171109.640000", "171109.643000", "171109.646000", "171109.649000", "171109.652000", "171109.655000", "171149.577000", "171149.580000", "171149.583000", "171149.587000", "171149.590000", "171149.592000", "171149.595000", "171149.599000", "171149.602000", "171149.604000", "171149.607000", "171149.611000", "171149.614000", "171149.617000", "171149.620000", "171149.623000", "171149.626000", "171149.629000", "171149.632000", "171149.635000", "171149.638000", "171149.652000", "171149.655000", "171149.658000", "171149.661000", "171149.664000", "171229.577000", "171229.580000", "171229.583000", "171229.586000", "171229.589000", "171229.592000", "171229.595000", "171229.599000", "171229.602000", "171229.605000", "171229.608000", "171229.611000", "171229.614000", "171229.617000", "171229.620000", "171229.623000", "171229.626000", "171229.629000", "171229.632000", "171229.635000", "171229.638000", "171229.641000", "171229.644000", "171229.647000", "171229.650000", "171229.653000", "171229.656000", "171309.577000", "171309.580000", "171309.583000", "171309.586000", "171309.589000", "171309.592000", "171309.595000", "171309.598000", "171309.601000", "171309.604000", "171309.608000", "171309.611000", "171309.614000", "171309.616000", "171309.620000", "171309.623000", "171309.626000", "171309.629000", "171309.632000", "171309.635000", "171309.638000", "171309.640000", "171309.644000", "171309.647000", "171309.650000", "171309.652000", "171309.656000", "171349.578000", "171349.581000", "171349.585000", "171349.588000", "171349.591000", "171349.594000", "171349.597000", "171349.600000", "171349.603000", "171349.606000", "171349.609000", "171349.612000", "171349.615000", "171349.618000", "171349.621000", "171349.624000", "171349.627000", "171349.630000", "171349.633000", "171349.636000", "171349.639000", "171349.642000", "171349.645000", "171349.648000", "171349.651000", "171349.654000", "171429.577000", "171429.580000", "171429.583000", "171429.586000", "171429.589000", "171429.592000", "171429.595000", "171429.598000", "171429.601000", "171429.604000", "171429.607000", "171429.611000", "171429.613000", "171429.616000", "171429.620000", "171429.623000", "171429.626000", "171429.629000", "171429.632000", "171429.635000", "171429.638000", "171429.641000", "171429.644000", "171429.647000", "171429.650000", "171429.653000", "171429.656000", "171509.577000", "171509.580000", "171509.583000", "171509.586000", "171509.589000", "171509.592000", "171509.596000", "171509.598000", "171509.601000", "171509.604000", "171509.608000", "171509.611000", "171509.614000", "171509.617000", "171509.620000", "171509.623000", "171509.626000", "171509.641000", "171509.644000", "171509.647000", "171509.650000", "171509.653000", "171509.656000", "171509.659000", "171509.662000", "171509.665000", "171509.668000", "171549.577000", "171549.580000", "171549.583000", "171549.587000", "171549.590000", "171549.593000", "171549.596000", "171549.599000", "171549.602000", "171549.605000", "171549.608000", "171549.611000", "171549.615000", "171549.618000", "171549.621000", "171549.624000", "171549.627000", "171549.630000", "171549.633000", "171549.636000", "171549.639000", "171549.642000", "171549.645000", "171549.648000", "171549.651000", "171549.655000", "171554.333000", "171554.337000", "171554.340000", "171554.343000"],
      "InstanceNumber": [1, 2, 3, 4, 5, 6, 7, 8, 9, 10, 11, 12, 13, 14, 15, 16, 17, 18, 19, 20, 21, 22, 23, 24, 25, 26, 27, 28, 29, 30, 31, 32, 33, 34, 35, 36, 37, 38, 39, 40, 41, 42, 43, 44, 45, 46, 47, 48, 49, 50, 51, 52, 53, 54, 55, 56, 57, 58, 59, 60, 61, 62, 63, 64, 65, 66, 67, 68, 69, 70, 71, 72, 73, 74, 75, 76, 77, 78, 79, 80, 81, 82, 83, 84, 85, 86, 87, 88, 89, 90, 91, 92, 93, 94, 95, 96, 97, 98, 99, 100, 101, 102, 103, 104, 105, 106, 107, 108, 109, 110, 111, 112, 113, 114, 115, 116, 117, 118, 119, 120, 121, 122, 123, 124, 125, 126, 127, 128, 129, 130, 131, 132, 133, 134, 135, 136, 137, 138, 139, 140, 141, 142, 143, 144, 145, 146, 147, 148, 149, 150, 151, 152, 153, 154, 155, 156, 157, 158, 159, 160, 161, 162, 163, 164, 165, 166, 167, 168, 169, 170, 171, 172, 173, 174, 175, 176, 177, 178, 179, 180, 181, 182, 183, 184, 185, 186, 187, 188, 189, 190, 191, 192, 193, 194, 195, 196, 197, 198, 199, 200, 201, 202, 203, 204, 205, 206, 207, 208, 209, 210, 211, 212, 213, 214, 215, 216, 217, 218, 219, 220, 221, 222, 223, 224, 225, 226, 227, 228, 229, 230, 231, 232, 233, 234, 235, 236, 237, 238, 239],
      "LargestImagePixelValue": [2966, 2870, 2862, 2832, 2817, 2838, 2803, 2819, 2796, 2811, 2814, 2815, 2812, 2794, 2836, 2816, 2831, 2805, 2812, 2831, 2802, 2811, 2815, 2830, 2813, 2795, 2812, 2787, 2800, 2813, 2817, 2793, 2829, 2806, 2815, 2786, 2820, 2804, 2802, 2801, 2815, 2854, 2766, 2827, 2800, 2815, 2805, 2798, 2818, 2864, 2859, 2797, 2807, 2837, 2811, 2831, 2785, 2854, 2793, 2826, 2806, 2789, 2844, 2807, 2844, 2822, 2837, 2790, 2848, 2804, 2827, 2810, 2820, 2842, 2802, 2852, 2804, 2895, 2871, 2844, 2861, 2772, 2884, 2845, 2838, 2783, 2853, 2809, 2833, 2827, 2878, 2855, 2874, 2860, 2860, 2870, 2849, 2875, 2858, 2872, 2862, 2911, 2903, 2873, 2844, 2867, 2866, 2859, 2805, 2838, 2798, 2846, 2781, 2840, 2832, 2844, 2803, 2844, 2825, 2805, 2851, 2832, 2843, 2821, 2884, 2847, 2845, 2841, 2858, 2859, 2845, 2861, 2850, 2852, 2872, 2847, 2875, 2837, 2884, 2859, 2885, 2856, 2870, 2902, 2889, 2925, 2913, 2882, 2864, 2845, 2868, 2827, 2862, 2827, 2902, 2857, 2922, 2845, 2871, 2932, 2921, 2873, 2905, 2901, 2932, 2883, 2854, 2833, 2882, 2851, 2856, 2850, 2854, 2858, 2826, 2870, 2868, 2933, 2877, 2923, 2873, 2855, 2911, 2850, 2901, 2845, 2894, 2878, 2882, 2907, 2850, 2893, 2883, 2892, 2892, 2904, 2884, 2918, 2884, 2888, 2869, 2895, 2868, 2900, 2890, 2895, 2913, 2894, 2894, 2862, 2890, 2887, 2905, 2875, 2911, 2919, 2914, 2915, 2892, 2919, 2886, 2878, 2888, 2892, 2886, 2896, 2890, 2895, 2907, 2889, 2909, 2891, 2878, 2881, 2911, 2892, 2885, 2881, 2908],
      "WindowCenter": [753.0, 752.0, 751.0, 751.0, 751.0, 750.0, 750.0, 750.0, 750.0, 750.0, 750.0, 749.0, 750.0, 751.0, 751.0, 752.0, 752.0, 752.0, 752.0, 752.0, 751.0, 752.0, 752.0, 753.0, 753.0, 752.0, 752.0, 751.0, 752.0, 752.0, 752.0, 752.0, 752.0, 752.0, 751.0, 751.0, 752.0, 752.0, 752.0, 752.0, 752.0, 753.0, 752.0, 753.0, 752.0, 751.0, 752.0, 752.0, 752.0, 751.0, 751.0, 751.0, 751.0, 751.0, 751.0, 752.0, 752.0, 752.0, 751.0, 751.0, 751.0, 751.0, 751.0, 750.0, 750.0, 750.0, 749.0, 750.0, 751.0, 751.0, 751.0, 751.0, 752.0, 752.0, 752.0, 752.0, 752.0, 752.0, 753.0, 752.0, 752.0, 752.0, 752.0, 752.0, 751.0, 751.0, 750.0, 749.0, 750.0, 750.0, 751.0, 750.0, 751.0, 752.0, 752.0, 752.0, 751.0, 752.0, 752.0, 751.0, 751.0, 752.0, 752.0, 752.0, 751.0, 751.0, 751.0, 750.0, 749.0, 749.0, 748.0, 748.0, 747.0, 748.0, 748.0, 750.0, 752.0, 752.0, 751.0, 750.0, 749.0, 748.0, 748.0, 749.0, 749.0, 749.0, 750.0, 751.0, 751.0, 751.0, 750.0, 751.0, 751.0, 751.0, 751.0, 751.0, 751.0, 751.0, 752.0, 752.0, 752.0, 751.0, 751.0, 750.0, 750.0, 750.0, 750.0, 749.0, 748.0, 748.0, 748.0, 747.0, 747.0, 746.0, 748.0, 749.0, 750.0, 750.0, 751.0, 752.0, 752.0, 751.0, 750.0, 750.0, 750.0, 749.0, 750.0, 749.0, 748.0, 749.0, 750.0, 751.0, 750.0, 750.0, 749.0, 749.0, 750.0, 751.0, 750.0, 750.0, 750.0, 751.0, 750.0, 750.0, 750.0, 750.0, 750.0, 751.0, 752.0, 751.0, 751.0, 751.0, 751.0, 750.0, 750.0, 751.0, 750.0, 750.0, 750.0, 750.0, 749.0, 749.0, 748.0, 748.0, 749.0, 748.0, 749.0, 750.0, 751.0, 750.0, 751.0, 751.0, 751.0, 752.0, 752.0, 753.0, 752.0, 752.0, 751.0, 751.0, 751.0, 751.0, 750.0, 750.0, 750.0, 749.0, 749.0, 749.0, 749.0, 749.0, 749.0, 750.0, 751.0, 751.0, 750.0, 749.0, 748.0, 749.0, 751.0],
      "WindowWidth": [1638.0, 1633.0, 1632.0, 1630.0, 1629.0, 1629.0, 1627.0, 1626.0, 1627.0, 1627.0, 1627.0, 1626.0, 1628.0, 1629.0, 1631.0, 1632.0, 1633.0, 1633.0, 1632.0, 1632.0, 1631.0, 1632.0, 1634.0, 1635.0, 1636.0, 1634.0, 1632.0, 1631.0, 1632.0, 1632.0, 1632.0, 1632.0, 1633.0, 1633.0, 1630.0, 1631.0, 1632.0, 1632.0, 1633.0, 1633.0, 1634.0, 1634.0, 1634.0, 1635.0, 1633.0, 1631.0, 1632.0, 1633.0, 1632.0, 1630.0, 1629.0, 1629.0, 1630.0, 1631.0, 1631.0, 1632.0, 1632.0, 1633.0, 1631.0, 1630.0, 1630.0, 1629.0, 1629.0, 1627.0, 1627.0, 1626.0, 1626.0, 1627.0, 1629.0, 1630.0, 1629.0, 1631.0, 1632.0, 1633.0, 1632.0, 1633.0, 1632.0, 1634.0, 1635.0, 1634.0, 1633.0, 1632.0, 1633.0, 1632.0, 1631.0, 1628.0, 1627.0, 1624.0, 1627.0, 1628.0, 1629.0, 1628.0, 1630.0, 1632.0, 1633.0, 1632.0, 1630.0, 1631.0, 1631.0, 1631.0, 1631.0, 1634.0, 1633.0, 1631.0, 1629.0, 1631.0, 1630.0, 1628.0, 1625.0, 1624.0, 1622.0, 1621.0, 1619.0, 1621.0, 1622.0, 1628.0, 1631.0, 1632.0, 1630.0, 1626.0, 1624.0, 1622.0, 1622.0, 1623.0, 1623.0, 1623.0, 1628.0, 1629.0, 1629.0, 1629.0, 1628.0, 1629.0, 1629.0, 1630.0, 1631.0, 1631.0, 1630.0, 1630.0, 1633.0, 1632.0, 1632.0, 1630.0, 1629.0, 1628.0, 1627.0, 1626.0, 1626.0, 1624.0, 1623.0, 1621.0, 1621.0, 1618.0, 1617.0, 1615.0, 1622.0, 1625.0, 1628.0, 1627.0, 1629.0, 1631.0, 1631.0, 1628.0, 1628.0, 1627.0, 1626.0, 1625.0, 1626.0, 1623.0, 1622.0, 1623.0, 1628.0, 1629.0, 1627.0, 1626.0, 1625.0, 1625.0, 1627.0, 1629.0, 1626.0, 1626.0, 1627.0, 1628.0, 1628.0, 1626.0, 1627.0, 1626.0, 1628.0, 1632.0, 1633.0, 1631.0, 1629.0, 1631.0, 1629.0, 1628.0, 1628.0, 1629.0, 1628.0, 1628.0, 1628.0, 1628.0, 1625.0, 1623.0, 1621.0, 1623.0, 1623.0, 1623.0, 1624.0, 1627.0, 1629.0, 1627.0, 1629.0, 1629.0, 1631.0, 1632.0, 1634.0, 1635.0, 1634.0, 1633.0, 1631.0, 1630.0, 1631.0, 1630.0, 1627.0, 1628.0, 1627.0, 1625.0, 1624.0, 1623.0, 1624.0, 1624.0, 1626.0, 1627.0, 1630.0, 1629.0, 1627.0, 1623.0, 1621.0, 1624.0, 1629.0]
    },
    "slices": {}
  }
}