{
  "AcquisitionMatrixPE": 70,
  "AcquisitionNumber": 1,
  "AcquisitionTime": "14:35:59.805000",
  "BaseResolution": 70,
  "BodyPartExamined": "BRAIN",
  "CoilCombinationMethod": "Sum of Squares",
  "ConsistencyInfo": "N4_VE11C_LATEST_20160120",
  "ConversionSoftware": "dcm2niix",
  "ConversionSoftwareVersion": "v1.0.20211006",
  "DeviceSerialNumber": "166011",
  "EchoNumber": 2,
  "EchoTime": 0.00738,
  "EchoTime1": 0.00492,
  "EchoTime2": 0.00738,
  "FlipAngle": 60,
  "ImageOrientationPatientDICOM": [
    0.999385,
    -0.0245725,
    -0.0250258,
    0.0235518,
    0.99891,
    -0.0402944
  ],
  "ImageType": [
    "ORIGINAL",
    "PRIMARY",
    "P",
    "ND",
    "PHASE"
  ],
  "ImagingFrequency": 123.259,
  "InPlanePhaseEncodingDirectionDICOM": "ROW",
  "InstitutionAddress": "West 130th Street 610,NY,NYC,US,10025",
  "InstitutionName": "MBBI",
  "IntendedFor": [
    "ses-1/func/sub-145_ses-1_task-catLoc_run-01_bold.nii.gz",
    "ses-1/func/sub-145_ses-1_task-catLoc_run-02_bold.nii.gz",
    "ses-1/func/sub-145_ses-1_task-vwfate_run-01_bold.nii.gz",
    "ses-1/func/sub-145_ses-1_task-vwfate_run-02_bold.nii.gz",
    "ses-1/func/sub-145_ses-1_task-vwfate_run-03_bold.nii.gz",
    "ses-1/func/sub-145_ses-1_task-vwfate_run-04_bold.nii.gz",
    "ses-1/func/sub-145_ses-1_task-vwfate_run-05_bold.nii.gz",
    "ses-1/func/sub-145_ses-1_task-vwfate_run-06_bold.nii.gz"
  ],
  "MRAcquisitionType": "2D",
  "MagneticFieldStrength": 3,
  "Manufacturer": "Siemens",
  "ManufacturersModelName": "Prisma",
  "MatrixCoilMode": "SENSE",
  "Modality": "MR",
  "MultibandAccelerationFactor": 2,
  "PartialFourier": 1,
  "PatientPosition": "HFS",
  "PercentPhaseFOV": 100,
  "PercentSampling": 100,
  "PhaseEncodingDirection": "i",
  "PhaseEncodingSteps": 70,
  "PhaseResolution": 1,
  "PixelBandwidth": 595,
  "ProcedureStepDescription": "White^Word_recognition",
  "ProtocolName": "fmap_gre_field_mapping",
  "PulseSequenceDetails": "%SiemensSeq%\\gre_field_mapping",
  "ReceiveCoilActiveElements": "HC1-7",
  "ReceiveCoilName": "HeadNeck_64",
  "ReconMatrixPE": 70,
  "RepetitionTime": 0.52,
  "SAR": 0.10231,
  "ScanningSequence": "GR",
  "SequenceName": "*fm2d2r",
  "SequenceVariant": "SP",
  "SeriesDescription": "fmap_gre_field_mapping",
  "SeriesNumber": 17,
  "ShimSetting": [
    -1180,
    -1365,
    710,
    595,
    -125,
    103,
    35,
    -23
  ],
  "SliceThickness": 3,
  "SliceTiming": [
    0.26562,
    0,
    0.26562,
    0.01562,
    0.28125,
    0.01562,
    0.29688,
    0.03125,
    0.3125,
    0.04688,
    0.3125,
    0.0625,
    0.32812,
    0.07812,
    0.34375,
    0.07812,
    0.35938,
    0.09375,
    0.375,
    0.10938,
    0.375,
    0.125,
    0.39062,
    0.14062,
    0.40625,
    0.14062,
    0.42188,
    0.15625,
    0.4375,
    0.17188,
    0.4375,
    0.1875,
    0.45312,
    0.20312,
    0.46875,
    0.20312,
    0.48438,
    0.21875,
    0.5,
    0.23438,
    0.5,
    0.25
  ],
  "SoftwareVersions": "syngo MR E11",
  "SpacingBetweenSlices": 3,
  "StationName": "AWP166011",
  "TxRefAmp": 229.68,
  "dcmmeta_affine": [
    [
      -2.9981541633605957,
      0.07065542042255402,
      -0.07796609401702881,
      106.82306671142578
    ],
    [
      0.07371748983860016,
      2.9967308044433594,
      -0.11904144287109375,
      -89.94325256347656
    ],
    [
      -0.07507754117250443,
      0.12088320404291153,
      2.9966201782226562,
      -35.45658874511719
    ],
    [
      0.0,
      0.0,
      0.0,
      1.0
    ]
  ],
  "dcmmeta_reorient_transform": [
    [
      0.0,
      -1.0,
      0.0,
      69.0
    ],
    [
      1.0,
      0.0,
      0.0,
      0.0
    ],
    [
      0.0,
      0.0,
      -1.0,
      41.0
    ],
    [
      0.0,
      0.0,
      0.0,
      1.0
    ]
  ],
  "dcmmeta_shape": [
    70,
    70,
    42
  ],
  "dcmmeta_slice_dim": 2,
  "dcmmeta_version": 0.6,
  "global": {
    "const": {
      "AcquisitionMatrix": [
        0,
        70,
        70,
        0
      ],
      "AcquisitionNumber": 1,
      "AngioFlag": "N",
      "BitsAllocated": 16,
      "BitsStored": 12,
      "BodyPartExamined": "BRAIN",
      "Columns": 70,
      "EchoNumbers": 2,
      "EchoTime": 7.38,
      "EchoTrainLength": 0,
      "FlipAngle": 60.0,
      "HighBit": 11,
      "ImageOrientationPatient": [
        0.99938476041206,
        -0.0245724969651,
        -0.0250258476185,
        0.02355180740161,
        0.99891024305632,
        -0.0402944001726
      ],
      "ImageType": [
        "ORIGINAL",
        "PRIMARY",
        "P",
        "ND"
      ],
      "ImagedNucleus": "1H",
      "ImagingFrequency": 123.259454,
      "InPlanePhaseEncodingDirection": "ROW",
      "MRAcquisitionType": "2D",
      "MagneticFieldStrength": 3.0,
      "Manufacturer": "SIEMENS",
      "ManufacturerModelName": "Prisma",
      "Modality": "MR",
      "NumberOfAverages": 1.0,
      "NumberOfPhaseEncodingSteps": 70,
      "PercentPhaseFieldOfView": 100.0,
      "PercentSampling": 100.0,
      "PerformedProcedureStepStartTime": "132627.271000",
      "PhotometricInterpretation": "MONOCHROME2",
      "PixelBandwidth": 595.0,
      "PixelRepresentation": 0,
      "PixelSpacing": [
        3.0,
        3.0
      ],
      "ProtocolName": "fmap_gre_field_mapping",
      "RepetitionTime": 520.0,
      "RescaleIntercept": -4096.0,
      "RescaleSlope": 2.0,
      "RescaleType": "US",
      "Rows": 70,
      "SAR": 0.10231044934243,
      "SamplesPerPixel": 1,
      "ScanningSequence": "GR",
      "SequenceName": "*fm2d2r",
      "SequenceVariant": "SP",
      "SeriesDescription": "fmap_gre_field_mapping",
      "SeriesNumber": 17,
      "SeriesTime": "143711.863000",
      "SliceThickness": 3.0,
      "SoftwareVersions": "syngo MR E11",
      "SpacingBetweenSlices": 3.0,
      "SpecificCharacterSet": "ISO_IR 100",
      "StudyID": "1",
      "StudyTime": "132627.168000",
      "TransmitCoilName": "Body",
      "VariableFlipAngleFlag": "N",
      "WindowCenterWidthExplanation": "Algo1",
      "dBdt": 0.0
    },
    "slices": {
      "AcquisitionTime": [
        "143559.805000",
        "143559.545000",
        "143559.817500",
        "143559.557500",
        "143559.830000",
        "143559.570000",
        "143559.842500",
        "143559.582500",
        "143559.855000",
        "143559.595000",
        "143559.865000",
        "143559.605000",
        "143559.877500",
        "143559.617500",
        "143559.890000",
        "143559.630000",
        "143559.902500",
        "143559.642500",
        "143559.915000",
        "143559.655000",
        "143559.927500",
        "143559.667500",
        "143559.940000",
        "143559.680000",
        "143559.952500",
        "143559.692500",
        "143559.965000",
        "143559.705000",
        "143559.977500",
        "143559.717500",
        "143559.990000",
        "143559.730000",
        "143600.002500",
        "143559.742500",
        "143600.015000",
        "143559.755000",
        "143600.027500",
        "143559.767500",
        "143600.040000",
        "143559.780000",
        "143600.052500",
        "143559.792500"
      ],
      "ContentTime": [
        "143712.211000",
        "143711.868000",
        "143712.213000",
        "143711.870000",
        "143712.215000",
        "143711.872000",
        "143712.217000",
        "143711.875000",
        "143712.219000",
        "143711.877000",
        "143712.222000",
        "143711.879000",
        "143712.224000",
        "143711.881000",
        "143712.226000",
        "143711.884000",
        "143712.228000",
        "143711.886000",
        "143712.230000",
        "143711.888000",
        "143712.232000",
        "143711.890000",
        "143712.234000",
        "143711.892000",
        "143712.236000",
        "143711.894000",
        "143712.239000",
        "143712.193000",
        "143712.241000",
        "143712.195000",
        "143712.243000",
        "143712.197000",
        "143712.245000",
        "143712.199000",
        "143712.247000",
        "143712.202000",
        "143712.249000",
        "143712.204000",
        "143712.252000",
        "143712.206000",
        "143712.254000",
        "143712.208000"
      ],
      "CsaImage.ICE_Dims": [
        "X_2_1_1_1_1_1_22_1_1_1_1_324",
        "X_2_1_1_1_1_1_1_1_1_2_1_324",
        "X_2_1_1_1_1_1_23_1_1_3_1_324",
        "X_2_1_1_1_1_1_2_1_1_4_1_324",
        "X_2_1_1_1_1_1_24_1_1_5_1_324",
        "X_2_1_1_1_1_1_3_1_1_6_1_324",
        "X_2_1_1_1_1_1_25_1_1_7_1_324",
        "X_2_1_1_1_1_1_4_1_1_8_1_324",
        "X_2_1_1_1_1_1_26_1_1_9_1_324",
        "X_2_1_1_1_1_1_5_1_1_10_1_324",
        "X_2_1_1_1_1_1_27_1_1_11_1_324",
        "X_2_1_1_1_1_1_6_1_1_12_1_324",
        "X_2_1_1_1_1_1_28_1_1_13_1_324",
        "X_2_1_1_1_1_1_7_1_1_14_1_324",
        "X_2_1_1_1_1_1_29_1_1_15_1_324",
        "X_2_1_1_1_1_1_8_1_1_16_1_324",
        "X_2_1_1_1_1_1_30_1_1_17_1_324",
        "X_2_1_1_1_1_1_9_1_1_18_1_324",
        "X_2_1_1_1_1_1_31_1_1_19_1_324",
        "X_2_1_1_1_1_1_10_1_1_20_1_324",
        "X_2_1_1_1_1_1_32_1_1_21_1_324",
        "X_2_1_1_1_1_1_11_1_1_22_1_324",
        "X_2_1_1_1_1_1_33_1_1_23_1_324",
        "X_2_1_1_1_1_1_12_1_1_24_1_324",
        "X_2_1_1_1_1_1_34_1_1_25_1_324",
        "X_2_1_1_1_1_1_13_1_1_26_1_324",
        "X_2_1_1_1_1_1_35_1_1_27_1_324",
        "X_2_1_1_1_1_1_14_1_1_28_1_324",
        "X_2_1_1_1_1_1_36_1_1_29_1_324",
        "X_2_1_1_1_1_1_15_1_1_30_1_324",
        "X_2_1_1_1_1_1_37_1_1_31_1_324",
        "X_2_1_1_1_1_1_16_1_1_32_1_324",
        "X_2_1_1_1_1_1_38_1_1_33_1_324",
        "X_2_1_1_1_1_1_17_1_1_34_1_324",
        "X_2_1_1_1_1_1_39_1_1_35_1_324",
        "X_2_1_1_1_1_1_18_1_1_36_1_324",
        "X_2_1_1_1_1_1_40_1_1_37_1_324",
        "X_2_1_1_1_1_1_19_1_1_38_1_324",
        "X_2_1_1_1_1_1_41_1_1_39_1_324",
        "X_2_1_1_1_1_1_20_1_1_40_1_324",
        "X_2_1_1_1_1_1_42_1_1_41_1_324",
        "X_2_1_1_1_1_1_21_1_1_42_1_324"
      ],
      "CsaImage.ProtocolSliceNumber": [
        0,
        1,
        2,
        3,
        4,
        5,
        6,
        7,
        8,
        9,
        10,
        11,
        12,
        13,
        14,
        15,
        16,
        17,
        18,
        19,
        20,
        21,
        22,
        23,
        24,
        25,
        26,
        27,
        28,
        29,
        30,
        31,
        32,
        33,
        34,
        35,
        36,
        37,
        38,
        39,
        40,
        41
      ],
      "CsaImage.SlicePosition_PCS": [
        [
          -111.69829142,
          -116.83113148,
          -27.11576973
        ],
        [
          -111.62032521,
          -116.71209099,
          -24.11914765
        ],
        [
          -111.542359,
          -116.59305051,
          -21.12252366
        ],
        [
          -111.46439278,
          -116.47401002,
          -18.12590157
        ],
        [
          -111.38642681,
          -116.35496953,
          -15.12927758
        ],
        [
          -111.30846059,
          -116.23592904,
          -12.13265549
        ],
        [
          -111.23049462,
          -116.11688759,
          -9.1360315
        ],
        [
          -111.15252841,
          -115.99784711,
          -6.13940846
        ],
        [
          -111.07456243,
          -115.87880662,
          -3.14278542
        ],
        [
          -110.99659622,
          -115.75976613,
          -0.1461619
        ],
        [
          -110.91863,
          -115.64072564,
          2.85046114
        ],
        [
          -110.84066403,
          -115.52168515,
          5.84708429
        ],
        [
          -110.76269782,
          -115.40264466,
          8.84370757
        ],
        [
          -110.6847316,
          -115.28360322,
          11.84033073
        ],
        [
          -110.60676563,
          -115.16456273,
          14.83695377
        ],
        [
          -110.52879942,
          -115.04552224,
          17.83357681
        ],
        [
          -110.4508332,
          -114.92648175,
          20.8302008
        ],
        [
          -110.37286723,
          -114.80744126,
          23.82682289
        ],
        [
          -110.29490101,
          -114.68840077,
          26.82344688
        ],
        [
          -110.2169348,
          -114.56936028,
          29.82007087
        ],
        [
          -110.13896883,
          -114.45031884,
          32.81669296
        ],
        [
          -110.06100261,
          -114.33127835,
          35.81331695
        ],
        [
          -109.9830364,
          -114.21223786,
          38.80993904
        ],
        [
          -109.90507042,
          -114.09319737,
          41.80656303
        ],
        [
          -109.82710421,
          -113.97415688,
          44.80318702
        ],
        [
          -109.749138,
          -113.85511639,
          47.79981102
        ],
        [
          -109.67117202,
          -113.7360759,
          50.79643119
        ],
        [
          -109.59320581,
          -113.61703446,
          53.79305519
        ],
        [
          -109.5152396,
          -113.49799397,
          56.78967918
        ],
        [
          -109.43727362,
          -113.37895348,
          59.78630317
        ],
        [
          -109.35930741,
          -113.25991299,
          62.78292335
        ],
        [
          -109.28134132,
          -113.1408725,
          65.77954734
        ],
        [
          -109.20337522,
          -113.02183201,
          68.77617134
        ],
        [
          -109.12540901,
          -112.90279153,
          71.77279533
        ],
        [
          -109.04744291,
          -112.78375008,
          74.76941551
        ],
        [
          -108.96947682,
          -112.66470959,
          77.76604332
        ],
        [
          -108.89151061,
          -112.5456691,
          80.76266349
        ],
        [
          -108.81354451,
          -112.42662862,
          83.7592913
        ],
        [
          -108.73557842,
          -112.30758813,
          86.75591148
        ],
        [
          -108.65761232,
          -112.18854764,
          89.75253166
        ],
        [
          -108.57964611,
          -112.06950715,
          92.74915947
        ],
        [
          -108.50168002,
          -111.9504657,
          95.74577964
        ]
      ],
      "CsaImage.TimeAfterStart": [
        0.7825,
        0.5225,
        0.795,
        0.535,
        0.8075,
        0.5475,
        0.82,
        0.56,
        0.8325,
        0.5725,
        0.8425,
        0.5825,
        0.855,
        0.595,
        0.8675,
        0.6075,
        0.88,
        0.62,
        0.8925,
        0.6325,
        0.905,
        0.645,
        0.9175,
        0.6575,
        0.93,
        0.67,
        0.9425,
        0.6825,
        0.955,
        0.695,
        0.9675,
        0.7075,
        0.98,
        0.72,
        0.9925,
        0.7325,
        1.005,
        0.745,
        1.0175,
        0.7575,
        1.03,
        0.77
      ],
      "ImagePositionPatient": [
        [
          -111.69829142173,
          -116.8311314838,
          -27.115769733884
        ],
        [
          -111.62032520851,
          -116.71209099461,
          -24.119147648312
        ],
        [
          -111.54235899528,
          -116.59305050541,
          -21.122523655393
        ],
        [
          -111.46439278206,
          -116.47401001621,
          -18.125901569821
        ],
        [
          -111.38642680725,
          -116.35496952702,
          -15.129277576901
        ],
        [
          -111.30846059402,
          -116.23592903782,
          -12.13265549133
        ],
        [
          -111.23049461921,
          -116.11688759495,
          -9.1360314984101
        ],
        [
          -111.15252840599,
          -115.99784710575,
          -6.1394084591645
        ],
        [
          -111.07456243118,
          -115.87880661655,
          -3.1427854199189
        ],
        [
          -110.99659621795,
          -115.75976612736,
          -0.1461619038361
        ],
        [
          -110.91863000473,
          -115.64072563816,
          2.8504611354095
        ],
        [
          -110.84066402992,
          -115.52168514896,
          5.8470842938644
        ],
        [
          -110.76269781669,
          -115.40264465977,
          8.8437075715286
        ],
        [
          -110.68473160347,
          -115.2836032169,
          11.840330729983
        ],
        [
          -110.60676562866,
          -115.1645627277,
          14.836953769229
        ],
        [
          -110.52879941543,
          -115.0455222385,
          17.833576808475
        ],
        [
          -110.45083320221,
          -114.92648174931,
          20.830200801395
        ],
        [
          -110.3728672274,
          -114.80744126011,
          23.826822886966
        ],
        [
          -110.29490101417,
          -114.68840077091,
          26.823446879886
        ],
        [
          -110.21693480095,
          -114.56936028172,
          29.820070872806
        ],
        [
          -110.13896882614,
          -114.45031883884,
          32.816692958377
        ],
        [
          -110.06100261291,
          -114.33127834965,
          35.813316951297
        ],
        [
          -109.98303639969,
          -114.21223786045,
          38.809939036868
        ],
        [
          -109.90507042488,
          -114.09319737125,
          41.806563029788
        ],
        [
          -109.82710421165,
          -113.97415688206,
          44.803187022708
        ],
        [
          -109.74913799843,
          -113.85511639286,
          47.799811015628
        ],
        [
          -109.67117202362,
          -113.73607590366,
          50.796431193851
        ],
        [
          -109.59320581039,
          -113.61703446079,
          53.793055186771
        ],
        [
          -109.51523959717,
          -113.4979939716,
          56.78967917969
        ],
        [
          -109.43727362236,
          -113.3789534824,
          59.78630317261
        ],
        [
          -109.35930740913,
          -113.2599129932,
          62.782923350833
        ],
        [
          -109.28134131511,
          -113.14087250401,
          65.779547343753
        ],
        [
          -109.2033752211,
          -113.02183201481,
          68.776171336673
        ],
        [
          -109.12540900787,
          -112.90279152561,
          71.772795329593
        ],
        [
          -109.04744291385,
          -112.78375008274,
          74.769415507815
        ],
        [
          -108.96947681984,
          -112.66470959354,
          77.766043315433
        ],
        [
          -108.89151060661,
          -112.54566910435,
          80.762663493655
        ],
        [
          -108.81354451259,
          -112.42662861515,
          83.759291301273
        ],
        [
          -108.73557841858,
          -112.30758812595,
          86.755911479495
        ],
        [
          -108.65761232456,
          -112.18854763676,
          89.752531657718
        ],
        [
          -108.57964611133,
          -112.06950714756,
          92.749159465335
        ],
        [
          -108.50168001732,
          -111.95046570469,
          95.745779643558
        ]
      ],
      "InstanceCreationTime": [
        "143712.211000",
        "143711.868000",
        "143712.213000",
        "143711.870000",
        "143712.215000",
        "143711.872000",
        "143712.217000",
        "143711.875000",
        "143712.219000",
        "143711.877000",
        "143712.222000",
        "143711.879000",
        "143712.224000",
        "143711.881000",
        "143712.226000",
        "143711.884000",
        "143712.228000",
        "143711.886000",
        "143712.230000",
        "143711.888000",
        "143712.232000",
        "143711.890000",
        "143712.234000",
        "143711.892000",
        "143712.236000",
        "143711.894000",
        "143712.239000",
        "143712.193000",
        "143712.241000",
        "143712.195000",
        "143712.243000",
        "143712.197000",
        "143712.245000",
        "143712.199000",
        "143712.247000",
        "143712.202000",
        "143712.249000",
        "143712.204000",
        "143712.252000",
        "143712.206000",
        "143712.254000",
        "143712.208000"
      ],
      "InstanceNumber": [
        1,
        2,
        3,
        4,
        5,
        6,
        7,
        8,
        9,
        10,
        11,
        12,
        13,
        14,
        15,
        16,
        17,
        18,
        19,
        20,
        21,
        22,
        23,
        24,
        25,
        26,
        27,
        28,
        29,
        30,
        31,
        32,
        33,
        34,
        35,
        36,
        37,
        38,
        39,
        40,
        41,
        42
      ],
      "LargestImagePixelValue": [
        4089,
        4094,
        4086,
        4095,
        4090,
        4092,
        4095,
        4086,
        4067,
        4093,
        4077,
        4090,
        4091,
        4083,
        4079,
        4067,
        4091,
        4060,
        4090,
        4089,
        4078,
        4084,
        4086,
        4073,
        4088,
        4094,
        4095,
        4091,
        4093,
        4092,
        4093,
        4089,
        4073,
        4093,
        4094,
        4094,
        4094,
        4095,
        4094,
        4092,
        4094,
        4093
      ],
      "SliceLocation": [
        -34.624026002668,
        -31.624027120634,
        -28.624026333398,
        -25.624027451364,
        -22.624026670324,
        -19.62402778829,
        -16.624026969408,
        -13.624027134773,
        -10.624027306334,
        -7.6240269953986,
        -4.6240271607635,
        -1.6240272132495,
        1.3759728595358,
        4.375972851088,
        7.3759726795269,
        10.375972514162,
        13.375973301398,
        16.375972177236,
        19.375972964472,
        22.375973751708,
        25.375972665388,
        28.375973452624,
        31.375972334658,
        34.375973115698,
        37.375973902934,
        40.37597469017,
        43.375971660806,
        46.375972485884,
        49.37597327312,
        52.37597405416,
        55.375971030992,
        58.37597181513,
        61.375972599268,
        64.375973386504,
        67.37597039808,
        70.375974992622,
        73.375971969454,
        76.375976563996,
        79.37597353773,
        82.375970511464,
        85.375975109104,
        88.37597212068
      ],
      "SmallestImagePixelValue": [
        0,
        7,
        2,
        1,
        2,
        2,
        0,
        3,
        6,
        1,
        0,
        5,
        0,
        2,
        21,
        0,
        2,
        0,
        4,
        28,
        0,
        8,
        2,
        5,
        13,
        7,
        3,
        19,
        0,
        20,
        21,
        0,
        0,
        0,
        1,
        0,
        0,
        8,
        0,
        0,
        1,
        3
      ],
      "WindowCenter": [
        -312.0,
        -346.0,
        -296.0,
        -204.0,
        -176.0,
        -250.0,
        -262.0,
        -210.0,
        -206.0,
        -156.0,
        -140.0,
        -128.0,
        -70.0,
        -52.0,
        -58.0,
        -206.0,
        -202.0,
        -72.0,
        -62.0,
        -46.0,
        -18.0,
        28.0,
        62.0,
        -34.0,
        -206.0,
        -224.0,
        -244.0,
        -242.0,
        -248.0,
        -158.0,
        -280.0,
        -352.0,
        -366.0,
        -452.0,
        -294.0,
        -312.0,
        -334.0,
        -326.0,
        -290.0,
        -246.0,
        -138.0,
        -338.0
      ],
      "WindowWidth": [
        5782.0,
        5818.0,
        5838.0,
        5880.0,
        5526.0,
        5466.0,
        5504.0,
        5486.0,
        5272.0,
        5306.0,
        5238.0,
        5180.0,
        5164.0,
        5214.0,
        5136.0,
        4556.0,
        4554.0,
        5044.0,
        5080.0,
        5150.0,
        5244.0,
        5226.0,
        5240.0,
        5020.0,
        4514.0,
        4522.0,
        4548.0,
        4560.0,
        4578.0,
        4982.0,
        4600.0,
        4664.0,
        4704.0,
        4774.0,
        5502.0,
        5684.0,
        5748.0,
        5984.0,
        6126.0,
        6310.0,
        6268.0,
        6378.0
      ]
    }
  }
}