{
  "AcquisitionMatrixPE": 72,
  "AcquisitionNumber": 1,
  "AcquisitionTime": "17:46:36.047500",
  "BandwidthPerPixelPhaseEncode": 17.943,
  "BaseResolution": 96,
  "BodyPartExamined": "BRAIN",
  "CoilCombinationMethod": "Sum of Squares",
  "ConsistencyInfo": "N4_VE11C_LATEST_20160120",
  "ConversionSoftware": "dcm2niix",
  "ConversionSoftwareVersion": "v1.0.20211006",
  "DerivedVendorReportedEchoSpacing": 0.000552897,
  "DeviceSerialNumber": "166011",
  "EchoTime": 0.03,
  "EchoTrainLength": 58,
  "EffectiveEchoSpacing": 0.000580542,
  "FlipAngle": 62,
  "ImageOrientationPatientDICOM": [0.999774, -0.020602, -0.00522608, 0.019022, 0.97699, -0.212437],
  "ImageType": [
    "ORIGINAL",
    "PRIMARY",
    "M",
    "ND",
    "MOSAIC"
],
  "ImagingFrequency": 123.26,
  "InPlanePhaseEncodingDirectionDICOM": "COL",
  "InstitutionAddress": "West 130th Street 610,NY,NYC,US,10025",
  "InstitutionName": "MBBI",
  "MRAcquisitionType": "2D",
  "MagneticFieldStrength": 3,
  "Manufacturer": "Siemens",
  "ManufacturersModelName": "Prisma",
  "Modality": "MR",
  "MultibandAccelerationFactor": 3,
  "PartialFourier": 0.75,
  "PatientPosition": "HFS",
  "PercentPhaseFOV": 100,
  "PercentSampling": 75,
  "PhaseEncodingDirection": "j-",
  "PhaseEncodingSteps": 58,
  "PhaseOversampling": 0.05,
  "PhaseResolution": 0.75,
  "PixelBandwidth": 2265,
  "ProcedureStepDescription": "White^Word_recognition",
  "ProtocolName": "func_vwfate_run6",
  "PulseSequenceDetails": "%SiemensSeq%\\ep2d_bold",
  "ReceiveCoilActiveElements": "HC1-6",
  "ReceiveCoilName": "HeadNeck_64",
  "ReconMatrixPE": 96,
  "RefLinesPE": 40,
  "RepetitionTime": 1.5,
  "SAR": 0.0442938,
  "ScanOptions": "PFP\\FS",
  "ScanningSequence": "EP",
  "SequenceName": "*epfid2d1_72",
  "SequenceVariant": "SK\\OSP",
  "SeriesDescription": "func_vwfate_run6",
  "SeriesNumber": 15,
  "ShimSetting": [-1154, -1179, 409, 335, -115, 470, -269, 59],
  "SliceThickness": 2,
  "SliceTiming": [1.075, 0, 0.74, 0.0675, 0.8075, 0.1325, 0.8725, 0.2, 0.94, 0.2675, 1.0075, 0.4025, 1.1425, 0.47, 1.21, 0.5375, 1.2775, 0.605, 1.345, 0.6725, 1.4125, 0.335, 1.075, 0, 0.74, 0.0675, 0.8075, 0.1325, 0.8725, 0.2, 0.94, 0.2675, 1.0075, 0.4025, 1.1425, 0.47, 1.21, 0.5375, 1.2775, 0.605, 1.345, 0.6725, 1.4125, 0.335, 1.075, 0, 0.74, 0.0675, 0.8075, 0.1325, 0.8725, 0.2, 0.94, 0.2675, 1.0075, 0.4025, 1.1425, 0.47, 1.21, 0.5375, 1.2775, 0.605, 1.345, 0.6725, 1.4125, 0.335],
  "SoftwareVersions": "syngo MR E11",
  "SpacingBetweenSlices": 2,
  "StationName": "AWP166011",
  "TaskName": "vwfate",
  "TotalReadoutTime": 0.0551515,
  "TxRefAmp": 220.297,
  "dcmmeta_affine": [
    [-1.9995481967926025, 0.038044050335884094, -0.01896490715444088, 95.90760040283203],
    [0.041204001754522324, 1.953979253768921, -0.4245791435241699, -65.076171875],
    [-0.01045216154307127, 0.424873948097229, 1.9543216228485107, -82.73023223876953],
    [0.0, 0.0, 0.0, 1.0]
],
  "dcmmeta_reorient_transform": [
    [0.0, -1.0, 0.0, 95.0],
    [1.0, 0.0, 0.0, 0.0],
    [0.0, 0.0, 1.0, 0.0],
    [0.0, 0.0, 0.0, 1.0]
],
  "dcmmeta_shape": [96, 96, 66, 164],
  "dcmmeta_slice_dim": 2,
  "dcmmeta_version": 0.6,
  "global": {
    "const": {
      "AcquisitionMatrix": [96, 0, 0, 72],
      "AngioFlag": "N",
      "BitsAllocated": 16,
      "BitsStored": 12,
      "BodyPartExamined": "BRAIN",
      "Columns": 864,
      "EchoNumbers": 1,
      "EchoTime": 30.0,
      "EchoTrainLength": 58,
      "FlipAngle": 62.0,
      "HighBit": 11,
      "ImageOrientationPatient": [0.99977409730566, -0.0206020007308, -0.0052260809936, 0.01902202492308, 0.97698960837591, -0.2124369734611],
      "ImagePositionPatient": [-881.95720652587, -855.05753665162, 124.79801588969],
      "ImageType": [
        "ORIGINAL",
        "PRIMARY",
        "M",
        "ND",
        "MOSAIC"
],
      "ImagedNucleus": "1H",
      "ImagingFrequency": 123.259632,
      "InPlanePhaseEncodingDirection": "COL",
      "MRAcquisitionType": "2D",
      "MagneticFieldStrength": 3.0,
      "Manufacturer": "SIEMENS",
      "ManufacturerModelName": "Prisma",
      "Modality": "MR",
      "NumberOfAverages": 1.0,
      "NumberOfPhaseEncodingSteps": 58,
      "PercentPhaseFieldOfView": 100.0,
      "PercentSampling": 75.0,
      "PerformedProcedureStepStartTime": "163807.587000",
      "PhotometricInterpretation": "MONOCHROME2",
      "PixelBandwidth": 2265.0,
      "PixelRepresentation": 0,
      "PixelSpacing": [2.0, 2.0],
      "ProtocolName": "func_vwfate_run6",
      "RepetitionTime": 1500.0,
      "Rows": 864,
      "SAR": 0.04429376149524,
      "SamplesPerPixel": 1,
      "ScanOptions": [
        "PFP",
        "FS"
],
      "ScanningSequence": "EP",
      "SequenceName": "*epfid2d1_72",
      "SequenceVariant": [
        "SK",
        "OSP"
],
      "SeriesDescription": "func_vwfate_run6",
      "SeriesNumber": 15,
      "SeriesTime": "174724.729000",
      "SliceLocation": -67.935188831929,
      "SliceThickness": 2.0,
      "SmallestImagePixelValue": 0,
      "SoftwareVersions": "syngo MR E11",
      "SpacingBetweenSlices": 1.9999999886161,
      "SpecificCharacterSet": "ISO_IR 100",
      "StudyID": "1",
      "StudyTime": "163807.526000",
      "TransmitCoilName": "Body",
      "VariableFlipAngleFlag": "N",
      "WindowCenterWidthExplanation": "Algo1",
      "dBdt": 0.0},
    "slices": {}
  },
  "time": {
    "samples": {
      "AcquisitionNumber": [1, 2, 3, 4, 5, 6, 7, 8, 9, 10, 11, 12, 13, 14, 15, 16, 17, 18, 19, 20, 21, 22, 23, 24, 25, 26, 27, 28, 29, 30, 31, 32, 33, 34, 35, 36, 37, 38, 39, 40, 41, 42, 43, 44, 45, 46, 47, 48, 49, 50, 51, 52, 53, 54, 55, 56, 57, 58, 59, 60, 61, 62, 63, 64, 65, 66, 67, 68, 69, 70, 71, 72, 73, 74, 75, 76, 77, 78, 79, 80, 81, 82, 83, 84, 85, 86, 87, 88, 89, 90, 91, 92, 93, 94, 95, 96, 97, 98, 99, 100, 101, 102, 103, 104, 105, 106, 107, 108, 109, 110, 111, 112, 113, 114, 115, 116, 117, 118, 119, 120, 121, 122, 123, 124, 125, 126, 127, 128, 129, 130, 131, 132, 133, 134, 135, 136, 137, 138, 139, 140, 141, 142, 143, 144, 145, 146, 147, 148, 149, 150, 151, 152, 153, 154, 155, 156, 157, 158, 159, 160, 161, 162, 163, 164],
      "AcquisitionTime": ["174636.047500", "174637.547500", "174639.047500", "174640.547500", "174642.047500", "174643.547500", "174645.047500", "174646.547500", "174648.047500", "174649.547500", "174651.047500", "174652.547500", "174654.047500", "174655.547500", "174657.047500", "174658.547500", "174700.047500", "174701.547500", "174703.047500", "174704.547500", "174706.047500", "174707.547500", "174709.047500", "174710.547500", "174712.047500", "174713.547500", "174715.047500", "174716.547500", "174718.047500", "174719.547500", "174721.047500", "174722.547500", "174724.047500", "174725.547500", "174727.047500", "174728.547500", "174730.047500", "174731.547500", "174733.047500", "174734.547500", "174736.047500", "174737.547500", "174739.047500", "174740.547500", "174742.047500", "174743.547500", "174745.047500", "174746.547500", "174748.047500", "174749.547500", "174751.047500", "174752.547500", "174754.047500", "174755.547500", "174757.047500", "174758.547500", "174800.047500", "174801.547500", "174803.047500", "174804.547500", "174806.047500", "174807.547500", "174809.047500", "174810.547500", "174812.047500", "174813.547500", "174815.047500", "174816.547500", "174818.047500", "174819.547500", "174821.047500", "174822.547500", "174824.047500", "174825.547500", "174827.047500", "174828.547500", "174830.047500", "174831.547500", "174833.047500", "174834.547500", "174836.047500", "174837.547500", "174839.047500", "174840.547500", "174842.047500", "174843.547500", "174845.047500", "174846.547500", "174848.047500", "174849.547500", "174851.047500", "174852.547500", "174854.047500", "174855.547500", "174857.047500", "174858.547500", "174900.047500", "174901.547500", "174903.047500", "174904.547500", "174906.047500", "174907.547500", "174909.047500", "174910.547500", "174912.047500", "174913.547500", "174915.047500", "174916.547500", "174918.047500", "174919.547500", "174921.047500", "174922.547500", "174924.047500", "174925.547500", "174927.047500", "174928.547500", "174930.047500", "174931.547500", "174933.047500", "174934.547500", "174936.047500", "174937.547500", "174939.047500", "174940.547500", "174942.047500", "174943.547500", "174945.047500", "174946.547500", "174948.047500", "174949.547500", "174951.047500", "174952.547500", "174954.047500", "174955.547500", "174957.047500", "174958.547500", "175000.047500", "175001.547500", "175003.047500", "175004.547500", "175006.047500", "175007.547500", "175009.047500", "175010.547500", "175012.047500", "175013.547500", "175015.047500", "175016.547500", "175018.047500", "175019.547500", "175021.047500", "175022.547500", "175024.047500", "175025.547500", "175027.047500", "175028.547500", "175030.047500", "175031.547500", "175033.047500", "175034.547500", "175036.047500", "175037.547500", "175039.047500", "175040.547500"],
      "ContentTime": ["174724.733000", "174724.737000", "174724.740000", "174724.743000", "174724.746000", "174724.749000", "174724.752000", "174724.755000", "174724.758000", "174724.761000", "174724.764000", "174724.767000", "174724.770000", "174724.773000", "174724.776000", "174724.779000", "174724.782000", "174724.785000", "174724.789000", "174724.791000", "174724.799000", "174724.802000", "174724.805000", "174724.808000", "174724.811000", "174724.814000", "174724.817000", "174724.820000", "174724.823000", "174724.826000", "174724.829000", "174724.832000", "174804.729000", "174804.732000", "174804.735000", "174804.738000", "174804.741000", "174804.744000", "174804.747000", "174804.750000", "174804.765000", "174804.768000", "174804.771000", "174804.776000", "174804.779000", "174804.782000", "174804.785000", "174804.788000", "174804.791000", "174804.794000", "174804.797000", "174804.800000", "174804.803000", "174804.806000", "174804.809000", "174804.812000", "174804.815000", "174804.818000", "174804.820000", "174844.729000", "174844.732000", "174844.735000", "174844.738000", "174844.741000", "174844.744000", "174844.747000", "174844.750000", "174844.757000", "174844.760000", "174844.763000", "174844.766000", "174844.769000", "174844.772000", "174844.775000", "174844.790000", "174844.793000", "174844.796000", "174844.799000", "174844.802000", "174844.805000", "174844.808000", "174844.811000", "174844.814000", "174844.817000", "174844.820000", "174924.728000", "174924.731000", "174924.734000", "174924.737000", "174924.740000", "174924.743000", "174924.746000", "174924.749000", "174924.752000", "174924.755000", "174924.758000", "174924.761000", "174924.764000", "174924.767000", "174924.770000", "174924.773000", "174924.776000", "174924.779000", "174924.782000", "174924.785000", "174924.788000", "174924.791000", "174924.794000", "174924.797000", "174924.800000", "174924.803000", "174924.806000", "175004.728000", "175004.731000", "175004.734000", "175004.737000", "175004.740000", "175004.743000", "175004.746000", "175004.749000", "175004.752000", "175004.755000", "175004.758000", "175004.761000", "175004.764000", "175004.767000", "175004.770000", "175004.773000", "175004.776000", "175004.779000", "175004.782000", "175004.785000", "175004.788000", "175004.791000", "175004.794000", "175004.797000", "175004.800000", "175004.803000", "175004.806000", "175041.867000", "175041.870000", "175041.873000", "175041.876000", "175041.879000", "175041.882000", "175041.885000", "175041.888000", "175041.891000", "175041.894000", "175041.897000", "175041.900000", "175041.903000", "175041.906000", "175041.909000", "175041.912000", "175041.915000", "175041.918000", "175041.921000", "175041.924000", "175041.927000", "175041.930000", "175041.933000", "175041.936000", "175041.939000"],
      "InstanceCreationTime": ["174724.733000", "174724.737000", "174724.740000", "174724.743000", "174724.746000", "174724.749000", "174724.752000", "174724.755000", "174724.758000", "174724.761000", "174724.764000", "174724.767000", "174724.770000", "174724.773000", "174724.776000", "174724.779000", "174724.782000", "174724.785000", "174724.789000", "174724.791000", "174724.799000", "174724.802000", "174724.805000", "174724.808000", "174724.811000", "174724.814000", "174724.817000", "174724.820000", "174724.823000", "174724.826000", "174724.829000", "174724.832000", "174804.729000", "174804.732000", "174804.735000", "174804.738000", "174804.741000", "174804.744000", "174804.747000", "174804.750000", "174804.765000", "174804.768000", "174804.771000", "174804.776000", "174804.779000", "174804.782000", "174804.785000", "174804.788000", "174804.791000", "174804.794000", "174804.797000", "174804.800000", "174804.803000", "174804.806000", "174804.809000", "174804.812000", "174804.815000", "174804.818000", "174804.820000", "174844.729000", "174844.732000", "174844.735000", "174844.738000", "174844.741000", "174844.744000", "174844.747000", "174844.750000", "174844.757000", "174844.760000", "174844.763000", "174844.766000", "174844.769000", "174844.772000", "174844.775000", "174844.790000", "174844.793000", "174844.796000", "174844.799000", "174844.802000", "174844.805000", "174844.808000", "174844.811000", "174844.814000", "174844.817000", "174844.820000", "174924.728000", "174924.731000", "174924.734000", "174924.737000", "174924.740000", "174924.743000", "174924.746000", "174924.749000", "174924.752000", "174924.755000", "174924.758000", "174924.761000", "174924.764000", "174924.767000", "174924.770000", "174924.773000", "174924.776000", "174924.779000", "174924.782000", "174924.785000", "174924.788000", "174924.791000", "174924.794000", "174924.797000", "174924.800000", "174924.803000", "174924.806000", "175004.728000", "175004.731000", "175004.734000", "175004.737000", "175004.740000", "175004.743000", "175004.746000", "175004.749000", "175004.752000", "175004.755000", "175004.758000", "175004.761000", "175004.764000", "175004.767000", "175004.770000", "175004.773000", "175004.776000", "175004.779000", "175004.782000", "175004.785000", "175004.788000", "175004.791000", "175004.794000", "175004.797000", "175004.800000", "175004.803000", "175004.806000", "175041.867000", "175041.870000", "175041.873000", "175041.876000", "175041.879000", "175041.882000", "175041.885000", "175041.888000", "175041.891000", "175041.894000", "175041.897000", "175041.900000", "175041.903000", "175041.906000", "175041.909000", "175041.912000", "175041.915000", "175041.918000", "175041.921000", "175041.924000", "175041.927000", "175041.930000", "175041.933000", "175041.936000", "175041.939000"],
      "InstanceNumber": [1, 2, 3, 4, 5, 6, 7, 8, 9, 10, 11, 12, 13, 14, 15, 16, 17, 18, 19, 20, 21, 22, 23, 24, 25, 26, 27, 28, 29, 30, 31, 32, 33, 34, 35, 36, 37, 38, 39, 40, 41, 42, 43, 44, 45, 46, 47, 48, 49, 50, 51, 52, 53, 54, 55, 56, 57, 58, 59, 60, 61, 62, 63, 64, 65, 66, 67, 68, 69, 70, 71, 72, 73, 74, 75, 76, 77, 78, 79, 80, 81, 82, 83, 84, 85, 86, 87, 88, 89, 90, 91, 92, 93, 94, 95, 96, 97, 98, 99, 100, 101, 102, 103, 104, 105, 106, 107, 108, 109, 110, 111, 112, 113, 114, 115, 116, 117, 118, 119, 120, 121, 122, 123, 124, 125, 126, 127, 128, 129, 130, 131, 132, 133, 134, 135, 136, 137, 138, 139, 140, 141, 142, 143, 144, 145, 146, 147, 148, 149, 150, 151, 152, 153, 154, 155, 156, 157, 158, 159, 160, 161, 162, 163, 164],
      "LargestImagePixelValue": [3216, 3160, 3137, 3106, 3113, 3070, 3102, 3093, 3110, 3082, 3084, 3099, 3055, 3101, 3088, 3057, 3140, 3119, 3111, 3143, 3116, 3144, 3150, 3074, 3116, 3048, 3111, 3106, 3143, 3126, 3086, 3136, 3170, 3135, 3200, 3071, 3058, 3164, 3099, 3038, 3035, 3212, 3140, 3066, 3197, 3181, 3201, 3120, 3171, 3246, 3103, 3180, 3081, 3174, 3073, 3130, 3103, 3121, 3107, 3108, 3149, 3065, 3178, 3110, 3175, 3150, 3126, 3188, 3107, 3157, 3058, 3158, 2895, 3193, 3039, 3031, 3080, 2961, 3141, 3072, 3041, 3035, 3054, 3015, 3061, 3133, 3114, 3082, 3095, 3076, 3078, 3097, 3100, 3054, 3088, 3087, 3084, 3053, 3047, 3070, 3019, 3016, 3043, 3043, 3041, 2917, 3037, 2997, 3054, 3096, 3141, 3180, 3193, 3245, 3218, 3193, 3193, 3197, 3166, 3190, 3193, 3259, 3208, 3201, 3194, 3216, 3229, 3204, 3179, 3179, 3150, 3194, 3159, 3189, 3178, 3210, 3182, 3156, 3212, 3212, 3204, 3199, 3225, 3198, 3202, 3209, 3181, 3235, 3193, 3222, 3216, 3264, 3030, 3003, 3119, 3171, 3117, 3113, 3135, 3120, 3169, 3118, 3162, 3189],
      "WindowCenter": [693.0, 692.0, 692.0, 691.0, 689.0, 688.0, 689.0, 690.0, 690.0, 690.0, 690.0, 690.0, 690.0, 691.0, 690.0, 690.0, 688.0, 689.0, 690.0, 689.0, 689.0, 689.0, 690.0, 691.0, 694.0, 691.0, 690.0, 689.0, 689.0, 690.0, 689.0, 690.0, 692.0, 691.0, 691.0, 691.0, 692.0, 692.0, 690.0, 686.0, 685.0, 688.0, 690.0, 688.0, 690.0, 690.0, 689.0, 687.0, 687.0, 688.0, 688.0, 688.0, 688.0, 689.0, 688.0, 690.0, 690.0, 692.0, 691.0, 690.0, 690.0, 688.0, 689.0, 690.0, 691.0, 690.0, 688.0, 688.0, 689.0, 691.0, 689.0, 689.0, 686.0, 692.0, 690.0, 688.0, 690.0, 687.0, 689.0, 690.0, 690.0, 689.0, 684.0, 690.0, 693.0, 693.0, 695.0, 693.0, 692.0, 692.0, 693.0, 693.0, 693.0, 691.0, 691.0, 693.0, 693.0, 693.0, 691.0, 690.0, 691.0, 692.0, 692.0, 691.0, 690.0, 680.0, 695.0, 693.0, 694.0, 695.0, 696.0, 698.0, 697.0, 696.0, 695.0, 694.0, 695.0, 695.0, 695.0, 696.0, 696.0, 697.0, 697.0, 696.0, 696.0, 696.0, 697.0, 698.0, 697.0, 698.0, 697.0, 697.0, 697.0, 696.0, 697.0, 698.0, 698.0, 697.0, 697.0, 696.0, 696.0, 695.0, 694.0, 694.0, 696.0, 696.0, 696.0, 695.0, 693.0, 695.0, 695.0, 692.0, 691.0, 689.0, 689.0, 691.0, 691.0, 690.0, 689.0, 689.0, 690.0, 690.0, 691.0, 691.0],
      "WindowWidth": [1508.0, 1503.0, 1503.0, 1500.0, 1494.0, 1493.0, 1496.0, 1498.0, 1498.0, 1497.0, 1497.0, 1497.0, 1497.0, 1500.0, 1499.0, 1497.0, 1493.0, 1495.0, 1498.0, 1496.0, 1496.0, 1494.0, 1497.0, 1502.0, 1508.0, 1502.0, 1499.0, 1496.0, 1496.0, 1498.0, 1495.0, 1498.0, 1504.0, 1500.0, 1500.0, 1501.0, 1504.0, 1503.0, 1497.0, 1488.0, 1486.0, 1491.0, 1497.0, 1493.0, 1498.0, 1497.0, 1496.0, 1489.0, 1488.0, 1492.0, 1492.0, 1492.0, 1492.0, 1496.0, 1494.0, 1499.0, 1499.0, 1503.0, 1500.0, 1499.0, 1498.0, 1492.0, 1496.0, 1498.0, 1501.0, 1499.0, 1493.0, 1492.0, 1497.0, 1502.0, 1496.0, 1495.0, 1488.0, 1503.0, 1497.0, 1493.0, 1497.0, 1491.0, 1495.0, 1498.0, 1499.0, 1497.0, 1483.0, 1499.0, 1506.0, 1507.0, 1511.0, 1508.0, 1502.0, 1503.0, 1506.0, 1506.0, 1506.0, 1499.0, 1500.0, 1507.0, 1508.0, 1506.0, 1500.0, 1499.0, 1500.0, 1503.0, 1504.0, 1501.0, 1498.0, 1474.0, 1511.0, 1508.0, 1510.0, 1511.0, 1515.0, 1520.0, 1517.0, 1516.0, 1512.0, 1510.0, 1513.0, 1511.0, 1512.0, 1515.0, 1513.0, 1518.0, 1516.0, 1515.0, 1514.0, 1515.0, 1517.0, 1519.0, 1518.0, 1519.0, 1516.0, 1516.0, 1516.0, 1516.0, 1517.0, 1520.0, 1519.0, 1518.0, 1518.0, 1515.0, 1515.0, 1511.0, 1510.0, 1509.0, 1516.0, 1514.0, 1514.0, 1510.0, 1507.0, 1510.0, 1512.0, 1504.0, 1501.0, 1496.0, 1495.0, 1500.0, 1500.0, 1498.0, 1496.0, 1496.0, 1497.0, 1497.0, 1501.0, 1501.0]
    },
    "slices": {}
  }
}