{
  "AcquisitionMatrixPE": 72,
  "AcquisitionNumber": 1,
  "AcquisitionTime": "17:34:28.270000",
  "BandwidthPerPixelPhaseEncode": 17.943,
  "BaseResolution": 96,
  "BodyPartExamined": "BRAIN",
  "CoilCombinationMethod": "Sum of Squares",
  "ConsistencyInfo": "N4_VE11C_LATEST_20160120",
  "ConversionSoftware": "dcm2niix",
  "ConversionSoftwareVersion": "v1.0.20211006",
  "DerivedVendorReportedEchoSpacing": 0.000552897,
  "DeviceSerialNumber": "166011",
  "EchoTime": 0.03,
  "EchoTrainLength": 58,
  "EffectiveEchoSpacing": 0.000580542,
  "FlipAngle": 62,
  "ImageOrientationPatientDICOM": [0.999834, 0.016108, -0.00852869, -0.0141358, 0.980691, 0.195054],
  "ImageType": [
    "ORIGINAL",
    "PRIMARY",
    "M",
    "ND",
    "MOSAIC"
],
  "ImagingFrequency": 123.259,
  "InPlanePhaseEncodingDirectionDICOM": "COL",
  "InstitutionAddress": "West 130th Street 610,NY,NYC,US,10025",
  "InstitutionName": "MBBI",
  "MRAcquisitionType": "2D",
  "MagneticFieldStrength": 3,
  "Manufacturer": "Siemens",
  "ManufacturersModelName": "Prisma",
  "Modality": "MR",
  "MultibandAccelerationFactor": 3,
  "PartialFourier": 0.75,
  "PatientPosition": "HFS",
  "PercentPhaseFOV": 100,
  "PercentSampling": 75,
  "PhaseEncodingDirection": "j-",
  "PhaseEncodingSteps": 58,
  "PhaseOversampling": 0.05,
  "PhaseResolution": 0.75,
  "PixelBandwidth": 2265,
  "ProcedureStepDescription": "White^Word_recognition",
  "ProtocolName": "func_language_run1",
  "PulseSequenceDetails": "%SiemensSeq%\\ep2d_bold",
  "ReceiveCoilActiveElements": "HC1-7",
  "ReceiveCoilName": "HeadNeck_64",
  "ReconMatrixPE": 96,
  "RefLinesPE": 40,
  "RepetitionTime": 1.5,
  "SAR": 0.0451354,
  "ScanOptions": "PFP\\FS",
  "ScanningSequence": "EP",
  "SequenceName": "*epfid2d1_72",
  "SequenceVariant": "SK\\OSP",
  "SeriesDescription": "func_language_run1",
  "SeriesNumber": 11,
  "ShimSetting": [-1153, -1415, 780, 767, -120, -226, 130, -8],
  "SliceThickness": 2,
  "SliceTiming": [1.075, 0, 0.74, 0.0675, 0.8075, 0.135, 0.875, 0.2, 0.94, 0.2675, 1.0075, 0.4025, 1.1425, 0.47, 1.21, 0.5375, 1.2775, 0.605, 1.345, 0.6725, 1.4125, 0.335, 1.075, 0, 0.74, 0.0675, 0.8075, 0.135, 0.875, 0.2, 0.94, 0.2675, 1.0075, 0.4025, 1.1425, 0.47, 1.21, 0.5375, 1.2775, 0.605, 1.345, 0.6725, 1.4125, 0.335, 1.075, 0, 0.74, 0.0675, 0.8075, 0.135, 0.875, 0.2, 0.94, 0.2675, 1.0075, 0.4025, 1.1425, 0.47, 1.21, 0.5375, 1.2775, 0.605, 1.345, 0.6725, 1.4125, 0.335],
  "SoftwareVersions": "syngo MR E11",
  "SpacingBetweenSlices": 2,
  "StationName": "AWP166011",
  "TaskName": "langLoc",
  "TotalReadoutTime": 0.0551515,
  "TxRefAmp": 214.325,
  "dcmmeta_affine": [
    [-1.999667763710022, -0.02827155590057373, -0.02301187999546528, 98.1517105102539],
    [-0.032216042280197144, 1.9613813161849976, 0.3898019790649414, -80.66939544677734],
    [-0.017057379707694054, -0.3901078999042511, 1.9615108966827393, -24.955469131469727],
    [0.0, 0.0, 0.0, 1.0]
],
  "dcmmeta_reorient_transform": [
    [0.0, -1.0, 0.0, 95.0],
    [1.0, 0.0, 0.0, 0.0],
    [0.0, 0.0, 1.0, 0.0],
    [0.0, 0.0, 0.0, 1.0]
],
  "dcmmeta_shape": [96, 96, 66, 239],
  "dcmmeta_slice_dim": 2,
  "dcmmeta_version": 0.6,
  "global": {
    "const": {
      "AcquisitionMatrix": [96, 0, 0, 72],
      "AngioFlag": "N",
      "BitsAllocated": 16,
      "BitsStored": 12,
      "BodyPartExamined": "BRAIN",
      "Columns": 864,
      "EchoNumbers": 1,
      "EchoTime": 30.0,
      "EchoTrainLength": 58,
      "FlipAngle": 62.0,
      "HighBit": 11,
      "ImageOrientationPatient": [0.99983388276873, 0.0161080202759, -0.0085286898404, -0.0141357783013, 0.98069064240633, 0.19505395066105],
      "ImagePositionPatient": [-852.48205477935, -871.20319605433, -205.26712024037],
      "ImageType": [
        "ORIGINAL",
        "PRIMARY",
        "M",
        "ND",
        "MOSAIC"
],
      "ImagedNucleus": "1H",
      "ImagingFrequency": 123.259421,
      "InPlanePhaseEncodingDirection": "COL",
      "MRAcquisitionType": "2D",
      "MagneticFieldStrength": 3.0,
      "Manufacturer": "SIEMENS",
      "ManufacturerModelName": "Prisma",
      "Modality": "MR",
      "NumberOfAverages": 1.0,
      "NumberOfPhaseEncodingSteps": 58,
      "PercentPhaseFieldOfView": 100.0,
      "PercentSampling": 75.0,
      "PerformedProcedureStepStartTime": "164859.005000",
      "PhotometricInterpretation": "MONOCHROME2",
      "PixelBandwidth": 2265.0,
      "PixelRepresentation": 0,
      "PixelSpacing": [2.0, 2.0],
      "ProtocolName": "func_language_run1",
      "RepetitionTime": 1500.0,
      "Rows": 864,
      "SAR": 0.04513535274235,
      "SamplesPerPixel": 1,
      "ScanOptions": [
        "PFP",
        "FS"
],
      "ScanningSequence": "EP",
      "SequenceName": "*epfid2d1_72",
      "SequenceVariant": [
        "SK",
        "OSP"
],
      "SeriesDescription": "func_language_run1",
      "SeriesNumber": 11,
      "SeriesTime": "173504.882000",
      "SliceLocation": -41.327085333503,
      "SliceThickness": 2.0,
      "SmallestImagePixelValue": 0,
      "SoftwareVersions": "syngo MR E11",
      "SpacingBetweenSlices": 2.0000000655709,
      "SpecificCharacterSet": "ISO_IR 100",
      "StudyID": "2",
      "StudyTime": "164858.928000",
      "TransmitCoilName": "Body",
      "VariableFlipAngleFlag": "N",
      "WindowCenterWidthExplanation": "Algo1",
      "dBdt": 0.0},
    "slices": {}
  },
  "time": {
    "samples": {
      "AcquisitionNumber": [1, 2, 3, 4, 5, 6, 7, 8, 9, 10, 11, 12, 13, 14, 15, 16, 17, 18, 19, 20, 21, 22, 23, 24, 25, 26, 27, 28, 29, 30, 31, 32, 33, 34, 35, 36, 37, 38, 39, 40, 41, 42, 43, 44, 45, 46, 47, 48, 49, 50, 51, 52, 53, 54, 55, 56, 57, 58, 59, 60, 61, 62, 63, 64, 65, 66, 67, 68, 69, 70, 71, 72, 73, 74, 75, 76, 77, 78, 79, 80, 81, 82, 83, 84, 85, 86, 87, 88, 89, 90, 91, 92, 93, 94, 95, 96, 97, 98, 99, 100, 101, 102, 103, 104, 105, 106, 107, 108, 109, 110, 111, 112, 113, 114, 115, 116, 117, 118, 119, 120, 121, 122, 123, 124, 125, 126, 127, 128, 129, 130, 131, 132, 133, 134, 135, 136, 137, 138, 139, 140, 141, 142, 143, 144, 145, 146, 147, 148, 149, 150, 151, 152, 153, 154, 155, 156, 157, 158, 159, 160, 161, 162, 163, 164, 165, 166, 167, 168, 169, 170, 171, 172, 173, 174, 175, 176, 177, 178, 179, 180, 181, 182, 183, 184, 185, 186, 187, 188, 189, 190, 191, 192, 193, 194, 195, 196, 197, 198, 199, 200, 201, 202, 203, 204, 205, 206, 207, 208, 209, 210, 211, 212, 213, 214, 215, 216, 217, 218, 219, 220, 221, 222, 223, 224, 225, 226, 227, 228, 229, 230, 231, 232, 233, 234, 235, 236, 237, 238, 239],
      "AcquisitionTime": ["173428.270000", "173429.770000", "173431.270000", "173432.770000", "173434.270000", "173435.770000", "173437.270000", "173438.770000", "173440.270000", "173441.770000", "173443.270000", "173444.770000", "173446.270000", "173447.770000", "173449.270000", "173450.770000", "173452.270000", "173453.770000", "173455.270000", "173456.770000", "173458.270000", "173459.770000", "173501.270000", "173502.770000", "173504.270000", "173505.770000", "173507.270000", "173508.770000", "173510.270000", "173511.770000", "173513.270000", "173514.770000", "173516.270000", "173517.770000", "173519.270000", "173520.770000", "173522.270000", "173523.770000", "173525.270000", "173526.770000", "173528.270000", "173529.770000", "173531.270000", "173532.770000", "173534.270000", "173535.770000", "173537.270000", "173538.770000", "173540.270000", "173541.770000", "173543.270000", "173544.770000", "173546.270000", "173547.770000", "173549.270000", "173550.770000", "173552.270000", "173553.770000", "173555.270000", "173556.770000", "173558.270000", "173559.770000", "173601.270000", "173602.770000", "173604.270000", "173605.770000", "173607.270000", "173608.770000", "173610.270000", "173611.770000", "173613.270000", "173614.770000", "173616.270000", "173617.770000", "173619.270000", "173620.770000", "173622.270000", "173623.770000", "173625.270000", "173626.770000", "173628.270000", "173629.770000", "173631.270000", "173632.770000", "173634.270000", "173635.770000", "173637.270000", "173638.770000", "173640.270000", "173641.770000", "173643.270000", "173644.770000", "173646.270000", "173647.770000", "173649.270000", "173650.770000", "173652.270000", "173653.770000", "173655.270000", "173656.770000", "173658.270000", "173659.770000", "173701.270000", "173702.770000", "173704.270000", "173705.770000", "173707.270000", "173708.770000", "173710.270000", "173711.770000", "173713.270000", "173714.770000", "173716.270000", "173717.770000", "173719.270000", "173720.770000", "173722.270000", "173723.770000", "173725.270000", "173726.770000", "173728.270000", "173729.770000", "173731.270000", "173732.770000", "173734.270000", "173735.770000", "173737.270000", "173738.770000", "173740.270000", "173741.770000", "173743.270000", "173744.770000", "173746.270000", "173747.770000", "173749.270000", "173750.770000", "173752.270000", "173753.770000", "173755.270000", "173756.770000", "173758.270000", "173759.770000", "173801.270000", "173802.770000", "173804.270000", "173805.770000", "173807.270000", "173808.770000", "173810.270000", "173811.770000", "173813.270000", "173814.770000", "173816.270000", "173817.770000", "173819.270000", "173820.770000", "173822.270000", "173823.770000", "173825.270000", "173826.770000", "173828.270000", "173829.770000", "173831.270000", "173832.770000", "173834.270000", "173835.770000", "173837.270000", "173838.770000", "173840.270000", "173841.770000", "173843.270000", "173844.770000", "173846.270000", "173847.770000", "173849.270000", "173850.770000", "173852.270000", "173853.770000", "173855.270000", "173856.770000", "173858.270000", "173859.770000", "173901.270000", "173902.770000", "173904.270000", "173905.770000", "173907.270000", "173908.770000", "173910.270000", "173911.770000", "173913.270000", "173914.770000", "173916.270000", "173917.770000", "173919.270000", "173920.770000", "173922.270000", "173923.770000", "173925.270000", "173926.770000", "173928.270000", "173929.770000", "173931.270000", "173932.770000", "173934.270000", "173935.770000", "173937.270000", "173938.770000", "173940.270000", "173941.770000", "173943.270000", "173944.770000", "173946.270000", "173947.770000", "173949.270000", "173950.770000", "173952.270000", "173953.770000", "173955.270000", "173956.770000", "173958.270000", "173959.770000", "174001.270000", "174002.770000", "174004.270000", "174005.770000", "174007.270000", "174008.770000", "174010.270000", "174011.770000", "174013.270000", "174014.770000", "174016.270000", "174017.770000", "174019.270000", "174020.770000", "174022.270000", "174023.770000", "174025.270000"],
      "ContentTime": ["173504.886000", "173504.890000", "173504.897000", "173504.902000", "173504.905000", "173504.908000", "173504.911000", "173504.914000", "173504.917000", "173504.920000", "173504.923000", "173504.926000", "173504.930000", "173504.933000", "173504.936000", "173504.939000", "173504.942000", "173504.945000", "173504.954000", "173504.958000", "173504.961000", "173504.964000", "173504.967000", "173504.970000", "173544.881000", "173544.885000", "173544.888000", "173544.898000", "173544.911000", "173544.914000", "173544.917000", "173544.920000", "173544.923000", "173544.926000", "173544.929000", "173544.932000", "173544.935000", "173544.938000", "173544.941000", "173544.944000", "173544.947000", "173544.950000", "173544.953000", "173544.956000", "173544.959000", "173544.962000", "173544.965000", "173544.968000", "173544.971000", "173544.974000", "173624.880000", "173624.883000", "173624.886000", "173624.889000", "173624.892000", "173624.895000", "173624.898000", "173624.901000", "173624.904000", "173624.908000", "173624.911000", "173624.914000", "173624.917000", "173624.920000", "173624.923000", "173624.926000", "173624.929000", "173624.932000", "173624.935000", "173624.938000", "173624.941000", "173624.944000", "173624.952000", "173624.955000", "173624.959000", "173624.962000", "173624.965000", "173704.881000", "173704.884000", "173704.887000", "173704.890000", "173704.893000", "173704.896000", "173704.899000", "173704.902000", "173704.906000", "173704.909000", "173704.912000", "173704.915000", "173704.918000", "173704.921000", "173704.924000", "173704.927000", "173704.930000", "173704.933000", "173704.936000", "173704.939000", "173704.942000", "173704.945000", "173704.948000", "173704.951000", "173704.954000", "173704.957000", "173704.960000", "173744.881000", "173744.884000", "173744.887000", "173744.890000", "173744.893000", "173744.896000", "173744.899000", "173744.903000", "173744.906000", "173744.909000", "173744.912000", "173744.915000", "173744.918000", "173744.921000", "173744.924000", "173744.927000", "173744.930000", "173744.934000", "173744.937000", "173744.940000", "173744.943000", "173744.946000", "173744.949000", "173744.952000", "173744.955000", "173744.958000", "173824.881000", "173824.884000", "173824.887000", "173824.890000", "173824.894000", "173824.897000", "173824.900000", "173824.903000", "173824.906000", "173824.909000", "173824.912000", "173824.915000", "173824.918000", "173824.921000", "173824.924000", "173824.927000", "173824.930000", "173824.933000", "173824.936000", "173824.952000", "173824.955000", "173824.958000", "173824.961000", "173824.964000", "173824.967000", "173824.970000", "173824.973000", "173904.881000", "173904.884000", "173904.887000", "173904.890000", "173904.893000", "173904.896000", "173904.900000", "173904.903000", "173904.906000", "173904.909000", "173904.912000", "173904.915000", "173904.918000", "173904.921000", "173904.924000", "173904.927000", "173904.930000", "173904.933000", "173904.936000", "173904.950000", "173904.953000", "173904.956000", "173904.959000", "173904.962000", "173904.965000", "173904.968000", "173904.971000", "173944.882000", "173944.887000", "173944.891000", "173944.894000", "173944.897000", "173944.900000", "173944.903000", "173944.906000", "173944.909000", "173944.912000", "173944.915000", "173944.918000", "173944.922000", "173944.925000", "173944.928000", "173944.931000", "173944.934000", "173944.937000", "173944.940000", "173944.943000", "173944.946000", "173944.949000", "173944.952000", "173944.955000", "173944.958000", "173944.961000", "174024.881000", "174024.884000", "174024.888000", "174024.891000", "174024.894000", "174024.897000", "174024.900000", "174024.903000", "174024.906000", "174024.909000", "174024.912000", "174024.915000", "174024.919000", "174024.922000", "174024.925000", "174024.928000", "174024.931000", "174024.934000", "174024.937000", "174024.940000", "174024.943000", "174024.946000", "174024.950000", "174024.953000", "174024.956000", "174024.959000", "174024.962000", "174026.908000", "174026.911000"],
      "InstanceCreationTime": ["173504.886000", "173504.890000", "173504.897000", "173504.902000", "173504.905000", "173504.908000", "173504.911000", "173504.914000", "173504.917000", "173504.920000", "173504.923000", "173504.926000", "173504.930000", "173504.933000", "173504.936000", "173504.939000", "173504.942000", "173504.945000", "173504.954000", "173504.958000", "173504.961000", "173504.964000", "173504.967000", "173504.970000", "173544.881000", "173544.885000", "173544.888000", "173544.898000", "173544.911000", "173544.914000", "173544.917000", "173544.920000", "173544.923000", "173544.926000", "173544.929000", "173544.932000", "173544.935000", "173544.938000", "173544.941000", "173544.944000", "173544.947000", "173544.950000", "173544.953000", "173544.956000", "173544.959000", "173544.962000", "173544.965000", "173544.968000", "173544.971000", "173544.974000", "173624.880000", "173624.883000", "173624.886000", "173624.889000", "173624.892000", "173624.895000", "173624.898000", "173624.901000", "173624.904000", "173624.908000", "173624.911000", "173624.914000", "173624.917000", "173624.920000", "173624.923000", "173624.926000", "173624.929000", "173624.932000", "173624.935000", "173624.938000", "173624.941000", "173624.944000", "173624.952000", "173624.955000", "173624.959000", "173624.962000", "173624.965000", "173704.881000", "173704.884000", "173704.887000", "173704.890000", "173704.893000", "173704.896000", "173704.899000", "173704.902000", "173704.906000", "173704.909000", "173704.912000", "173704.915000", "173704.918000", "173704.921000", "173704.924000", "173704.927000", "173704.930000", "173704.933000", "173704.936000", "173704.939000", "173704.942000", "173704.945000", "173704.948000", "173704.951000", "173704.954000", "173704.957000", "173704.960000", "173744.881000", "173744.884000", "173744.887000", "173744.890000", "173744.893000", "173744.896000", "173744.899000", "173744.903000", "173744.906000", "173744.909000", "173744.912000", "173744.915000", "173744.918000", "173744.921000", "173744.924000", "173744.927000", "173744.930000", "173744.934000", "173744.937000", "173744.940000", "173744.943000", "173744.946000", "173744.949000", "173744.952000", "173744.955000", "173744.958000", "173824.881000", "173824.884000", "173824.887000", "173824.890000", "173824.894000", "173824.897000", "173824.900000", "173824.903000", "173824.906000", "173824.909000", "173824.912000", "173824.915000", "173824.918000", "173824.921000", "173824.924000", "173824.927000", "173824.930000", "173824.933000", "173824.936000", "173824.952000", "173824.955000", "173824.958000", "173824.961000", "173824.964000", "173824.967000", "173824.970000", "173824.973000", "173904.881000", "173904.884000", "173904.887000", "173904.890000", "173904.893000", "173904.896000", "173904.900000", "173904.903000", "173904.906000", "173904.909000", "173904.912000", "173904.915000", "173904.918000", "173904.921000", "173904.924000", "173904.927000", "173904.930000", "173904.933000", "173904.936000", "173904.950000", "173904.953000", "173904.956000", "173904.959000", "173904.962000", "173904.965000", "173904.968000", "173904.971000", "173944.882000", "173944.887000", "173944.891000", "173944.894000", "173944.897000", "173944.900000", "173944.903000", "173944.906000", "173944.909000", "173944.912000", "173944.915000", "173944.918000", "173944.922000", "173944.925000", "173944.928000", "173944.931000", "173944.934000", "173944.937000", "173944.940000", "173944.943000", "173944.946000", "173944.949000", "173944.952000", "173944.955000", "173944.958000", "173944.961000", "174024.881000", "174024.884000", "174024.888000", "174024.891000", "174024.894000", "174024.897000", "174024.900000", "174024.903000", "174024.906000", "174024.909000", "174024.912000", "174024.915000", "174024.919000", "174024.922000", "174024.925000", "174024.928000", "174024.931000", "174024.934000", "174024.937000", "174024.940000", "174024.943000", "174024.946000", "174024.950000", "174024.953000", "174024.956000", "174024.959000", "174024.962000", "174026.908000", "174026.911000"],
      "InstanceNumber": [1, 2, 3, 4, 5, 6, 7, 8, 9, 10, 11, 12, 13, 14, 15, 16, 17, 18, 19, 20, 21, 22, 23, 24, 25, 26, 27, 28, 29, 30, 31, 32, 33, 34, 35, 36, 37, 38, 39, 40, 41, 42, 43, 44, 45, 46, 47, 48, 49, 50, 51, 52, 53, 54, 55, 56, 57, 58, 59, 60, 61, 62, 63, 64, 65, 66, 67, 68, 69, 70, 71, 72, 73, 74, 75, 76, 77, 78, 79, 80, 81, 82, 83, 84, 85, 86, 87, 88, 89, 90, 91, 92, 93, 94, 95, 96, 97, 98, 99, 100, 101, 102, 103, 104, 105, 106, 107, 108, 109, 110, 111, 112, 113, 114, 115, 116, 117, 118, 119, 120, 121, 122, 123, 124, 125, 126, 127, 128, 129, 130, 131, 132, 133, 134, 135, 136, 137, 138, 139, 140, 141, 142, 143, 144, 145, 146, 147, 148, 149, 150, 151, 152, 153, 154, 155, 156, 157, 158, 159, 160, 161, 162, 163, 164, 165, 166, 167, 168, 169, 170, 171, 172, 173, 174, 175, 176, 177, 178, 179, 180, 181, 182, 183, 184, 185, 186, 187, 188, 189, 190, 191, 192, 193, 194, 195, 196, 197, 198, 199, 200, 201, 202, 203, 204, 205, 206, 207, 208, 209, 210, 211, 212, 213, 214, 215, 216, 217, 218, 219, 220, 221, 222, 223, 224, 225, 226, 227, 228, 229, 230, 231, 232, 233, 234, 235, 236, 237, 238, 239],
      "LargestImagePixelValue": [2401, 2330, 2308, 2403, 2362, 2312, 2307, 2302, 2266, 2304, 2385, 2320, 2297, 2294, 2275, 2278, 2278, 2260, 2281, 2207, 2264, 2262, 2205, 2236, 2206, 2257, 2245, 2207, 2240, 2260, 2270, 2209, 2237, 2255, 2283, 2222, 2249, 2233, 2235, 2244, 2260, 2284, 2207, 2256, 2311, 2272, 2256, 2331, 2247, 2325, 2266, 2283, 2294, 2262, 2323, 2296, 2304, 2309, 2264, 2297, 2263, 2255, 2292, 2230, 2233, 2250, 2289, 2234, 2245, 2248, 2244, 2281, 2236, 2239, 2278, 2232, 2239, 2245, 2222, 2240, 2233, 2236, 2250, 2242, 2235, 2230, 2226, 2264, 2270, 2261, 2258, 2274, 2254, 2262, 2229, 2220, 2237, 2269, 2247, 2349, 2303, 2253, 2224, 2298, 2236, 2215, 2198, 2207, 2245, 2215, 2195, 2234, 2193, 2218, 2199, 2266, 2210, 2213, 2235, 2202, 2224, 2226, 2298, 2210, 2276, 2209, 2262, 2209, 2232, 2226, 2196, 2228, 2216, 2268, 2222, 2239, 2280, 2251, 2326, 2275, 2231, 2230, 2306, 2261, 2250, 2258, 2333, 2300, 2277, 2282, 2291, 2273, 2262, 2301, 2275, 2281, 2252, 2258, 2264, 2250, 2301, 2291, 2268, 2284, 2252, 2251, 2250, 2252, 2258, 2273, 2230, 2262, 2285, 2245, 2237, 2241, 2232, 2242, 2127, 2504, 2357, 2351, 2266, 2284, 2277, 2270, 2277, 2289, 2297, 2285, 2301, 2246, 2281, 2267, 2296, 2290, 2320, 2228, 2327, 2276, 2264, 2256, 2255, 2298, 2267, 2286, 2255, 2289, 2258, 2271, 2258, 2293, 2266, 2302, 2275, 2256, 2271, 2259, 2326, 2295, 2280, 2236, 2246, 2237, 2286, 2309, 2327, 2315, 2327, 2292, 2269, 2286, 2297, 2308, 2294, 2289, 2289, 2322, 2289],
      "WindowCenter": [692.0, 691.0, 687.0, 692.0, 692.0, 691.0, 691.0, 691.0, 689.0, 691.0, 691.0, 691.0, 690.0, 690.0, 690.0, 690.0, 691.0, 692.0, 692.0, 691.0, 691.0, 690.0, 689.0, 689.0, 689.0, 690.0, 689.0, 689.0, 689.0, 689.0, 691.0, 690.0, 690.0, 690.0, 690.0, 689.0, 690.0, 689.0, 689.0, 690.0, 690.0, 691.0, 690.0, 691.0, 691.0, 689.0, 689.0, 690.0, 690.0, 691.0, 690.0, 690.0, 690.0, 690.0, 690.0, 690.0, 690.0, 689.0, 690.0, 691.0, 691.0, 691.0, 691.0, 690.0, 690.0, 689.0, 689.0, 688.0, 689.0, 689.0, 689.0, 690.0, 689.0, 689.0, 690.0, 689.0, 690.0, 690.0, 690.0, 690.0, 690.0, 690.0, 690.0, 689.0, 690.0, 689.0, 689.0, 689.0, 689.0, 690.0, 690.0, 690.0, 690.0, 690.0, 689.0, 689.0, 690.0, 690.0, 690.0, 690.0, 690.0, 691.0, 691.0, 691.0, 690.0, 690.0, 689.0, 689.0, 689.0, 689.0, 688.0, 688.0, 688.0, 689.0, 689.0, 689.0, 690.0, 689.0, 690.0, 689.0, 689.0, 689.0, 689.0, 688.0, 689.0, 688.0, 688.0, 688.0, 688.0, 688.0, 687.0, 687.0, 688.0, 688.0, 689.0, 689.0, 690.0, 689.0, 690.0, 692.0, 692.0, 691.0, 690.0, 689.0, 688.0, 689.0, 690.0, 690.0, 690.0, 690.0, 691.0, 691.0, 691.0, 690.0, 690.0, 689.0, 689.0, 689.0, 689.0, 690.0, 691.0, 689.0, 689.0, 689.0, 689.0, 689.0, 688.0, 688.0, 688.0, 688.0, 688.0, 688.0, 688.0, 688.0, 688.0, 688.0, 688.0, 688.0, 679.0, 690.0, 690.0, 689.0, 688.0, 689.0, 688.0, 688.0, 687.0, 687.0, 687.0, 687.0, 687.0, 687.0, 688.0, 689.0, 689.0, 689.0, 691.0, 689.0, 690.0, 689.0, 689.0, 689.0, 688.0, 688.0, 688.0, 688.0, 687.0, 688.0, 688.0, 689.0, 689.0, 691.0, 691.0, 690.0, 690.0, 689.0, 689.0, 689.0, 690.0, 691.0, 690.0, 688.0, 687.0, 688.0, 689.0, 690.0, 690.0, 692.0, 691.0, 690.0, 689.0, 689.0, 689.0, 690.0, 690.0, 689.0, 689.0, 689.0, 688.0],
      "WindowWidth": [1491.0, 1488.0, 1478.0, 1490.0, 1490.0, 1486.0, 1486.0, 1486.0, 1483.0, 1486.0, 1486.0, 1486.0, 1483.0, 1484.0, 1484.0, 1486.0, 1488.0, 1489.0, 1490.0, 1487.0, 1487.0, 1485.0, 1481.0, 1482.0, 1483.0, 1484.0, 1483.0, 1483.0, 1483.0, 1483.0, 1488.0, 1486.0, 1485.0, 1484.0, 1483.0, 1483.0, 1483.0, 1483.0, 1483.0, 1483.0, 1486.0, 1486.0, 1485.0, 1489.0, 1487.0, 1483.0, 1483.0, 1485.0, 1485.0, 1486.0, 1485.0, 1485.0, 1484.0, 1484.0, 1484.0, 1484.0, 1483.0, 1483.0, 1485.0, 1487.0, 1488.0, 1487.0, 1486.0, 1484.0, 1483.0, 1482.0, 1481.0, 1480.0, 1482.0, 1483.0, 1483.0, 1483.0, 1482.0, 1483.0, 1484.0, 1483.0, 1484.0, 1484.0, 1484.0, 1484.0, 1484.0, 1484.0, 1484.0, 1482.0, 1484.0, 1483.0, 1482.0, 1482.0, 1483.0, 1484.0, 1485.0, 1485.0, 1484.0, 1484.0, 1482.0, 1482.0, 1484.0, 1485.0, 1485.0, 1485.0, 1486.0, 1487.0, 1487.0, 1487.0, 1485.0, 1484.0, 1483.0, 1481.0, 1482.0, 1482.0, 1481.0, 1480.0, 1480.0, 1482.0, 1482.0, 1483.0, 1484.0, 1483.0, 1484.0, 1482.0, 1481.0, 1481.0, 1482.0, 1480.0, 1481.0, 1479.0, 1480.0, 1480.0, 1479.0, 1478.0, 1478.0, 1477.0, 1478.0, 1480.0, 1482.0, 1483.0, 1484.0, 1483.0, 1485.0, 1490.0, 1491.0, 1487.0, 1485.0, 1482.0, 1480.0, 1482.0, 1484.0, 1485.0, 1485.0, 1485.0, 1487.0, 1487.0, 1487.0, 1485.0, 1483.0, 1481.0, 1481.0, 1482.0, 1483.0, 1483.0, 1485.0, 1482.0, 1482.0, 1482.0, 1481.0, 1481.0, 1480.0, 1479.0, 1478.0, 1478.0, 1479.0, 1480.0, 1480.0, 1479.0, 1480.0, 1479.0, 1479.0, 1478.0, 1457.0, 1484.0, 1485.0, 1482.0, 1480.0, 1480.0, 1479.0, 1479.0, 1477.0, 1476.0, 1477.0, 1476.0, 1477.0, 1477.0, 1479.0, 1481.0, 1481.0, 1482.0, 1487.0, 1483.0, 1484.0, 1482.0, 1481.0, 1481.0, 1480.0, 1480.0, 1479.0, 1478.0, 1477.0, 1478.0, 1479.0, 1481.0, 1483.0, 1486.0, 1487.0, 1485.0, 1483.0, 1481.0, 1481.0, 1482.0, 1484.0, 1486.0, 1484.0, 1480.0, 1477.0, 1480.0, 1482.0, 1484.0, 1485.0, 1489.0, 1486.0, 1484.0, 1482.0, 1482.0, 1482.0, 1484.0, 1484.0, 1482.0, 1482.0, 1481.0, 1479.0]
    },
    "slices": {}
  }
}