{
  "AcquisitionMatrixPE": 72,
  "AcquisitionNumber": 1,
  "AcquisitionTime": "17:41:19.127500",
  "BandwidthPerPixelPhaseEncode": 17.943,
  "BaseResolution": 96,
  "BodyPartExamined": "BRAIN",
  "CoilCombinationMethod": "Sum of Squares",
  "ConsistencyInfo": "N4_VE11C_LATEST_20160120",
  "ConversionSoftware": "dcm2niix",
  "ConversionSoftwareVersion": "v1.0.20211006",
  "DerivedVendorReportedEchoSpacing": 0.000552897,
  "DeviceSerialNumber": "166011",
  "EchoTime": 0.03,
  "EchoTrainLength": 58,
  "EffectiveEchoSpacing": 0.000580542,
  "FlipAngle": 62,
  "ImageOrientationPatientDICOM": [0.999834, 0.016108, -0.00852869, -0.0141358, 0.980691, 0.195054],
  "ImageType": [
    "ORIGINAL",
    "PRIMARY",
    "M",
    "ND",
    "MOSAIC"
],
  "ImagingFrequency": 123.259,
  "InPlanePhaseEncodingDirectionDICOM": "COL",
  "InstitutionAddress": "West 130th Street 610,NY,NYC,US,10025",
  "InstitutionName": "MBBI",
  "MRAcquisitionType": "2D",
  "MagneticFieldStrength": 3,
  "Manufacturer": "Siemens",
  "ManufacturersModelName": "Prisma",
  "Modality": "MR",
  "MultibandAccelerationFactor": 3,
  "PartialFourier": 0.75,
  "PatientPosition": "HFS",
  "PercentPhaseFOV": 100,
  "PercentSampling": 75,
  "PhaseEncodingDirection": "j-",
  "PhaseEncodingSteps": 58,
  "PhaseOversampling": 0.05,
  "PhaseResolution": 0.75,
  "PixelBandwidth": 2265,
  "ProcedureStepDescription": "White^Word_recognition",
  "ProtocolName": "func_language_run2",
  "PulseSequenceDetails": "%SiemensSeq%\\ep2d_bold",
  "ReceiveCoilActiveElements": "HC1-7",
  "ReceiveCoilName": "HeadNeck_64",
  "ReconMatrixPE": 96,
  "RefLinesPE": 40,
  "RepetitionTime": 1.5,
  "SAR": 0.0451354,
  "ScanOptions": "PFP\\FS",
  "ScanningSequence": "EP",
  "SequenceName": "*epfid2d1_72",
  "SequenceVariant": "SK\\OSP",
  "SeriesDescription": "func_language_run2",
  "SeriesNumber": 12,
  "ShimSetting": [-1153, -1415, 780, 767, -120, -226, 130, -8],
  "SliceThickness": 2,
  "SliceTiming": [1.0775, 0, 0.74, 0.0675, 0.8075, 0.135, 0.875, 0.2025, 0.9425, 0.27, 1.01, 0.405, 1.145, 0.4725, 1.2125, 0.54, 1.28, 0.6075, 1.3475, 0.6725, 1.4125, 0.3375, 1.0775, 0, 0.74, 0.0675, 0.8075, 0.135, 0.875, 0.2025, 0.9425, 0.27, 1.01, 0.405, 1.145, 0.4725, 1.2125, 0.54, 1.28, 0.6075, 1.3475, 0.6725, 1.4125, 0.3375, 1.0775, 0, 0.74, 0.0675, 0.8075, 0.135, 0.875, 0.2025, 0.9425, 0.27, 1.01, 0.405, 1.145, 0.4725, 1.2125, 0.54, 1.28, 0.6075, 1.3475, 0.6725, 1.4125, 0.3375],
  "SoftwareVersions": "syngo MR E11",
  "SpacingBetweenSlices": 2,
  "StationName": "AWP166011",
  "TaskName": "langLoc",
  "TotalReadoutTime": 0.0551515,
  "TxRefAmp": 214.325,
  "dcmmeta_affine": [
    [-1.999667763710022, -0.02827155590057373, -0.02301187999546528, 98.1517105102539],
    [-0.032216042280197144, 1.9613813161849976, 0.3898019790649414, -80.66939544677734],
    [-0.017057379707694054, -0.3901078999042511, 1.9615108966827393, -24.955469131469727],
    [0.0, 0.0, 0.0, 1.0]
],
  "dcmmeta_reorient_transform": [
    [0.0, -1.0, 0.0, 95.0],
    [1.0, 0.0, 0.0, 0.0],
    [0.0, 0.0, 1.0, 0.0],
    [0.0, 0.0, 0.0, 1.0]
],
  "dcmmeta_shape": [96, 96, 66, 239],
  "dcmmeta_slice_dim": 2,
  "dcmmeta_version": 0.6,
  "global": {
    "const": {
      "AcquisitionMatrix": [96, 0, 0, 72],
      "AngioFlag": "N",
      "BitsAllocated": 16,
      "BitsStored": 12,
      "BodyPartExamined": "BRAIN",
      "Columns": 864,
      "EchoNumbers": 1,
      "EchoTime": 30.0,
      "EchoTrainLength": 58,
      "FlipAngle": 62.0,
      "HighBit": 11,
      "ImageOrientationPatient": [0.99983388276873, 0.0161080202759, -0.0085286898404, -0.0141357783013, 0.98069064240633, 0.19505395066105],
      "ImagePositionPatient": [-852.48205477935, -871.20319605433, -205.26712024037],
      "ImageType": [
        "ORIGINAL",
        "PRIMARY",
        "M",
        "ND",
        "MOSAIC"
],
      "ImagedNucleus": "1H",
      "ImagingFrequency": 123.259424,
      "InPlanePhaseEncodingDirection": "COL",
      "MRAcquisitionType": "2D",
      "MagneticFieldStrength": 3.0,
      "Manufacturer": "SIEMENS",
      "ManufacturerModelName": "Prisma",
      "Modality": "MR",
      "NumberOfAverages": 1.0,
      "NumberOfPhaseEncodingSteps": 58,
      "PercentPhaseFieldOfView": 100.0,
      "PercentSampling": 75.0,
      "PerformedProcedureStepStartTime": "164859.005000",
      "PhotometricInterpretation": "MONOCHROME2",
      "PixelBandwidth": 2265.0,
      "PixelRepresentation": 0,
      "PixelSpacing": [2.0, 2.0],
      "ProtocolName": "func_language_run2",
      "RepetitionTime": 1500.0,
      "Rows": 864,
      "SAR": 0.04513535274235,
      "SamplesPerPixel": 1,
      "ScanOptions": [
        "PFP",
        "FS"
],
      "ScanningSequence": "EP",
      "SequenceName": "*epfid2d1_72",
      "SequenceVariant": [
        "SK",
        "OSP"
],
      "SeriesDescription": "func_language_run2",
      "SeriesNumber": 12,
      "SeriesTime": "174151.690000",
      "SliceLocation": -41.327085333503,
      "SliceThickness": 2.0,
      "SmallestImagePixelValue": 0,
      "SoftwareVersions": "syngo MR E11",
      "SpacingBetweenSlices": 2.0000000655709,
      "SpecificCharacterSet": "ISO_IR 100",
      "StudyID": "2",
      "StudyTime": "164858.928000",
      "TransmitCoilName": "Body",
      "VariableFlipAngleFlag": "N",
      "WindowCenterWidthExplanation": "Algo1",
      "dBdt": 0.0},
    "slices": {}
  },
  "time": {
    "samples": {
      "AcquisitionNumber": [1, 2, 3, 4, 5, 6, 7, 8, 9, 10, 11, 12, 13, 14, 15, 16, 17, 18, 19, 20, 21, 22, 23, 24, 25, 26, 27, 28, 29, 30, 31, 32, 33, 34, 35, 36, 37, 38, 39, 40, 41, 42, 43, 44, 45, 46, 47, 48, 49, 50, 51, 52, 53, 54, 55, 56, 57, 58, 59, 60, 61, 62, 63, 64, 65, 66, 67, 68, 69, 70, 71, 72, 73, 74, 75, 76, 77, 78, 79, 80, 81, 82, 83, 84, 85, 86, 87, 88, 89, 90, 91, 92, 93, 94, 95, 96, 97, 98, 99, 100, 101, 102, 103, 104, 105, 106, 107, 108, 109, 110, 111, 112, 113, 114, 115, 116, 117, 118, 119, 120, 121, 122, 123, 124, 125, 126, 127, 128, 129, 130, 131, 132, 133, 134, 135, 136, 137, 138, 139, 140, 141, 142, 143, 144, 145, 146, 147, 148, 149, 150, 151, 152, 153, 154, 155, 156, 157, 158, 159, 160, 161, 162, 163, 164, 165, 166, 167, 168, 169, 170, 171, 172, 173, 174, 175, 176, 177, 178, 179, 180, 181, 182, 183, 184, 185, 186, 187, 188, 189, 190, 191, 192, 193, 194, 195, 196, 197, 198, 199, 200, 201, 202, 203, 204, 205, 206, 207, 208, 209, 210, 211, 212, 213, 214, 215, 216, 217, 218, 219, 220, 221, 222, 223, 224, 225, 226, 227, 228, 229, 230, 231, 232, 233, 234, 235, 236, 237, 238, 239],
      "AcquisitionTime": ["174119.127500", "174120.627500", "174122.127500", "174123.627500", "174125.127500", "174126.627500", "174128.127500", "174129.627500", "174131.127500", "174132.627500", "174134.127500", "174135.627500", "174137.127500", "174138.627500", "174140.127500", "174141.627500", "174143.127500", "174144.627500", "174146.127500", "174147.627500", "174149.127500", "174150.627500", "174152.127500", "174153.627500", "174155.127500", "174156.627500", "174158.127500", "174159.627500", "174201.127500", "174202.627500", "174204.127500", "174205.627500", "174207.127500", "174208.627500", "174210.127500", "174211.627500", "174213.127500", "174214.627500", "174216.127500", "174217.627500", "174219.127500", "174220.627500", "174222.127500", "174223.627500", "174225.127500", "174226.627500", "174228.127500", "174229.627500", "174231.127500", "174232.627500", "174234.127500", "174235.627500", "174237.127500", "174238.627500", "174240.127500", "174241.627500", "174243.127500", "174244.627500", "174246.127500", "174247.627500", "174249.127500", "174250.627500", "174252.127500", "174253.627500", "174255.127500", "174256.627500", "174258.127500", "174259.627500", "174301.127500", "174302.627500", "174304.127500", "174305.627500", "174307.127500", "174308.627500", "174310.127500", "174311.627500", "174313.127500", "174314.627500", "174316.127500", "174317.627500", "174319.127500", "174320.627500", "174322.127500", "174323.627500", "174325.127500", "174326.627500", "174328.127500", "174329.627500", "174331.127500", "174332.627500", "174334.127500", "174335.627500", "174337.127500", "174338.627500", "174340.127500", "174341.627500", "174343.127500", "174344.627500", "174346.127500", "174347.627500", "174349.127500", "174350.627500", "174352.127500", "174353.627500", "174355.127500", "174356.627500", "174358.127500", "174359.627500", "174401.127500", "174402.627500", "174404.127500", "174405.627500", "174407.127500", "174408.627500", "174410.127500", "174411.627500", "174413.127500", "174414.627500", "174416.127500", "174417.627500", "174419.127500", "174420.627500", "174422.127500", "174423.627500", "174425.127500", "174426.627500", "174428.127500", "174429.627500", "174431.127500", "174432.627500", "174434.127500", "174435.627500", "174437.127500", "174438.627500", "174440.127500", "174441.627500", "174443.127500", "174444.627500", "174446.127500", "174447.627500", "174449.127500", "174450.627500", "174452.127500", "174453.627500", "174455.127500", "174456.627500", "174458.127500", "174459.627500", "174501.127500", "174502.627500", "174504.127500", "174505.627500", "174507.127500", "174508.627500", "174510.127500", "174511.627500", "174513.127500", "174514.627500", "174516.127500", "174517.627500", "174519.127500", "174520.627500", "174522.127500", "174523.627500", "174525.127500", "174526.627500", "174528.127500", "174529.627500", "174531.127500", "174532.627500", "174534.127500", "174535.627500", "174537.127500", "174538.627500", "174540.127500", "174541.627500", "174543.127500", "174544.627500", "174546.127500", "174547.627500", "174549.127500", "174550.627500", "174552.127500", "174553.627500", "174555.127500", "174556.627500", "174558.127500", "174559.627500", "174601.127500", "174602.627500", "174604.127500", "174605.627500", "174607.127500", "174608.627500", "174610.127500", "174611.627500", "174613.127500", "174614.627500", "174616.127500", "174617.627500", "174619.127500", "174620.627500", "174622.127500", "174623.627500", "174625.127500", "174626.627500", "174628.127500", "174629.627500", "174631.127500", "174632.627500", "174634.127500", "174635.627500", "174637.127500", "174638.627500", "174640.127500", "174641.627500", "174643.127500", "174644.627500", "174646.127500", "174647.627500", "174649.127500", "174650.627500", "174652.127500", "174653.627500", "174655.127500", "174656.627500", "174658.127500", "174659.627500", "174701.127500", "174702.627500", "174704.127500", "174705.627500", "174707.127500", "174708.627500", "174710.127500", "174711.627500", "174713.127500", "174714.627500", "174716.127500"],
      "ContentTime": ["174151.694000", "174151.698000", "174151.701000", "174151.704000", "174151.708000", "174151.711000", "174151.714000", "174151.717000", "174151.720000", "174151.723000", "174151.726000", "174151.729000", "174151.733000", "174151.745000", "174151.749000", "174151.752000", "174151.757000", "174151.760000", "174151.763000", "174151.766000", "174151.769000", "174231.689000", "174231.692000", "174231.696000", "174231.714000", "174231.718000", "174231.721000", "174231.724000", "174231.727000", "174231.730000", "174231.733000", "174231.737000", "174231.744000", "174231.747000", "174231.750000", "174231.753000", "174231.756000", "174231.759000", "174231.762000", "174231.765000", "174231.768000", "174231.771000", "174231.774000", "174231.777000", "174231.780000", "174231.783000", "174231.786000", "174231.789000", "174311.690000", "174311.694000", "174311.697000", "174311.700000", "174311.703000", "174311.706000", "174311.709000", "174311.712000", "174311.715000", "174311.718000", "174311.721000", "174311.724000", "174311.727000", "174311.730000", "174311.733000", "174311.736000", "174311.740000", "174311.743000", "174311.746000", "174311.749000", "174311.752000", "174311.760000", "174311.764000", "174311.767000", "174311.770000", "174311.773000", "174311.776000", "174351.689000", "174351.693000", "174351.696000", "174351.699000", "174351.702000", "174351.705000", "174351.708000", "174351.711000", "174351.714000", "174351.717000", "174351.721000", "174351.724000", "174351.727000", "174351.730000", "174351.733000", "174351.736000", "174351.739000", "174351.742000", "174351.745000", "174351.748000", "174351.753000", "174351.756000", "174351.759000", "174351.762000", "174351.765000", "174351.768000", "174431.689000", "174431.692000", "174431.696000", "174431.699000", "174431.702000", "174431.705000", "174431.708000", "174431.711000", "174431.714000", "174431.718000", "174431.721000", "174431.724000", "174431.727000", "174431.730000", "174431.733000", "174431.736000", "174431.739000", "174431.742000", "174431.745000", "174431.748000", "174431.751000", "174431.754000", "174431.758000", "174431.761000", "174431.764000", "174431.767000", "174431.770000", "174511.690000", "174511.694000", "174511.697000", "174511.700000", "174511.703000", "174511.709000", "174511.713000", "174511.716000", "174511.719000", "174511.722000", "174511.725000", "174511.728000", "174511.731000", "174511.734000", "174511.737000", "174511.740000", "174511.743000", "174511.746000", "174511.749000", "174511.753000", "174511.756000", "174511.759000", "174511.762000", "174511.765000", "174511.768000", "174511.771000", "174511.774000", "174551.690000", "174551.693000", "174551.696000", "174551.699000", "174551.703000", "174551.706000", "174551.709000", "174551.712000", "174551.715000", "174551.718000", "174551.721000", "174551.724000", "174551.728000", "174551.731000", "174551.734000", "174551.737000", "174551.740000", "174551.743000", "174551.746000", "174551.749000", "174551.752000", "174551.755000", "174551.758000", "174551.761000", "174551.764000", "174551.768000", "174631.689000", "174631.692000", "174631.695000", "174631.698000", "174631.702000", "174631.705000", "174631.708000", "174631.711000", "174631.714000", "174631.718000", "174631.721000", "174631.724000", "174631.727000", "174631.730000", "174631.733000", "174631.736000", "174631.739000", "174631.742000", "174631.763000", "174631.766000", "174631.769000", "174631.772000", "174631.775000", "174631.778000", "174631.782000", "174631.785000", "174631.788000", "174711.689000", "174711.692000", "174711.695000", "174711.699000", "174711.702000", "174711.705000", "174711.708000", "174711.711000", "174711.714000", "174711.717000", "174711.720000", "174711.723000", "174711.726000", "174711.729000", "174711.732000", "174711.735000", "174711.739000", "174711.742000", "174711.745000", "174711.748000", "174711.751000", "174711.754000", "174711.757000", "174711.760000", "174711.763000", "174711.766000", "174711.769000", "174717.413000", "174717.417000", "174717.420000", "174717.423000"],
      "InstanceCreationTime": ["174151.694000", "174151.698000", "174151.701000", "174151.704000", "174151.708000", "174151.711000", "174151.714000", "174151.717000", "174151.720000", "174151.723000", "174151.726000", "174151.729000", "174151.733000", "174151.745000", "174151.749000", "174151.752000", "174151.757000", "174151.760000", "174151.763000", "174151.766000", "174151.769000", "174231.689000", "174231.692000", "174231.696000", "174231.714000", "174231.718000", "174231.721000", "174231.724000", "174231.727000", "174231.730000", "174231.733000", "174231.737000", "174231.744000", "174231.747000", "174231.750000", "174231.753000", "174231.756000", "174231.759000", "174231.762000", "174231.765000", "174231.768000", "174231.771000", "174231.774000", "174231.777000", "174231.780000", "174231.783000", "174231.786000", "174231.789000", "174311.690000", "174311.694000", "174311.697000", "174311.700000", "174311.703000", "174311.706000", "174311.709000", "174311.712000", "174311.715000", "174311.718000", "174311.721000", "174311.724000", "174311.727000", "174311.730000", "174311.733000", "174311.736000", "174311.740000", "174311.743000", "174311.746000", "174311.749000", "174311.752000", "174311.760000", "174311.764000", "174311.767000", "174311.770000", "174311.773000", "174311.776000", "174351.689000", "174351.693000", "174351.696000", "174351.699000", "174351.702000", "174351.705000", "174351.708000", "174351.711000", "174351.714000", "174351.717000", "174351.721000", "174351.724000", "174351.727000", "174351.730000", "174351.733000", "174351.736000", "174351.739000", "174351.742000", "174351.745000", "174351.748000", "174351.753000", "174351.756000", "174351.759000", "174351.762000", "174351.765000", "174351.768000", "174431.689000", "174431.692000", "174431.696000", "174431.699000", "174431.702000", "174431.705000", "174431.708000", "174431.711000", "174431.714000", "174431.718000", "174431.721000", "174431.724000", "174431.727000", "174431.730000", "174431.733000", "174431.736000", "174431.739000", "174431.742000", "174431.745000", "174431.748000", "174431.751000", "174431.754000", "174431.758000", "174431.761000", "174431.764000", "174431.767000", "174431.770000", "174511.690000", "174511.694000", "174511.697000", "174511.700000", "174511.703000", "174511.709000", "174511.713000", "174511.716000", "174511.719000", "174511.722000", "174511.725000", "174511.728000", "174511.731000", "174511.734000", "174511.737000", "174511.740000", "174511.743000", "174511.746000", "174511.749000", "174511.753000", "174511.756000", "174511.759000", "174511.762000", "174511.765000", "174511.768000", "174511.771000", "174511.774000", "174551.690000", "174551.693000", "174551.696000", "174551.699000", "174551.703000", "174551.706000", "174551.709000", "174551.712000", "174551.715000", "174551.718000", "174551.721000", "174551.724000", "174551.728000", "174551.731000", "174551.734000", "174551.737000", "174551.740000", "174551.743000", "174551.746000", "174551.749000", "174551.752000", "174551.755000", "174551.758000", "174551.761000", "174551.764000", "174551.768000", "174631.689000", "174631.692000", "174631.695000", "174631.698000", "174631.702000", "174631.705000", "174631.708000", "174631.711000", "174631.714000", "174631.718000", "174631.721000", "174631.724000", "174631.727000", "174631.730000", "174631.733000", "174631.736000", "174631.739000", "174631.742000", "174631.763000", "174631.766000", "174631.769000", "174631.772000", "174631.775000", "174631.778000", "174631.782000", "174631.785000", "174631.788000", "174711.689000", "174711.692000", "174711.695000", "174711.699000", "174711.702000", "174711.705000", "174711.708000", "174711.711000", "174711.714000", "174711.717000", "174711.720000", "174711.723000", "174711.726000", "174711.729000", "174711.732000", "174711.735000", "174711.739000", "174711.742000", "174711.745000", "174711.748000", "174711.751000", "174711.754000", "174711.757000", "174711.760000", "174711.763000", "174711.766000", "174711.769000", "174717.413000", "174717.417000", "174717.420000", "174717.423000"],
      "InstanceNumber": [1, 2, 3, 4, 5, 6, 7, 8, 9, 10, 11, 12, 13, 14, 15, 16, 17, 18, 19, 20, 21, 22, 23, 24, 25, 26, 27, 28, 29, 30, 31, 32, 33, 34, 35, 36, 37, 38, 39, 40, 41, 42, 43, 44, 45, 46, 47, 48, 49, 50, 51, 52, 53, 54, 55, 56, 57, 58, 59, 60, 61, 62, 63, 64, 65, 66, 67, 68, 69, 70, 71, 72, 73, 74, 75, 76, 77, 78, 79, 80, 81, 82, 83, 84, 85, 86, 87, 88, 89, 90, 91, 92, 93, 94, 95, 96, 97, 98, 99, 100, 101, 102, 103, 104, 105, 106, 107, 108, 109, 110, 111, 112, 113, 114, 115, 116, 117, 118, 119, 120, 121, 122, 123, 124, 125, 126, 127, 128, 129, 130, 131, 132, 133, 134, 135, 136, 137, 138, 139, 140, 141, 142, 143, 144, 145, 146, 147, 148, 149, 150, 151, 152, 153, 154, 155, 156, 157, 158, 159, 160, 161, 162, 163, 164, 165, 166, 167, 168, 169, 170, 171, 172, 173, 174, 175, 176, 177, 178, 179, 180, 181, 182, 183, 184, 185, 186, 187, 188, 189, 190, 191, 192, 193, 194, 195, 196, 197, 198, 199, 200, 201, 202, 203, 204, 205, 206, 207, 208, 209, 210, 211, 212, 213, 214, 215, 216, 217, 218, 219, 220, 221, 222, 223, 224, 225, 226, 227, 228, 229, 230, 231, 232, 233, 234, 235, 236, 237, 238, 239],
      "LargestImagePixelValue": [2434, 2349, 2349, 2312, 2316, 2287, 2287, 2288, 2273, 2294, 2298, 2309, 2301, 2291, 2310, 2272, 2312, 2322, 2288, 2293, 2273, 2314, 2288, 2290, 2269, 2271, 2299, 2278, 2276, 2276, 2305, 2303, 2287, 2296, 2298, 2299, 2269, 2280, 2306, 2291, 2303, 2269, 2292, 2304, 2304, 2308, 2292, 2288, 2300, 2273, 2286, 2301, 2289, 2273, 2290, 2294, 2310, 2309, 2310, 2307, 2314, 2278, 2315, 2309, 2296, 2300, 2314, 2292, 2294, 2296, 2293, 2303, 2298, 2288, 2319, 2311, 2320, 2291, 2265, 2286, 2316, 2342, 2313, 2330, 2301, 2324, 2280, 2359, 2362, 2537, 2400, 2296, 2293, 2314, 2318, 2281, 2288, 2294, 2328, 2319, 2319, 2328, 2378, 2350, 2308, 2332, 2338, 2332, 2345, 2289, 2260, 2280, 2305, 2253, 2272, 2301, 2289, 2285, 2360, 2351, 2317, 2281, 2309, 2330, 2328, 2313, 2314, 2322, 2353, 2348, 2316, 2312, 2340, 2316, 2344, 2314, 2324, 2311, 2331, 2326, 2294, 2313, 2279, 2330, 2299, 2314, 2283, 2308, 2309, 2299, 2298, 2314, 2307, 2302, 2329, 2285, 2309, 2244, 2309, 2279, 2278, 2330, 2322, 2300, 2304, 2326, 2319, 2275, 2327, 2317, 2287, 2288, 2279, 2279, 2313, 2294, 2331, 2283, 2309, 2317, 2318, 2334, 2335, 2397, 2352, 2358, 2350, 2346, 2371, 2327, 2333, 2359, 2378, 2350, 2361, 2344, 2360, 2324, 2318, 2368, 2331, 2353, 2354, 2390, 2361, 2376, 2412, 2322, 2350, 2368, 2341, 2373, 2331, 2387, 2353, 2445, 2347, 2341, 2357, 2383, 2339, 2357, 2341, 2359, 2360, 2359, 2338, 2319, 2360, 2329, 2342, 2331, 2397, 2351, 2356, 2330, 2326, 2349, 2352],
      "WindowCenter": [694.0, 693.0, 693.0, 692.0, 692.0, 691.0, 690.0, 690.0, 691.0, 692.0, 691.0, 691.0, 691.0, 691.0, 691.0, 692.0, 693.0, 693.0, 692.0, 693.0, 692.0, 692.0, 691.0, 690.0, 690.0, 690.0, 690.0, 691.0, 691.0, 691.0, 691.0, 691.0, 691.0, 691.0, 691.0, 691.0, 691.0, 691.0, 690.0, 690.0, 690.0, 690.0, 691.0, 692.0, 692.0, 691.0, 690.0, 691.0, 691.0, 690.0, 690.0, 691.0, 691.0, 691.0, 692.0, 692.0, 692.0, 691.0, 691.0, 692.0, 692.0, 692.0, 691.0, 691.0, 690.0, 689.0, 690.0, 690.0, 690.0, 691.0, 691.0, 692.0, 693.0, 693.0, 693.0, 693.0, 692.0, 691.0, 690.0, 689.0, 690.0, 691.0, 691.0, 691.0, 692.0, 693.0, 692.0, 692.0, 689.0, 695.0, 694.0, 692.0, 691.0, 690.0, 690.0, 690.0, 691.0, 692.0, 693.0, 693.0, 693.0, 694.0, 694.0, 694.0, 693.0, 694.0, 694.0, 692.0, 692.0, 690.0, 691.0, 692.0, 692.0, 691.0, 691.0, 690.0, 689.0, 689.0, 688.0, 690.0, 690.0, 691.0, 690.0, 690.0, 690.0, 690.0, 691.0, 691.0, 691.0, 693.0, 692.0, 691.0, 691.0, 691.0, 691.0, 691.0, 691.0, 691.0, 692.0, 692.0, 691.0, 691.0, 690.0, 690.0, 690.0, 691.0, 691.0, 691.0, 690.0, 690.0, 691.0, 692.0, 692.0, 691.0, 692.0, 691.0, 690.0, 689.0, 690.0, 690.0, 690.0, 691.0, 692.0, 692.0, 693.0, 694.0, 693.0, 691.0, 690.0, 692.0, 692.0, 691.0, 691.0, 690.0, 689.0, 689.0, 688.0, 688.0, 689.0, 690.0, 691.0, 691.0, 690.0, 691.0, 693.0, 693.0, 693.0, 692.0, 691.0, 691.0, 692.0, 694.0, 693.0, 692.0, 692.0, 693.0, 693.0, 691.0, 690.0, 690.0, 691.0, 692.0, 693.0, 692.0, 690.0, 691.0, 692.0, 692.0, 692.0, 692.0, 693.0, 694.0, 695.0, 694.0, 692.0, 696.0, 692.0, 691.0, 691.0, 692.0, 692.0, 692.0, 692.0, 692.0, 691.0, 690.0, 691.0, 690.0, 691.0, 690.0, 690.0, 689.0, 689.0, 689.0, 689.0, 689.0, 690.0, 690.0, 690.0],
      "WindowWidth": [1497.0, 1494.0, 1493.0, 1489.0, 1488.0, 1486.0, 1485.0, 1485.0, 1487.0, 1488.0, 1487.0, 1487.0, 1488.0, 1488.0, 1488.0, 1489.0, 1491.0, 1492.0, 1491.0, 1491.0, 1489.0, 1490.0, 1488.0, 1486.0, 1483.0, 1484.0, 1485.0, 1487.0, 1488.0, 1488.0, 1488.0, 1487.0, 1486.0, 1486.0, 1487.0, 1488.0, 1488.0, 1487.0, 1486.0, 1485.0, 1485.0, 1485.0, 1488.0, 1489.0, 1489.0, 1488.0, 1486.0, 1486.0, 1487.0, 1486.0, 1486.0, 1487.0, 1487.0, 1488.0, 1489.0, 1491.0, 1489.0, 1488.0, 1488.0, 1489.0, 1490.0, 1490.0, 1488.0, 1487.0, 1484.0, 1483.0, 1484.0, 1485.0, 1486.0, 1488.0, 1488.0, 1490.0, 1492.0, 1492.0, 1493.0, 1492.0, 1491.0, 1488.0, 1484.0, 1483.0, 1485.0, 1487.0, 1487.0, 1489.0, 1490.0, 1492.0, 1489.0, 1490.0, 1481.0, 1498.0, 1494.0, 1489.0, 1486.0, 1485.0, 1485.0, 1486.0, 1489.0, 1491.0, 1492.0, 1494.0, 1493.0, 1494.0, 1495.0, 1494.0, 1493.0, 1495.0, 1495.0, 1491.0, 1490.0, 1485.0, 1488.0, 1489.0, 1490.0, 1487.0, 1487.0, 1485.0, 1483.0, 1482.0, 1480.0, 1484.0, 1484.0, 1486.0, 1484.0, 1484.0, 1484.0, 1485.0, 1486.0, 1488.0, 1488.0, 1494.0, 1489.0, 1486.0, 1488.0, 1488.0, 1489.0, 1488.0, 1487.0, 1486.0, 1490.0, 1490.0, 1487.0, 1488.0, 1484.0, 1485.0, 1486.0, 1487.0, 1487.0, 1486.0, 1486.0, 1486.0, 1488.0, 1490.0, 1491.0, 1488.0, 1489.0, 1487.0, 1486.0, 1482.0, 1485.0, 1484.0, 1484.0, 1488.0, 1489.0, 1492.0, 1493.0, 1494.0, 1492.0, 1487.0, 1485.0, 1489.0, 1490.0, 1489.0, 1487.0, 1485.0, 1482.0, 1481.0, 1480.0, 1481.0, 1482.0, 1486.0, 1487.0, 1488.0, 1486.0, 1489.0, 1492.0, 1493.0, 1492.0, 1491.0, 1488.0, 1488.0, 1491.0, 1494.0, 1492.0, 1490.0, 1491.0, 1492.0, 1492.0, 1487.0, 1484.0, 1485.0, 1486.0, 1490.0, 1492.0, 1490.0, 1485.0, 1487.0, 1490.0, 1491.0, 1491.0, 1490.0, 1492.0, 1495.0, 1497.0, 1496.0, 1489.0, 1499.0, 1490.0, 1488.0, 1486.0, 1490.0, 1489.0, 1491.0, 1491.0, 1491.0, 1487.0, 1486.0, 1486.0, 1486.0, 1487.0, 1486.0, 1484.0, 1483.0, 1482.0, 1481.0, 1482.0, 1482.0, 1484.0, 1485.0, 1485.0]
    },
    "slices": {}
  }
}