{
  "AcquisitionMatrixPE": 72,
  "AcquisitionNumber": 1,
  "AcquisitionTime": "17:23:35.580000",
  "BandwidthPerPixelPhaseEncode": 17.943,
  "BaseResolution": 96,
  "BodyPartExamined": "BRAIN",
  "CoilCombinationMethod": "Sum of Squares",
  "ConsistencyInfo": "N4_VE11C_LATEST_20160120",
  "ConversionSoftware": "dcm2niix",
  "ConversionSoftwareVersion": "v1.0.20211006",
  "DerivedVendorReportedEchoSpacing": 0.000552897,
  "DeviceSerialNumber": "166011",
  "EchoTime": 0.03,
  "EchoTrainLength": 58,
  "EffectiveEchoSpacing": 0.000580542,
  "FlipAngle": 62,
  "ImageOrientationPatientDICOM": [0.999834, 0.016108, -0.00852869, -0.0141358, 0.980691, 0.195054],
  "ImageType": [
    "ORIGINAL",
    "PRIMARY",
    "M",
    "ND",
    "MOSAIC"
],
  "ImagingFrequency": 123.259,
  "InPlanePhaseEncodingDirectionDICOM": "COL",
  "InstitutionAddress": "West 130th Street 610,NY,NYC,US,10025",
  "InstitutionName": "MBBI",
  "MRAcquisitionType": "2D",
  "MagneticFieldStrength": 3,
  "Manufacturer": "Siemens",
  "ManufacturersModelName": "Prisma",
  "Modality": "MR",
  "MultibandAccelerationFactor": 3,
  "PartialFourier": 0.75,
  "PatientPosition": "HFS",
  "PercentPhaseFOV": 100,
  "PercentSampling": 75,
  "PhaseEncodingDirection": "j-",
  "PhaseEncodingSteps": 58,
  "PhaseOversampling": 0.05,
  "PhaseResolution": 0.75,
  "PixelBandwidth": 2265,
  "ProcedureStepDescription": "White^Word_recognition",
  "ProtocolName": "func_vwfate_run14",
  "PulseSequenceDetails": "%SiemensSeq%\\ep2d_bold",
  "ReceiveCoilActiveElements": "HC1-7",
  "ReceiveCoilName": "HeadNeck_64",
  "ReconMatrixPE": 96,
  "RefLinesPE": 40,
  "RepetitionTime": 1.5,
  "SAR": 0.0449458,
  "ScanOptions": "PFP\\FS",
  "ScanningSequence": "EP",
  "SequenceName": "*epfid2d1_72",
  "SequenceVariant": "SK\\OSP",
  "SeriesDescription": "func_vwfate_run14",
  "SeriesNumber": 9,
  "ShimSetting": [-1153, -1415, 780, 767, -120, -226, 130, -8],
  "SliceThickness": 2,
  "SliceTiming": [1.075, 0, 0.74, 0.0675, 0.8075, 0.1325, 0.8725, 0.2, 0.94, 0.2675, 1.0075, 0.4025, 1.1425, 0.47, 1.21, 0.5375, 1.2775, 0.605, 1.345, 0.6725, 1.4125, 0.335, 1.075, 0, 0.74, 0.0675, 0.8075, 0.1325, 0.8725, 0.2, 0.94, 0.2675, 1.0075, 0.4025, 1.1425, 0.47, 1.21, 0.5375, 1.2775, 0.605, 1.345, 0.6725, 1.4125, 0.335, 1.075, 0, 0.74, 0.0675, 0.8075, 0.1325, 0.8725, 0.2, 0.94, 0.2675, 1.0075, 0.4025, 1.1425, 0.47, 1.21, 0.5375, 1.2775, 0.605, 1.345, 0.6725, 1.4125, 0.335],
  "SoftwareVersions": "syngo MR E11",
  "SpacingBetweenSlices": 2,
  "StationName": "AWP166011",
  "TaskName": "vwfate",
  "TotalReadoutTime": 0.0551515,
  "TxRefAmp": 214.325,
  "dcmmeta_affine": [
    [-1.999667763710022, -0.02827155590057373, -0.02301187999546528, 98.1517105102539],
    [-0.032216042280197144, 1.9613813161849976, 0.3898019790649414, -80.66939544677734],
    [-0.017057379707694054, -0.3901078999042511, 1.9615108966827393, -24.955469131469727],
    [0.0, 0.0, 0.0, 1.0]
],
  "dcmmeta_reorient_transform": [
    [0.0, -1.0, 0.0, 95.0],
    [1.0, 0.0, 0.0, 0.0],
    [0.0, 0.0, 1.0, 0.0],
    [0.0, 0.0, 0.0, 1.0]
],
  "dcmmeta_shape": [96, 96, 66, 164],
  "dcmmeta_slice_dim": 2,
  "dcmmeta_version": 0.6,
  "global": {
    "const": {
      "AcquisitionMatrix": [96, 0, 0, 72],
      "AngioFlag": "N",
      "BitsAllocated": 16,
      "BitsStored": 12,
      "BodyPartExamined": "BRAIN",
      "Columns": 864,
      "EchoNumbers": 1,
      "EchoTime": 30.0,
      "EchoTrainLength": 58,
      "FlipAngle": 62.0,
      "HighBit": 11,
      "ImageOrientationPatient": [0.99983388276873, 0.0161080202759, -0.0085286898404, -0.0141357783013, 0.98069064240633, 0.19505395066105],
      "ImagePositionPatient": [-852.48205477935, -871.20319605433, -205.26712024037],
      "ImageType": [
        "ORIGINAL",
        "PRIMARY",
        "M",
        "ND",
        "MOSAIC"
],
      "ImagedNucleus": "1H",
      "ImagingFrequency": 123.259412,
      "InPlanePhaseEncodingDirection": "COL",
      "MRAcquisitionType": "2D",
      "MagneticFieldStrength": 3.0,
      "Manufacturer": "SIEMENS",
      "ManufacturerModelName": "Prisma",
      "Modality": "MR",
      "NumberOfAverages": 1.0,
      "NumberOfPhaseEncodingSteps": 58,
      "PercentPhaseFieldOfView": 100.0,
      "PercentSampling": 75.0,
      "PerformedProcedureStepStartTime": "164859.005000",
      "PhotometricInterpretation": "MONOCHROME2",
      "PixelBandwidth": 2265.0,
      "PixelRepresentation": 0,
      "PixelSpacing": [2.0, 2.0],
      "ProtocolName": "func_vwfate_run14",
      "RepetitionTime": 1500.0,
      "Rows": 864,
      "SAR": 0.04494581368129,
      "SamplesPerPixel": 1,
      "ScanOptions": [
        "PFP",
        "FS"
],
      "ScanningSequence": "EP",
      "SequenceName": "*epfid2d1_72",
      "SequenceVariant": [
        "SK",
        "OSP"
],
      "SeriesDescription": "func_vwfate_run14",
      "SeriesNumber": 9,
      "SeriesTime": "172411.690000",
      "SliceLocation": -41.327085333503,
      "SliceThickness": 2.0,
      "SmallestImagePixelValue": 0,
      "SoftwareVersions": "syngo MR E11",
      "SpacingBetweenSlices": 2.0000000655709,
      "SpecificCharacterSet": "ISO_IR 100",
      "StudyID": "2",
      "StudyTime": "164858.928000",
      "TransmitCoilName": "Body",
      "VariableFlipAngleFlag": "N",
      "WindowCenterWidthExplanation": "Algo1",
      "dBdt": 0.0},
    "slices": {}
  },
  "time": {
    "samples": {
      "AcquisitionNumber": [1, 2, 3, 4, 5, 6, 7, 8, 9, 10, 11, 12, 13, 14, 15, 16, 17, 18, 19, 20, 21, 22, 23, 24, 25, 26, 27, 28, 29, 30, 31, 32, 33, 34, 35, 36, 37, 38, 39, 40, 41, 42, 43, 44, 45, 46, 47, 48, 49, 50, 51, 52, 53, 54, 55, 56, 57, 58, 59, 60, 61, 62, 63, 64, 65, 66, 67, 68, 69, 70, 71, 72, 73, 74, 75, 76, 77, 78, 79, 80, 81, 82, 83, 84, 85, 86, 87, 88, 89, 90, 91, 92, 93, 94, 95, 96, 97, 98, 99, 100, 101, 102, 103, 104, 105, 106, 107, 108, 109, 110, 111, 112, 113, 114, 115, 116, 117, 118, 119, 120, 121, 122, 123, 124, 125, 126, 127, 128, 129, 130, 131, 132, 133, 134, 135, 136, 137, 138, 139, 140, 141, 142, 143, 144, 145, 146, 147, 148, 149, 150, 151, 152, 153, 154, 155, 156, 157, 158, 159, 160, 161, 162, 163, 164],
      "AcquisitionTime": ["172335.580000", "172337.080000", "172338.580000", "172340.080000", "172341.580000", "172343.080000", "172344.580000", "172346.080000", "172347.580000", "172349.080000", "172350.580000", "172352.080000", "172353.580000", "172355.080000", "172356.580000", "172358.080000", "172359.580000", "172401.080000", "172402.580000", "172404.080000", "172405.580000", "172407.080000", "172408.580000", "172410.080000", "172411.580000", "172413.080000", "172414.580000", "172416.080000", "172417.580000", "172419.080000", "172420.580000", "172422.080000", "172423.580000", "172425.080000", "172426.580000", "172428.080000", "172429.580000", "172431.080000", "172432.580000", "172434.080000", "172435.580000", "172437.080000", "172438.580000", "172440.080000", "172441.580000", "172443.080000", "172444.580000", "172446.080000", "172447.580000", "172449.080000", "172450.580000", "172452.080000", "172453.580000", "172455.080000", "172456.580000", "172458.080000", "172459.580000", "172501.080000", "172502.580000", "172504.080000", "172505.580000", "172507.080000", "172508.580000", "172510.080000", "172511.580000", "172513.080000", "172514.580000", "172516.080000", "172517.580000", "172519.080000", "172520.580000", "172522.080000", "172523.580000", "172525.080000", "172526.580000", "172528.080000", "172529.580000", "172531.080000", "172532.580000", "172534.080000", "172535.580000", "172537.080000", "172538.580000", "172540.080000", "172541.580000", "172543.080000", "172544.580000", "172546.080000", "172547.580000", "172549.080000", "172550.580000", "172552.080000", "172553.580000", "172555.080000", "172556.580000", "172558.080000", "172559.580000", "172601.080000", "172602.580000", "172604.080000", "172605.580000", "172607.080000", "172608.580000", "172610.080000", "172611.580000", "172613.080000", "172614.580000", "172616.080000", "172617.580000", "172619.080000", "172620.580000", "172622.080000", "172623.580000", "172625.080000", "172626.580000", "172628.080000", "172629.580000", "172631.080000", "172632.580000", "172634.080000", "172635.580000", "172637.080000", "172638.580000", "172640.080000", "172641.580000", "172643.080000", "172644.580000", "172646.080000", "172647.580000", "172649.080000", "172650.580000", "172652.080000", "172653.580000", "172655.080000", "172656.580000", "172658.080000", "172659.580000", "172701.080000", "172702.580000", "172704.080000", "172705.580000", "172707.080000", "172708.580000", "172710.080000", "172711.580000", "172713.080000", "172714.580000", "172716.080000", "172717.580000", "172719.080000", "172720.580000", "172722.080000", "172723.580000", "172725.080000", "172726.580000", "172728.080000", "172729.580000", "172731.080000", "172732.580000", "172734.080000", "172735.580000", "172737.080000", "172738.580000", "172740.080000"],
      "ContentTime": ["172411.694000", "172411.698000", "172411.711000", "172411.715000", "172411.718000", "172411.721000", "172411.724000", "172411.727000", "172411.730000", "172411.733000", "172411.736000", "172411.739000", "172411.742000", "172411.745000", "172411.748000", "172411.751000", "172411.757000", "172411.760000", "172411.763000", "172411.775000", "172411.778000", "172411.781000", "172411.784000", "172411.787000", "172451.690000", "172451.693000", "172451.696000", "172451.700000", "172451.703000", "172451.706000", "172451.709000", "172451.712000", "172451.715000", "172451.718000", "172451.721000", "172451.724000", "172451.727000", "172451.730000", "172451.733000", "172451.736000", "172451.739000", "172451.742000", "172451.745000", "172451.748000", "172451.751000", "172451.754000", "172451.765000", "172451.768000", "172451.771000", "172451.780000", "172451.783000", "172531.689000", "172531.692000", "172531.695000", "172531.699000", "172531.702000", "172531.705000", "172531.708000", "172531.711000", "172531.714000", "172531.717000", "172531.720000", "172531.723000", "172531.727000", "172531.731000", "172531.734000", "172531.737000", "172531.740000", "172531.743000", "172531.746000", "172531.759000", "172531.762000", "172531.765000", "172531.768000", "172531.791000", "172531.794000", "172531.797000", "172611.689000", "172611.692000", "172611.695000", "172611.698000", "172611.701000", "172611.704000", "172611.707000", "172611.710000", "172611.714000", "172611.717000", "172611.720000", "172611.723000", "172611.726000", "172611.729000", "172611.732000", "172611.735000", "172611.738000", "172611.741000", "172611.744000", "172611.747000", "172611.750000", "172611.753000", "172611.756000", "172611.768000", "172611.771000", "172611.774000", "172611.777000", "172651.690000", "172651.693000", "172651.696000", "172651.699000", "172651.702000", "172651.705000", "172651.708000", "172651.711000", "172651.714000", "172651.718000", "172651.721000", "172651.724000", "172651.727000", "172651.730000", "172651.733000", "172651.736000", "172651.739000", "172651.742000", "172651.745000", "172651.748000", "172651.751000", "172651.754000", "172651.757000", "172651.760000", "172651.763000", "172651.766000", "172651.769000", "172731.690000", "172731.693000", "172731.696000", "172731.700000", "172731.703000", "172731.706000", "172731.709000", "172731.712000", "172731.715000", "172731.718000", "172731.721000", "172731.725000", "172731.728000", "172731.731000", "172731.734000", "172731.738000", "172731.741000", "172731.744000", "172731.747000", "172731.750000", "172731.753000", "172731.756000", "172731.759000", "172731.762000", "172731.765000", "172731.768000", "172740.985000", "172740.988000", "172740.992000", "172740.995000", "172740.998000", "172741.003000", "172741.006000"],
      "InstanceCreationTime": ["172411.694000", "172411.698000", "172411.711000", "172411.715000", "172411.718000", "172411.721000", "172411.724000", "172411.727000", "172411.730000", "172411.733000", "172411.736000", "172411.739000", "172411.742000", "172411.745000", "172411.748000", "172411.751000", "172411.757000", "172411.760000", "172411.763000", "172411.775000", "172411.778000", "172411.781000", "172411.784000", "172411.787000", "172451.690000", "172451.693000", "172451.696000", "172451.700000", "172451.703000", "172451.706000", "172451.709000", "172451.712000", "172451.715000", "172451.718000", "172451.721000", "172451.724000", "172451.727000", "172451.730000", "172451.733000", "172451.736000", "172451.739000", "172451.742000", "172451.745000", "172451.748000", "172451.751000", "172451.754000", "172451.765000", "172451.768000", "172451.771000", "172451.780000", "172451.783000", "172531.689000", "172531.692000", "172531.695000", "172531.699000", "172531.702000", "172531.705000", "172531.708000", "172531.711000", "172531.714000", "172531.717000", "172531.720000", "172531.723000", "172531.727000", "172531.731000", "172531.734000", "172531.737000", "172531.740000", "172531.743000", "172531.746000", "172531.759000", "172531.762000", "172531.765000", "172531.768000", "172531.791000", "172531.794000", "172531.797000", "172611.689000", "172611.692000", "172611.695000", "172611.698000", "172611.701000", "172611.704000", "172611.707000", "172611.710000", "172611.714000", "172611.717000", "172611.720000", "172611.723000", "172611.726000", "172611.729000", "172611.732000", "172611.735000", "172611.738000", "172611.741000", "172611.744000", "172611.747000", "172611.750000", "172611.753000", "172611.756000", "172611.768000", "172611.771000", "172611.774000", "172611.777000", "172651.690000", "172651.693000", "172651.696000", "172651.699000", "172651.702000", "172651.705000", "172651.708000", "172651.711000", "172651.714000", "172651.718000", "172651.721000", "172651.724000", "172651.727000", "172651.730000", "172651.733000", "172651.736000", "172651.739000", "172651.742000", "172651.745000", "172651.748000", "172651.751000", "172651.754000", "172651.757000", "172651.760000", "172651.763000", "172651.766000", "172651.769000", "172731.690000", "172731.693000", "172731.696000", "172731.700000", "172731.703000", "172731.706000", "172731.709000", "172731.712000", "172731.715000", "172731.718000", "172731.721000", "172731.725000", "172731.728000", "172731.731000", "172731.734000", "172731.738000", "172731.741000", "172731.744000", "172731.747000", "172731.750000", "172731.753000", "172731.756000", "172731.759000", "172731.762000", "172731.765000", "172731.768000", "172740.985000", "172740.988000", "172740.992000", "172740.995000", "172740.998000", "172741.003000", "172741.006000"],
      "InstanceNumber": [1, 2, 3, 4, 5, 6, 7, 8, 9, 10, 11, 12, 13, 14, 15, 16, 17, 18, 19, 20, 21, 22, 23, 24, 25, 26, 27, 28, 29, 30, 31, 32, 33, 34, 35, 36, 37, 38, 39, 40, 41, 42, 43, 44, 45, 46, 47, 48, 49, 50, 51, 52, 53, 54, 55, 56, 57, 58, 59, 60, 61, 62, 63, 64, 65, 66, 67, 68, 69, 70, 71, 72, 73, 74, 75, 76, 77, 78, 79, 80, 81, 82, 83, 84, 85, 86, 87, 88, 89, 90, 91, 92, 93, 94, 95, 96, 97, 98, 99, 100, 101, 102, 103, 104, 105, 106, 107, 108, 109, 110, 111, 112, 113, 114, 115, 116, 117, 118, 119, 120, 121, 122, 123, 124, 125, 126, 127, 128, 129, 130, 131, 132, 133, 134, 135, 136, 137, 138, 139, 140, 141, 142, 143, 144, 145, 146, 147, 148, 149, 150, 151, 152, 153, 154, 155, 156, 157, 158, 159, 160, 161, 162, 163, 164],
      "LargestImagePixelValue": [2449, 2404, 2323, 2333, 2362, 2350, 2327, 2352, 2346, 2350, 2343, 2340, 2323, 2387, 2370, 2338, 2333, 2321, 2338, 2309, 2354, 2345, 2333, 2303, 2300, 2314, 2321, 2332, 2347, 2366, 2357, 2353, 2317, 2339, 2323, 2305, 2308, 2304, 2305, 2312, 2318, 2302, 2287, 2286, 2316, 2278, 2310, 2280, 2300, 2277, 2292, 2291, 2276, 2270, 2291, 2293, 2293, 2318, 2286, 2298, 2285, 2301, 2273, 2296, 2296, 2293, 2320, 2261, 2274, 2279, 2284, 2282, 2267, 2298, 2261, 2272, 2294, 2298, 2295, 2300, 2296, 2326, 2275, 2279, 2251, 2266, 2271, 2287, 2288, 2332, 2289, 2297, 2310, 2318, 2293, 2309, 2292, 2281, 2330, 2338, 2271, 2263, 2286, 2297, 2300, 2299, 2284, 2278, 2288, 2312, 2331, 2417, 2326, 2302, 2261, 2298, 2244, 2272, 2299, 2261, 2279, 2244, 2262, 2261, 2271, 2247, 2263, 2270, 2268, 2263, 2261, 2272, 2267, 2275, 2290, 2284, 2287, 2316, 2303, 2246, 2294, 2304, 2269, 2419, 2319, 2309, 2259, 2259, 2275, 2285, 2288, 2292, 2288, 2306, 2303, 2295, 2350, 2288, 2309, 2300, 2312, 2290, 2319, 2323],
      "WindowCenter": [698.0, 697.0, 696.0, 696.0, 695.0, 695.0, 695.0, 695.0, 695.0, 695.0, 695.0, 696.0, 697.0, 698.0, 697.0, 695.0, 694.0, 694.0, 695.0, 696.0, 696.0, 696.0, 696.0, 696.0, 696.0, 696.0, 696.0, 696.0, 696.0, 696.0, 696.0, 696.0, 695.0, 696.0, 696.0, 696.0, 695.0, 695.0, 694.0, 695.0, 695.0, 695.0, 695.0, 696.0, 695.0, 695.0, 694.0, 694.0, 695.0, 694.0, 695.0, 695.0, 694.0, 695.0, 695.0, 694.0, 695.0, 695.0, 695.0, 695.0, 695.0, 696.0, 695.0, 695.0, 695.0, 694.0, 694.0, 694.0, 695.0, 695.0, 694.0, 693.0, 693.0, 693.0, 693.0, 694.0, 694.0, 694.0, 694.0, 694.0, 694.0, 693.0, 692.0, 692.0, 693.0, 694.0, 694.0, 694.0, 695.0, 694.0, 693.0, 694.0, 694.0, 694.0, 694.0, 695.0, 695.0, 696.0, 697.0, 697.0, 696.0, 695.0, 695.0, 696.0, 696.0, 696.0, 695.0, 695.0, 696.0, 697.0, 690.0, 698.0, 695.0, 694.0, 693.0, 693.0, 692.0, 693.0, 692.0, 692.0, 692.0, 692.0, 692.0, 692.0, 693.0, 693.0, 693.0, 693.0, 693.0, 692.0, 692.0, 693.0, 693.0, 693.0, 694.0, 692.0, 692.0, 692.0, 693.0, 681.0, 694.0, 693.0, 694.0, 698.0, 698.0, 696.0, 695.0, 695.0, 695.0, 696.0, 696.0, 696.0, 696.0, 696.0, 696.0, 696.0, 694.0, 695.0, 695.0, 695.0, 694.0, 695.0, 695.0, 695.0],
      "WindowWidth": [1508.0, 1504.0, 1501.0, 1500.0, 1499.0, 1499.0, 1498.0, 1499.0, 1498.0, 1498.0, 1499.0, 1500.0, 1502.0, 1506.0, 1503.0, 1499.0, 1496.0, 1496.0, 1498.0, 1500.0, 1502.0, 1501.0, 1501.0, 1500.0, 1500.0, 1500.0, 1500.0, 1500.0, 1501.0, 1500.0, 1500.0, 1500.0, 1499.0, 1500.0, 1500.0, 1500.0, 1499.0, 1497.0, 1496.0, 1497.0, 1498.0, 1497.0, 1499.0, 1500.0, 1499.0, 1497.0, 1497.0, 1495.0, 1497.0, 1497.0, 1497.0, 1497.0, 1497.0, 1497.0, 1497.0, 1497.0, 1498.0, 1498.0, 1499.0, 1499.0, 1499.0, 1500.0, 1498.0, 1499.0, 1497.0, 1496.0, 1496.0, 1496.0, 1497.0, 1498.0, 1496.0, 1494.0, 1493.0, 1493.0, 1493.0, 1494.0, 1495.0, 1495.0, 1496.0, 1496.0, 1494.0, 1493.0, 1491.0, 1490.0, 1493.0, 1494.0, 1497.0, 1496.0, 1498.0, 1495.0, 1494.0, 1495.0, 1495.0, 1497.0, 1497.0, 1498.0, 1499.0, 1501.0, 1504.0, 1504.0, 1501.0, 1498.0, 1499.0, 1500.0, 1500.0, 1500.0, 1498.0, 1499.0, 1500.0, 1502.0, 1486.0, 1507.0, 1497.0, 1494.0, 1494.0, 1494.0, 1491.0, 1491.0, 1491.0, 1490.0, 1491.0, 1490.0, 1491.0, 1490.0, 1491.0, 1491.0, 1492.0, 1493.0, 1492.0, 1491.0, 1490.0, 1492.0, 1492.0, 1492.0, 1494.0, 1490.0, 1490.0, 1490.0, 1492.0, 1462.0, 1496.0, 1493.0, 1497.0, 1507.0, 1506.0, 1501.0, 1499.0, 1497.0, 1498.0, 1500.0, 1500.0, 1500.0, 1500.0, 1500.0, 1500.0, 1500.0, 1496.0, 1497.0, 1497.0, 1497.0, 1496.0, 1497.0, 1498.0, 1497.0]
    },
    "slices": {}
  }
}