{
  "AcquisitionMatrixPE": 72,
  "AcquisitionNumber": 1,
  "AcquisitionTime": "17:47:54.532500",
  "BandwidthPerPixelPhaseEncode": 17.943,
  "BaseResolution": 96,
  "BodyPartExamined": "BRAIN",
  "CoilCombinationMethod": "Sum of Squares",
  "ConsistencyInfo": "N4_VE11C_LATEST_20160120",
  "ConversionSoftware": "dcm2niix",
  "ConversionSoftwareVersion": "v1.0.20211006",
  "DerivedVendorReportedEchoSpacing": 0.000552897,
  "DeviceSerialNumber": "166011",
  "EchoTime": 0.03,
  "EchoTrainLength": 58,
  "EffectiveEchoSpacing": 0.000580542,
  "FlipAngle": 62,
  "ImageOrientationPatientDICOM": [0.999834, 0.016108, -0.00852869, -0.0141358, 0.980691, 0.195054],
  "ImageType": [
    "ORIGINAL",
    "PRIMARY",
    "M",
    "ND",
    "MOSAIC"
],
  "ImagingFrequency": 123.259,
  "InPlanePhaseEncodingDirectionDICOM": "COL",
  "InstitutionAddress": "West 130th Street 610,NY,NYC,US,10025",
  "InstitutionName": "MBBI",
  "MRAcquisitionType": "2D",
  "MagneticFieldStrength": 3,
  "Manufacturer": "Siemens",
  "ManufacturersModelName": "Prisma",
  "Modality": "MR",
  "MultibandAccelerationFactor": 3,
  "PartialFourier": 0.75,
  "PatientPosition": "HFS",
  "PercentPhaseFOV": 100,
  "PercentSampling": 75,
  "PhaseEncodingDirection": "j-",
  "PhaseEncodingSteps": 58,
  "PhaseOversampling": 0.05,
  "PhaseResolution": 0.75,
  "PixelBandwidth": 2265,
  "ProcedureStepDescription": "White^Word_recognition",
  "ProtocolName": "func_language_run2",
  "PulseSequenceDetails": "%SiemensSeq%\\ep2d_bold",
  "ReceiveCoilActiveElements": "HC1-7",
  "ReceiveCoilName": "HeadNeck_64",
  "ReconMatrixPE": 96,
  "RefLinesPE": 40,
  "RepetitionTime": 1.5,
  "SAR": 0.0451354,
  "ScanOptions": "PFP\\FS",
  "ScanningSequence": "EP",
  "SequenceName": "*epfid2d1_72",
  "SequenceVariant": "SK\\OSP",
  "SeriesDescription": "func_language_run2",
  "SeriesNumber": 13,
  "ShimSetting": [-1153, -1415, 780, 767, -120, -226, 130, -8],
  "SliceThickness": 2,
  "SliceTiming": [1.075, 0, 0.7375, 0.065, 0.805, 0.1325, 0.8725, 0.2, 0.94, 0.2675, 1.0075, 0.4025, 1.1425, 0.47, 1.21, 0.5375, 1.2775, 0.605, 1.345, 0.6725, 1.4125, 0.335, 1.075, 0, 0.7375, 0.065, 0.805, 0.1325, 0.8725, 0.2, 0.94, 0.2675, 1.0075, 0.4025, 1.1425, 0.47, 1.21, 0.5375, 1.2775, 0.605, 1.345, 0.6725, 1.4125, 0.335, 1.075, 0, 0.7375, 0.065, 0.805, 0.1325, 0.8725, 0.2, 0.94, 0.2675, 1.0075, 0.4025, 1.1425, 0.47, 1.21, 0.5375, 1.2775, 0.605, 1.345, 0.6725, 1.4125, 0.335],
  "SoftwareVersions": "syngo MR E11",
  "SpacingBetweenSlices": 2,
  "StationName": "AWP166011",
  "TaskName": "langLoc",
  "TotalReadoutTime": 0.0551515,
  "TxRefAmp": 214.325,
  "dcmmeta_affine": [
    [-1.999667763710022, -0.02827155590057373, -0.02301187999546528, 98.1517105102539],
    [-0.032216042280197144, 1.9613813161849976, 0.3898019790649414, -80.66939544677734],
    [-0.017057379707694054, -0.3901078999042511, 1.9615108966827393, -24.955469131469727],
    [0.0, 0.0, 0.0, 1.0]
],
  "dcmmeta_reorient_transform": [
    [0.0, -1.0, 0.0, 95.0],
    [1.0, 0.0, 0.0, 0.0],
    [0.0, 0.0, 1.0, 0.0],
    [0.0, 0.0, 0.0, 1.0]
],
  "dcmmeta_shape": [96, 96, 66, 239],
  "dcmmeta_slice_dim": 2,
  "dcmmeta_version": 0.6,
  "global": {
    "const": {
      "AcquisitionMatrix": [96, 0, 0, 72],
      "AngioFlag": "N",
      "BitsAllocated": 16,
      "BitsStored": 12,
      "BodyPartExamined": "BRAIN",
      "Columns": 864,
      "EchoNumbers": 1,
      "EchoTime": 30.0,
      "EchoTrainLength": 58,
      "FlipAngle": 62.0,
      "HighBit": 11,
      "ImageOrientationPatient": [0.99983388276873, 0.0161080202759, -0.0085286898404, -0.0141357783013, 0.98069064240633, 0.19505395066105],
      "ImagePositionPatient": [-852.48205477935, -871.20319605433, -205.26712024037],
      "ImageType": [
        "ORIGINAL",
        "PRIMARY",
        "M",
        "ND",
        "MOSAIC"
],
      "ImagedNucleus": "1H",
      "ImagingFrequency": 123.259429,
      "InPlanePhaseEncodingDirection": "COL",
      "MRAcquisitionType": "2D",
      "MagneticFieldStrength": 3.0,
      "Manufacturer": "SIEMENS",
      "ManufacturerModelName": "Prisma",
      "Modality": "MR",
      "NumberOfAverages": 1.0,
      "NumberOfPhaseEncodingSteps": 58,
      "PercentPhaseFieldOfView": 100.0,
      "PercentSampling": 75.0,
      "PerformedProcedureStepStartTime": "164859.005000",
      "PhotometricInterpretation": "MONOCHROME2",
      "PixelBandwidth": 2265.0,
      "PixelRepresentation": 0,
      "PixelSpacing": [2.0, 2.0],
      "ProtocolName": "func_language_run2",
      "RepetitionTime": 1500.0,
      "Rows": 864,
      "SAR": 0.04513535274235,
      "SamplesPerPixel": 1,
      "ScanOptions": [
        "PFP",
        "FS"
],
      "ScanningSequence": "EP",
      "SequenceName": "*epfid2d1_72",
      "SequenceVariant": [
        "SK",
        "OSP"
],
      "SeriesDescription": "func_language_run2",
      "SeriesNumber": 13,
      "SeriesTime": "174839.178000",
      "SliceLocation": -41.327085333503,
      "SliceThickness": 2.0,
      "SmallestImagePixelValue": 0,
      "SoftwareVersions": "syngo MR E11",
      "SpacingBetweenSlices": 2.0000000655709,
      "SpecificCharacterSet": "ISO_IR 100",
      "StudyID": "2",
      "StudyTime": "164858.928000",
      "TransmitCoilName": "Body",
      "VariableFlipAngleFlag": "N",
      "WindowCenterWidthExplanation": "Algo1",
      "dBdt": 0.0},
    "slices": {}
  },
  "time": {
    "samples": {
      "AcquisitionNumber": [1, 2, 3, 4, 5, 6, 7, 8, 9, 10, 11, 12, 13, 14, 15, 16, 17, 18, 19, 20, 21, 22, 23, 24, 25, 26, 27, 28, 29, 30, 31, 32, 33, 34, 35, 36, 37, 38, 39, 40, 41, 42, 43, 44, 45, 46, 47, 48, 49, 50, 51, 52, 53, 54, 55, 56, 57, 58, 59, 60, 61, 62, 63, 64, 65, 66, 67, 68, 69, 70, 71, 72, 73, 74, 75, 76, 77, 78, 79, 80, 81, 82, 83, 84, 85, 86, 87, 88, 89, 90, 91, 92, 93, 94, 95, 96, 97, 98, 99, 100, 101, 102, 103, 104, 105, 106, 107, 108, 109, 110, 111, 112, 113, 114, 115, 116, 117, 118, 119, 120, 121, 122, 123, 124, 125, 126, 127, 128, 129, 130, 131, 132, 133, 134, 135, 136, 137, 138, 139, 140, 141, 142, 143, 144, 145, 146, 147, 148, 149, 150, 151, 152, 153, 154, 155, 156, 157, 158, 159, 160, 161, 162, 163, 164, 165, 166, 167, 168, 169, 170, 171, 172, 173, 174, 175, 176, 177, 178, 179, 180, 181, 182, 183, 184, 185, 186, 187, 188, 189, 190, 191, 192, 193, 194, 195, 196, 197, 198, 199, 200, 201, 202, 203, 204, 205, 206, 207, 208, 209, 210, 211, 212, 213, 214, 215, 216, 217, 218, 219, 220, 221, 222, 223, 224, 225, 226, 227, 228, 229, 230, 231, 232, 233, 234, 235, 236, 237, 238, 239],
      "AcquisitionTime": ["174754.532500", "174756.032500", "174757.532500", "174759.032500", "174800.532500", "174802.032500", "174803.532500", "174805.032500", "174806.532500", "174808.032500", "174809.532500", "174811.032500", "174812.532500", "174814.032500", "174815.532500", "174817.032500", "174818.532500", "174820.032500", "174821.532500", "174823.032500", "174824.532500", "174826.032500", "174827.532500", "174829.032500", "174830.532500", "174832.032500", "174833.532500", "174835.032500", "174836.532500", "174838.032500", "174839.532500", "174841.032500", "174842.532500", "174844.032500", "174845.532500", "174847.032500", "174848.532500", "174850.032500", "174851.532500", "174853.032500", "174854.532500", "174856.032500", "174857.532500", "174859.032500", "174900.532500", "174902.032500", "174903.532500", "174905.032500", "174906.532500", "174908.032500", "174909.532500", "174911.032500", "174912.532500", "174914.032500", "174915.532500", "174917.032500", "174918.532500", "174920.032500", "174921.532500", "174923.032500", "174924.532500", "174926.032500", "174927.532500", "174929.032500", "174930.532500", "174932.032500", "174933.532500", "174935.032500", "174936.532500", "174938.032500", "174939.532500", "174941.032500", "174942.532500", "174944.032500", "174945.532500", "174947.032500", "174948.532500", "174950.032500", "174951.532500", "174953.032500", "174954.532500", "174956.032500", "174957.532500", "174959.032500", "175000.532500", "175002.032500", "175003.532500", "175005.032500", "175006.532500", "175008.032500", "175009.532500", "175011.032500", "175012.532500", "175014.032500", "175015.532500", "175017.032500", "175018.532500", "175020.032500", "175021.532500", "175023.032500", "175024.532500", "175026.032500", "175027.532500", "175029.032500", "175030.532500", "175032.032500", "175033.532500", "175035.032500", "175036.532500", "175038.032500", "175039.532500", "175041.032500", "175042.532500", "175044.032500", "175045.532500", "175047.032500", "175048.532500", "175050.032500", "175051.532500", "175053.032500", "175054.532500", "175056.032500", "175057.532500", "175059.032500", "175100.532500", "175102.032500", "175103.532500", "175105.032500", "175106.532500", "175108.032500", "175109.532500", "175111.032500", "175112.532500", "175114.032500", "175115.532500", "175117.032500", "175118.532500", "175120.032500", "175121.532500", "175123.032500", "175124.532500", "175126.032500", "175127.532500", "175129.032500", "175130.532500", "175132.032500", "175133.532500", "175135.032500", "175136.532500", "175138.032500", "175139.532500", "175141.032500", "175142.532500", "175144.032500", "175145.532500", "175147.032500", "175148.532500", "175150.032500", "175151.532500", "175153.032500", "175154.532500", "175156.032500", "175157.532500", "175159.032500", "175200.532500", "175202.032500", "175203.532500", "175205.032500", "175206.532500", "175208.032500", "175209.532500", "175211.032500", "175212.532500", "175214.032500", "175215.532500", "175217.032500", "175218.532500", "175220.032500", "175221.532500", "175223.032500", "175224.532500", "175226.032500", "175227.532500", "175229.032500", "175230.532500", "175232.032500", "175233.532500", "175235.032500", "175236.532500", "175238.032500", "175239.532500", "175241.032500", "175242.532500", "175244.032500", "175245.532500", "175247.032500", "175248.532500", "175250.032500", "175251.532500", "175253.032500", "175254.532500", "175256.032500", "175257.532500", "175259.032500", "175300.532500", "175302.032500", "175303.532500", "175305.032500", "175306.532500", "175308.032500", "175309.532500", "175311.032500", "175312.532500", "175314.032500", "175315.532500", "175317.032500", "175318.532500", "175320.032500", "175321.532500", "175323.032500", "175324.532500", "175326.032500", "175327.532500", "175329.032500", "175330.532500", "175332.032500", "175333.532500", "175335.032500", "175336.532500", "175338.032500", "175339.532500", "175341.032500", "175342.532500", "175344.032500", "175345.532500", "175347.032500", "175348.532500", "175350.032500", "175351.532500"],
      "ContentTime": ["174839.182000", "174839.186000", "174839.189000", "174839.192000", "174839.196000", "174839.199000", "174839.210000", "174839.213000", "174839.216000", "174839.219000", "174839.222000", "174839.225000", "174839.228000", "174839.232000", "174839.235000", "174839.238000", "174839.241000", "174839.244000", "174839.258000", "174839.261000", "174839.264000", "174839.267000", "174839.270000", "174839.273000", "174839.276000", "174839.279000", "174839.282000", "174839.285000", "174839.288000", "174919.178000", "174919.181000", "174919.184000", "174919.187000", "174919.190000", "174919.193000", "174919.196000", "174919.199000", "174919.203000", "174919.206000", "174919.209000", "174919.212000", "174919.215000", "174919.218000", "174919.221000", "174919.232000", "174919.235000", "174919.238000", "174919.241000", "174919.244000", "174919.247000", "174919.250000", "174919.253000", "174919.256000", "174919.260000", "174919.263000", "174919.266000", "174959.177000", "174959.180000", "174959.183000", "174959.186000", "174959.189000", "174959.192000", "174959.195000", "174959.200000", "174959.203000", "174959.206000", "174959.209000", "174959.212000", "174959.215000", "174959.218000", "174959.221000", "174959.224000", "174959.227000", "174959.230000", "174959.246000", "174959.249000", "174959.253000", "174959.256000", "174959.259000", "174959.262000", "174959.265000", "174959.268000", "174959.271000", "175019.177000", "175019.180000", "175019.183000", "175019.193000", "175019.196000", "175019.199000", "175019.202000", "175019.205000", "175019.208000", "175019.211000", "175019.214000", "175019.217000", "175019.220000", "175059.177000", "175059.180000", "175059.183000", "175059.186000", "175059.189000", "175059.192000", "175059.196000", "175059.199000", "175059.202000", "175059.205000", "175059.208000", "175059.211000", "175059.214000", "175059.217000", "175059.220000", "175059.223000", "175059.226000", "175059.229000", "175059.233000", "175059.236000", "175059.239000", "175059.242000", "175059.245000", "175059.248000", "175059.251000", "175059.254000", "175059.257000", "175139.178000", "175139.181000", "175139.184000", "175139.187000", "175139.190000", "175139.194000", "175139.197000", "175139.200000", "175139.203000", "175139.206000", "175139.209000", "175139.212000", "175139.215000", "175139.218000", "175139.221000", "175139.224000", "175139.228000", "175139.231000", "175139.234000", "175139.237000", "175139.240000", "175139.244000", "175139.247000", "175139.250000", "175139.253000", "175139.256000", "175219.177000", "175219.180000", "175219.183000", "175219.186000", "175219.190000", "175219.193000", "175219.196000", "175219.199000", "175219.202000", "175219.205000", "175219.208000", "175219.211000", "175219.214000", "175219.217000", "175219.220000", "175219.223000", "175219.226000", "175219.229000", "175219.232000", "175219.235000", "175219.238000", "175219.241000", "175219.245000", "175219.248000", "175219.251000", "175219.254000", "175219.257000", "175259.177000", "175259.180000", "175259.183000", "175259.186000", "175259.190000", "175259.193000", "175259.196000", "175259.199000", "175259.202000", "175259.205000", "175259.208000", "175259.211000", "175259.214000", "175259.217000", "175259.220000", "175259.223000", "175259.226000", "175259.229000", "175259.232000", "175259.235000", "175259.238000", "175259.242000", "175259.251000", "175259.254000", "175259.257000", "175259.260000", "175259.267000", "175339.178000", "175339.181000", "175339.184000", "175339.188000", "175339.191000", "175339.194000", "175339.197000", "175339.200000", "175339.203000", "175339.206000", "175339.209000", "175339.212000", "175339.215000", "175339.218000", "175339.222000", "175339.225000", "175339.228000", "175339.231000", "175339.234000", "175339.238000", "175339.241000", "175339.244000", "175339.247000", "175339.250000", "175339.253000", "175339.256000", "175352.726000", "175352.729000", "175352.732000", "175352.735000", "175352.749000", "175352.752000", "175352.755000", "175352.758000", "175352.761000", "175352.764000"],
      "InstanceCreationTime": ["174839.182000", "174839.186000", "174839.189000", "174839.192000", "174839.196000", "174839.199000", "174839.210000", "174839.213000", "174839.216000", "174839.219000", "174839.222000", "174839.225000", "174839.228000", "174839.232000", "174839.235000", "174839.238000", "174839.241000", "174839.244000", "174839.258000", "174839.261000", "174839.264000", "174839.267000", "174839.270000", "174839.273000", "174839.276000", "174839.279000", "174839.282000", "174839.285000", "174839.288000", "174919.178000", "174919.181000", "174919.184000", "174919.187000", "174919.190000", "174919.193000", "174919.196000", "174919.199000", "174919.203000", "174919.206000", "174919.209000", "174919.212000", "174919.215000", "174919.218000", "174919.221000", "174919.232000", "174919.235000", "174919.238000", "174919.241000", "174919.244000", "174919.247000", "174919.250000", "174919.253000", "174919.256000", "174919.260000", "174919.263000", "174919.266000", "174959.177000", "174959.180000", "174959.183000", "174959.186000", "174959.189000", "174959.192000", "174959.195000", "174959.200000", "174959.203000", "174959.206000", "174959.209000", "174959.212000", "174959.215000", "174959.218000", "174959.221000", "174959.224000", "174959.227000", "174959.230000", "174959.246000", "174959.249000", "174959.253000", "174959.256000", "174959.259000", "174959.262000", "174959.265000", "174959.268000", "174959.271000", "175019.177000", "175019.180000", "175019.183000", "175019.193000", "175019.196000", "175019.199000", "175019.202000", "175019.205000", "175019.208000", "175019.211000", "175019.214000", "175019.217000", "175019.220000", "175059.177000", "175059.180000", "175059.183000", "175059.186000", "175059.189000", "175059.192000", "175059.196000", "175059.199000", "175059.202000", "175059.205000", "175059.208000", "175059.211000", "175059.214000", "175059.217000", "175059.220000", "175059.223000", "175059.226000", "175059.229000", "175059.233000", "175059.236000", "175059.239000", "175059.242000", "175059.245000", "175059.248000", "175059.251000", "175059.254000", "175059.257000", "175139.178000", "175139.181000", "175139.184000", "175139.187000", "175139.190000", "175139.194000", "175139.197000", "175139.200000", "175139.203000", "175139.206000", "175139.209000", "175139.212000", "175139.215000", "175139.218000", "175139.221000", "175139.224000", "175139.228000", "175139.231000", "175139.234000", "175139.237000", "175139.240000", "175139.244000", "175139.247000", "175139.250000", "175139.253000", "175139.256000", "175219.177000", "175219.180000", "175219.183000", "175219.186000", "175219.190000", "175219.193000", "175219.196000", "175219.199000", "175219.202000", "175219.205000", "175219.208000", "175219.211000", "175219.214000", "175219.217000", "175219.220000", "175219.223000", "175219.226000", "175219.229000", "175219.232000", "175219.235000", "175219.238000", "175219.241000", "175219.245000", "175219.248000", "175219.251000", "175219.254000", "175219.257000", "175259.177000", "175259.180000", "175259.183000", "175259.186000", "175259.190000", "175259.193000", "175259.196000", "175259.199000", "175259.202000", "175259.205000", "175259.208000", "175259.211000", "175259.214000", "175259.217000", "175259.220000", "175259.223000", "175259.226000", "175259.229000", "175259.232000", "175259.235000", "175259.238000", "175259.242000", "175259.251000", "175259.254000", "175259.257000", "175259.260000", "175259.267000", "175339.178000", "175339.181000", "175339.184000", "175339.188000", "175339.191000", "175339.194000", "175339.197000", "175339.200000", "175339.203000", "175339.206000", "175339.209000", "175339.212000", "175339.215000", "175339.218000", "175339.222000", "175339.225000", "175339.228000", "175339.231000", "175339.234000", "175339.238000", "175339.241000", "175339.244000", "175339.247000", "175339.250000", "175339.253000", "175339.256000", "175352.726000", "175352.729000", "175352.732000", "175352.735000", "175352.749000", "175352.752000", "175352.755000", "175352.758000", "175352.761000", "175352.764000"],
      "InstanceNumber": [1, 2, 3, 4, 5, 6, 7, 8, 9, 10, 11, 12, 13, 14, 15, 16, 17, 18, 19, 20, 21, 22, 23, 24, 25, 26, 27, 28, 29, 30, 31, 32, 33, 34, 35, 36, 37, 38, 39, 40, 41, 42, 43, 44, 45, 46, 47, 48, 49, 50, 51, 52, 53, 54, 55, 56, 57, 58, 59, 60, 61, 62, 63, 64, 65, 66, 67, 68, 69, 70, 71, 72, 73, 74, 75, 76, 77, 78, 79, 80, 81, 82, 83, 84, 85, 86, 87, 88, 89, 90, 91, 92, 93, 94, 95, 96, 97, 98, 99, 100, 101, 102, 103, 104, 105, 106, 107, 108, 109, 110, 111, 112, 113, 114, 115, 116, 117, 118, 119, 120, 121, 122, 123, 124, 125, 126, 127, 128, 129, 130, 131, 132, 133, 134, 135, 136, 137, 138, 139, 140, 141, 142, 143, 144, 145, 146, 147, 148, 149, 150, 151, 152, 153, 154, 155, 156, 157, 158, 159, 160, 161, 162, 163, 164, 165, 166, 167, 168, 169, 170, 171, 172, 173, 174, 175, 176, 177, 178, 179, 180, 181, 182, 183, 184, 185, 186, 187, 188, 189, 190, 191, 192, 193, 194, 195, 196, 197, 198, 199, 200, 201, 202, 203, 204, 205, 206, 207, 208, 209, 210, 211, 212, 213, 214, 215, 216, 217, 218, 219, 220, 221, 222, 223, 224, 225, 226, 227, 228, 229, 230, 231, 232, 233, 234, 235, 236, 237, 238, 239],
      "LargestImagePixelValue": [2416, 2362, 2345, 2332, 2340, 2346, 2321, 2323, 2333, 2358, 2320, 2348, 2330, 2317, 2317, 2315, 2344, 2304, 2337, 2320, 2334, 2320, 2322, 2329, 2330, 2331, 2320, 2310, 2295, 2340, 2332, 2340, 2265, 2311, 2328, 2379, 2330, 2312, 2322, 2315, 2328, 2298, 2344, 2325, 2340, 2321, 2331, 2325, 2317, 2329, 2302, 2316, 2323, 2340, 2344, 2309, 2312, 2318, 2320, 2323, 2327, 2321, 2330, 2338, 2346, 2323, 2332, 2301, 2292, 2302, 2332, 2336, 2310, 2306, 2299, 2290, 2314, 2298, 2299, 2279, 2286, 2308, 2309, 2288, 2285, 2254, 2270, 2271, 2285, 2300, 2320, 2295, 2312, 2319, 2332, 2328, 2327, 2325, 2302, 2276, 2303, 2292, 2316, 2321, 2268, 2320, 2307, 2308, 2302, 2289, 2321, 2326, 2295, 2340, 2321, 2334, 2338, 2312, 2381, 2292, 2311, 2317, 2306, 2337, 2330, 2324, 2359, 2345, 2355, 2324, 2349, 2335, 2331, 2290, 2291, 2276, 2294, 2287, 2308, 2292, 2301, 2355, 2363, 2364, 2361, 2426, 2386, 2373, 2388, 2361, 2387, 2361, 2368, 2329, 2327, 2365, 2283, 2379, 2348, 2365, 2373, 2399, 2384, 2399, 2392, 2381, 2360, 2398, 2355, 2353, 2351, 2372, 2357, 2338, 2345, 2339, 2342, 2371, 2379, 2356, 2349, 2313, 2323, 2316, 2346, 2349, 2345, 2324, 2321, 2350, 2351, 2363, 2374, 2344, 2341, 2358, 2340, 2333, 2331, 2338, 2332, 2272, 2306, 2289, 2286, 2310, 2335, 2324, 2342, 2299, 2326, 2318, 2270, 2268, 2403, 2369, 2289, 2284, 2275, 2286, 2326, 2278, 2300, 2307, 2337, 2371, 2365, 2333, 2352, 2358, 2338, 2331, 2339, 2344, 2361, 2372, 2371, 2373, 2341],
      "WindowCenter": [695.0, 694.0, 693.0, 693.0, 693.0, 693.0, 693.0, 693.0, 694.0, 694.0, 694.0, 693.0, 693.0, 692.0, 692.0, 693.0, 693.0, 693.0, 693.0, 693.0, 692.0, 692.0, 691.0, 692.0, 691.0, 691.0, 691.0, 692.0, 691.0, 692.0, 692.0, 692.0, 691.0, 691.0, 692.0, 690.0, 689.0, 688.0, 688.0, 688.0, 689.0, 690.0, 690.0, 690.0, 690.0, 690.0, 690.0, 690.0, 690.0, 690.0, 691.0, 691.0, 691.0, 691.0, 692.0, 692.0, 692.0, 692.0, 691.0, 691.0, 691.0, 691.0, 691.0, 691.0, 691.0, 691.0, 692.0, 692.0, 692.0, 693.0, 693.0, 693.0, 694.0, 694.0, 694.0, 693.0, 694.0, 693.0, 693.0, 694.0, 693.0, 693.0, 692.0, 691.0, 691.0, 691.0, 691.0, 691.0, 690.0, 690.0, 690.0, 689.0, 690.0, 691.0, 692.0, 691.0, 691.0, 691.0, 691.0, 691.0, 692.0, 692.0, 693.0, 693.0, 692.0, 693.0, 693.0, 693.0, 693.0, 693.0, 693.0, 693.0, 693.0, 694.0, 694.0, 694.0, 695.0, 695.0, 696.0, 694.0, 694.0, 693.0, 692.0, 692.0, 692.0, 691.0, 692.0, 693.0, 694.0, 694.0, 694.0, 693.0, 693.0, 692.0, 692.0, 692.0, 693.0, 693.0, 693.0, 693.0, 694.0, 695.0, 696.0, 696.0, 696.0, 697.0, 697.0, 696.0, 697.0, 697.0, 697.0, 696.0, 696.0, 696.0, 696.0, 696.0, 696.0, 696.0, 697.0, 698.0, 698.0, 699.0, 699.0, 698.0, 697.0, 698.0, 697.0, 697.0, 698.0, 697.0, 697.0, 698.0, 698.0, 699.0, 699.0, 698.0, 698.0, 698.0, 697.0, 697.0, 696.0, 696.0, 696.0, 696.0, 697.0, 697.0, 698.0, 697.0, 697.0, 697.0, 697.0, 698.0, 698.0, 698.0, 697.0, 697.0, 697.0, 697.0, 697.0, 697.0, 697.0, 697.0, 698.0, 697.0, 698.0, 699.0, 698.0, 698.0, 698.0, 697.0, 697.0, 697.0, 698.0, 695.0, 698.0, 699.0, 698.0, 697.0, 697.0, 697.0, 698.0, 697.0, 696.0, 696.0, 697.0, 697.0, 697.0, 698.0, 698.0, 699.0, 700.0, 699.0, 699.0, 699.0, 699.0, 699.0, 700.0, 699.0, 699.0],
      "WindowWidth": [1499.0, 1495.0, 1494.0, 1494.0, 1493.0, 1494.0, 1493.0, 1494.0, 1495.0, 1494.0, 1494.0, 1493.0, 1492.0, 1491.0, 1491.0, 1492.0, 1493.0, 1493.0, 1493.0, 1493.0, 1491.0, 1490.0, 1488.0, 1489.0, 1488.0, 1489.0, 1488.0, 1489.0, 1488.0, 1489.0, 1491.0, 1490.0, 1488.0, 1486.0, 1489.0, 1486.0, 1482.0, 1479.0, 1479.0, 1480.0, 1483.0, 1485.0, 1486.0, 1486.0, 1485.0, 1484.0, 1485.0, 1485.0, 1486.0, 1486.0, 1487.0, 1488.0, 1488.0, 1488.0, 1490.0, 1490.0, 1490.0, 1490.0, 1489.0, 1489.0, 1488.0, 1488.0, 1487.0, 1488.0, 1488.0, 1489.0, 1490.0, 1491.0, 1490.0, 1492.0, 1492.0, 1493.0, 1494.0, 1495.0, 1495.0, 1494.0, 1494.0, 1494.0, 1493.0, 1494.0, 1492.0, 1492.0, 1491.0, 1488.0, 1488.0, 1487.0, 1487.0, 1486.0, 1485.0, 1484.0, 1484.0, 1482.0, 1485.0, 1487.0, 1489.0, 1488.0, 1488.0, 1486.0, 1487.0, 1488.0, 1489.0, 1490.0, 1491.0, 1492.0, 1491.0, 1493.0, 1492.0, 1493.0, 1493.0, 1493.0, 1494.0, 1493.0, 1494.0, 1494.0, 1494.0, 1494.0, 1497.0, 1497.0, 1499.0, 1495.0, 1494.0, 1491.0, 1490.0, 1489.0, 1489.0, 1488.0, 1491.0, 1492.0, 1495.0, 1494.0, 1495.0, 1492.0, 1491.0, 1490.0, 1491.0, 1491.0, 1491.0, 1492.0, 1492.0, 1492.0, 1495.0, 1497.0, 1500.0, 1501.0, 1502.0, 1503.0, 1502.0, 1502.0, 1504.0, 1503.0, 1504.0, 1501.0, 1501.0, 1500.0, 1500.0, 1500.0, 1499.0, 1502.0, 1502.0, 1505.0, 1506.0, 1508.0, 1507.0, 1505.0, 1504.0, 1505.0, 1503.0, 1503.0, 1505.0, 1503.0, 1503.0, 1505.0, 1506.0, 1507.0, 1509.0, 1506.0, 1505.0, 1505.0, 1503.0, 1503.0, 1502.0, 1500.0, 1500.0, 1501.0, 1503.0, 1503.0, 1506.0, 1504.0, 1503.0, 1502.0, 1502.0, 1505.0, 1507.0, 1506.0, 1504.0, 1504.0, 1504.0, 1502.0, 1503.0, 1504.0, 1504.0, 1503.0, 1505.0, 1503.0, 1506.0, 1507.0, 1507.0, 1506.0, 1505.0, 1504.0, 1503.0, 1504.0, 1505.0, 1499.0, 1505.0, 1508.0, 1505.0, 1505.0, 1502.0, 1504.0, 1505.0, 1502.0, 1500.0, 1501.0, 1503.0, 1503.0, 1504.0, 1505.0, 1506.0, 1508.0, 1511.0, 1508.0, 1508.0, 1508.0, 1509.0, 1508.0, 1510.0, 1509.0, 1510.0]
    },
    "slices": {}
  }
}