{
  "AcquisitionMatrixPE": 72,
  "AcquisitionNumber": 1,
  "AcquisitionTime": "17:17:56.805000",
  "BandwidthPerPixelPhaseEncode": 17.943,
  "BaseResolution": 96,
  "BodyPartExamined": "BRAIN",
  "CoilCombinationMethod": "Sum of Squares",
  "ConsistencyInfo": "N4_VE11C_LATEST_20160120",
  "ConversionSoftware": "dcm2niix",
  "ConversionSoftwareVersion": "v1.0.20211006",
  "DerivedVendorReportedEchoSpacing": 0.000552897,
  "DeviceSerialNumber": "166011",
  "EchoTime": 0.03,
  "EchoTrainLength": 58,
  "EffectiveEchoSpacing": 0.000580542,
  "FlipAngle": 62,
  "ImageOrientationPatientDICOM": [0.999834, 0.016108, -0.00852869, -0.0141358, 0.980691, 0.195054],
  "ImageType": [
    "ORIGINAL",
    "PRIMARY",
    "M",
    "ND",
    "MOSAIC"
],
  "ImagingFrequency": 123.259,
  "InPlanePhaseEncodingDirectionDICOM": "COL",
  "InstitutionAddress": "West 130th Street 610,NY,NYC,US,10025",
  "InstitutionName": "MBBI",
  "MRAcquisitionType": "2D",
  "MagneticFieldStrength": 3,
  "Manufacturer": "Siemens",
  "ManufacturersModelName": "Prisma",
  "Modality": "MR",
  "MultibandAccelerationFactor": 3,
  "PartialFourier": 0.75,
  "PatientPosition": "HFS",
  "PercentPhaseFOV": 100,
  "PercentSampling": 75,
  "PhaseEncodingDirection": "j-",
  "PhaseEncodingSteps": 58,
  "PhaseOversampling": 0.05,
  "PhaseResolution": 0.75,
  "PixelBandwidth": 2265,
  "ProcedureStepDescription": "White^Word_recognition",
  "ProtocolName": "func_vwfate_run13",
  "PulseSequenceDetails": "%SiemensSeq%\\ep2d_bold",
  "ReceiveCoilActiveElements": "HC1-7",
  "ReceiveCoilName": "HeadNeck_64",
  "ReconMatrixPE": 96,
  "RefLinesPE": 40,
  "RepetitionTime": 1.5,
  "SAR": 0.0449458,
  "ScanOptions": "PFP\\FS",
  "ScanningSequence": "EP",
  "SequenceName": "*epfid2d1_72",
  "SequenceVariant": "SK\\OSP",
  "SeriesDescription": "func_vwfate_run13",
  "SeriesNumber": 8,
  "ShimSetting": [-1153, -1415, 780, 767, -120, -226, 130, -8],
  "SliceThickness": 2,
  "SliceTiming": [1.075, 0, 0.74, 0.0675, 0.8075, 0.1325, 0.8725, 0.2, 0.94, 0.2675, 1.0075, 0.4025, 1.1425, 0.47, 1.21, 0.5375, 1.2775, 0.605, 1.345, 0.6725, 1.4125, 0.335, 1.075, 0, 0.74, 0.0675, 0.8075, 0.1325, 0.8725, 0.2, 0.94, 0.2675, 1.0075, 0.4025, 1.1425, 0.47, 1.21, 0.5375, 1.2775, 0.605, 1.345, 0.6725, 1.4125, 0.335, 1.075, 0, 0.74, 0.0675, 0.8075, 0.1325, 0.8725, 0.2, 0.94, 0.2675, 1.0075, 0.4025, 1.1425, 0.47, 1.21, 0.5375, 1.2775, 0.605, 1.345, 0.6725, 1.4125, 0.335],
  "SoftwareVersions": "syngo MR E11",
  "SpacingBetweenSlices": 2,
  "StationName": "AWP166011",
  "TaskName": "vwfate",
  "TotalReadoutTime": 0.0551515,
  "TxRefAmp": 214.325,
  "dcmmeta_affine": [
    [-1.999667763710022, -0.02827155590057373, -0.02301187999546528, 98.1517105102539],
    [-0.032216042280197144, 1.9613813161849976, 0.3898019790649414, -80.66939544677734],
    [-0.017057379707694054, -0.3901078999042511, 1.9615108966827393, -24.955469131469727],
    [0.0, 0.0, 0.0, 1.0]
],
  "dcmmeta_reorient_transform": [
    [0.0, -1.0, 0.0, 95.0],
    [1.0, 0.0, 0.0, 0.0],
    [0.0, 0.0, 1.0, 0.0],
    [0.0, 0.0, 0.0, 1.0]
],
  "dcmmeta_shape": [96, 96, 66, 164],
  "dcmmeta_slice_dim": 2,
  "dcmmeta_version": 0.6,
  "global": {
    "const": {
      "AcquisitionMatrix": [96, 0, 0, 72],
      "AngioFlag": "N",
      "BitsAllocated": 16,
      "BitsStored": 12,
      "BodyPartExamined": "BRAIN",
      "Columns": 864,
      "EchoNumbers": 1,
      "EchoTime": 30.0,
      "EchoTrainLength": 58,
      "FlipAngle": 62.0,
      "HighBit": 11,
      "ImageOrientationPatient": [0.99983388276873, 0.0161080202759, -0.0085286898404, -0.0141357783013, 0.98069064240633, 0.19505395066105],
      "ImagePositionPatient": [-852.48205477935, -871.20319605433, -205.26712024037],
      "ImageType": [
        "ORIGINAL",
        "PRIMARY",
        "M",
        "ND",
        "MOSAIC"
],
      "ImagedNucleus": "1H",
      "ImagingFrequency": 123.259411,
      "InPlanePhaseEncodingDirection": "COL",
      "MRAcquisitionType": "2D",
      "MagneticFieldStrength": 3.0,
      "Manufacturer": "SIEMENS",
      "ManufacturerModelName": "Prisma",
      "Modality": "MR",
      "NumberOfAverages": 1.0,
      "NumberOfPhaseEncodingSteps": 58,
      "PercentPhaseFieldOfView": 100.0,
      "PercentSampling": 75.0,
      "PerformedProcedureStepStartTime": "164859.005000",
      "PhotometricInterpretation": "MONOCHROME2",
      "PixelBandwidth": 2265.0,
      "PixelRepresentation": 0,
      "PixelSpacing": [2.0, 2.0],
      "ProtocolName": "func_vwfate_run13",
      "RepetitionTime": 1500.0,
      "Rows": 864,
      "SAR": 0.04494581368129,
      "SamplesPerPixel": 1,
      "ScanOptions": [
        "PFP",
        "FS"
],
      "ScanningSequence": "EP",
      "SequenceName": "*epfid2d1_72",
      "SequenceVariant": [
        "SK",
        "OSP"
],
      "SeriesDescription": "func_vwfate_run13",
      "SeriesNumber": 8,
      "SeriesTime": "171844.882000",
      "SliceLocation": -41.327085333503,
      "SliceThickness": 2.0,
      "SmallestImagePixelValue": 0,
      "SoftwareVersions": "syngo MR E11",
      "SpacingBetweenSlices": 2.0000000655709,
      "SpecificCharacterSet": "ISO_IR 100",
      "StudyID": "2",
      "StudyTime": "164858.928000",
      "TransmitCoilName": "Body",
      "VariableFlipAngleFlag": "N",
      "WindowCenterWidthExplanation": "Algo1",
      "dBdt": 0.0},
    "slices": {}
  },
  "time": {
    "samples": {
      "AcquisitionNumber": [1, 2, 3, 4, 5, 6, 7, 8, 9, 10, 11, 12, 13, 14, 15, 16, 17, 18, 19, 20, 21, 22, 23, 24, 25, 26, 27, 28, 29, 30, 31, 32, 33, 34, 35, 36, 37, 38, 39, 40, 41, 42, 43, 44, 45, 46, 47, 48, 49, 50, 51, 52, 53, 54, 55, 56, 57, 58, 59, 60, 61, 62, 63, 64, 65, 66, 67, 68, 69, 70, 71, 72, 73, 74, 75, 76, 77, 78, 79, 80, 81, 82, 83, 84, 85, 86, 87, 88, 89, 90, 91, 92, 93, 94, 95, 96, 97, 98, 99, 100, 101, 102, 103, 104, 105, 106, 107, 108, 109, 110, 111, 112, 113, 114, 115, 116, 117, 118, 119, 120, 121, 122, 123, 124, 125, 126, 127, 128, 129, 130, 131, 132, 133, 134, 135, 136, 137, 138, 139, 140, 141, 142, 143, 144, 145, 146, 147, 148, 149, 150, 151, 152, 153, 154, 155, 156, 157, 158, 159, 160, 161, 162, 163, 164],
      "AcquisitionTime": ["171756.805000", "171758.305000", "171759.805000", "171801.305000", "171802.805000", "171804.305000", "171805.805000", "171807.305000", "171808.805000", "171810.305000", "171811.805000", "171813.305000", "171814.805000", "171816.305000", "171817.805000", "171819.305000", "171820.805000", "171822.305000", "171823.805000", "171825.305000", "171826.805000", "171828.305000", "171829.805000", "171831.305000", "171832.805000", "171834.305000", "171835.805000", "171837.305000", "171838.805000", "171840.305000", "171841.805000", "171843.305000", "171844.805000", "171846.305000", "171847.805000", "171849.305000", "171850.805000", "171852.305000", "171853.805000", "171855.305000", "171856.805000", "171858.305000", "171859.805000", "171901.305000", "171902.805000", "171904.305000", "171905.805000", "171907.305000", "171908.805000", "171910.305000", "171911.805000", "171913.305000", "171914.805000", "171916.305000", "171917.805000", "171919.305000", "171920.805000", "171922.305000", "171923.805000", "171925.305000", "171926.805000", "171928.305000", "171929.805000", "171931.305000", "171932.805000", "171934.305000", "171935.805000", "171937.305000", "171938.805000", "171940.305000", "171941.805000", "171943.305000", "171944.805000", "171946.305000", "171947.805000", "171949.305000", "171950.805000", "171952.305000", "171953.805000", "171955.305000", "171956.805000", "171958.305000", "171959.805000", "172001.305000", "172002.805000", "172004.305000", "172005.805000", "172007.305000", "172008.805000", "172010.305000", "172011.805000", "172013.305000", "172014.805000", "172016.305000", "172017.805000", "172019.305000", "172020.805000", "172022.305000", "172023.805000", "172025.305000", "172026.805000", "172028.305000", "172029.805000", "172031.305000", "172032.805000", "172034.305000", "172035.805000", "172037.305000", "172038.805000", "172040.305000", "172041.805000", "172043.305000", "172044.805000", "172046.305000", "172047.805000", "172049.305000", "172050.805000", "172052.305000", "172053.805000", "172055.305000", "172056.805000", "172058.305000", "172059.805000", "172101.305000", "172102.805000", "172104.305000", "172105.805000", "172107.305000", "172108.805000", "172110.305000", "172111.805000", "172113.305000", "172114.805000", "172116.305000", "172117.805000", "172119.305000", "172120.805000", "172122.305000", "172123.805000", "172125.305000", "172126.805000", "172128.305000", "172129.805000", "172131.305000", "172132.805000", "172134.305000", "172135.805000", "172137.305000", "172138.805000", "172140.305000", "172141.805000", "172143.305000", "172144.805000", "172146.305000", "172147.805000", "172149.305000", "172150.805000", "172152.305000", "172153.805000", "172155.305000", "172156.805000", "172158.305000", "172159.805000", "172201.305000"],
      "ContentTime": ["171844.886000", "171844.890000", "171844.894000", "171844.897000", "171844.900000", "171844.904000", "171844.907000", "171844.910000", "171844.914000", "171844.917000", "171844.920000", "171844.923000", "171844.927000", "171844.930000", "171844.933000", "171844.937000", "171844.940000", "171844.943000", "171844.947000", "171844.962000", "171844.965000", "171844.968000", "171844.971000", "171844.974000", "171844.978000", "171844.981000", "171844.984000", "171844.987000", "171844.990000", "171844.993000", "171844.996000", "171845.000000", "171924.881000", "171924.884000", "171924.887000", "171924.890000", "171924.893000", "171924.896000", "171924.900000", "171924.903000", "171924.906000", "171924.909000", "171924.921000", "171924.924000", "171924.927000", "171924.930000", "171924.933000", "171924.936000", "171924.939000", "171924.942000", "171924.946000", "171924.954000", "171924.958000", "171924.961000", "171924.964000", "171924.967000", "171924.970000", "171924.973000", "172004.881000", "172004.884000", "172004.887000", "172004.890000", "172004.893000", "172004.897000", "172004.900000", "172004.903000", "172004.906000", "172004.909000", "172004.912000", "172004.915000", "172004.918000", "172004.921000", "172004.924000", "172004.927000", "172004.930000", "172004.933000", "172004.936000", "172004.939000", "172004.942000", "172004.945000", "172004.948000", "172004.951000", "172004.955000", "172004.958000", "172004.961000", "172024.880000", "172024.883000", "172024.886000", "172024.889000", "172024.892000", "172024.896000", "172024.899000", "172024.902000", "172024.905000", "172024.908000", "172024.911000", "172024.914000", "172024.917000", "172104.881000", "172104.884000", "172104.887000", "172104.891000", "172104.894000", "172104.897000", "172104.900000", "172104.903000", "172104.906000", "172104.909000", "172104.912000", "172104.915000", "172104.919000", "172104.922000", "172104.925000", "172104.928000", "172104.931000", "172104.934000", "172104.937000", "172104.940000", "172104.943000", "172104.946000", "172104.949000", "172104.966000", "172104.969000", "172104.972000", "172104.975000", "172144.881000", "172144.884000", "172144.887000", "172144.890000", "172144.893000", "172144.897000", "172144.900000", "172144.903000", "172144.906000", "172144.909000", "172144.912000", "172144.915000", "172144.918000", "172144.921000", "172144.924000", "172144.927000", "172144.930000", "172144.933000", "172144.936000", "172144.939000", "172144.942000", "172144.946000", "172144.949000", "172144.952000", "172144.955000", "172144.958000", "172144.961000", "172202.548000", "172202.551000", "172202.555000", "172202.558000", "172202.561000", "172202.564000", "172202.567000", "172202.570000", "172202.574000", "172202.577000", "172202.581000", "172202.584000"],
      "InstanceCreationTime": ["171844.886000", "171844.890000", "171844.894000", "171844.897000", "171844.900000", "171844.904000", "171844.907000", "171844.910000", "171844.914000", "171844.917000", "171844.920000", "171844.923000", "171844.927000", "171844.930000", "171844.933000", "171844.937000", "171844.940000", "171844.943000", "171844.947000", "171844.962000", "171844.965000", "171844.968000", "171844.971000", "171844.974000", "171844.978000", "171844.981000", "171844.984000", "171844.987000", "171844.990000", "171844.993000", "171844.996000", "171845.000000", "171924.881000", "171924.884000", "171924.887000", "171924.890000", "171924.893000", "171924.896000", "171924.900000", "171924.903000", "171924.906000", "171924.909000", "171924.921000", "171924.924000", "171924.927000", "171924.930000", "171924.933000", "171924.936000", "171924.939000", "171924.942000", "171924.946000", "171924.954000", "171924.958000", "171924.961000", "171924.964000", "171924.967000", "171924.970000", "171924.973000", "172004.881000", "172004.884000", "172004.887000", "172004.890000", "172004.893000", "172004.897000", "172004.900000", "172004.903000", "172004.906000", "172004.909000", "172004.912000", "172004.915000", "172004.918000", "172004.921000", "172004.924000", "172004.927000", "172004.930000", "172004.933000", "172004.936000", "172004.939000", "172004.942000", "172004.945000", "172004.948000", "172004.951000", "172004.955000", "172004.958000", "172004.961000", "172024.880000", "172024.883000", "172024.886000", "172024.889000", "172024.892000", "172024.896000", "172024.899000", "172024.902000", "172024.905000", "172024.908000", "172024.911000", "172024.914000", "172024.917000", "172104.881000", "172104.884000", "172104.887000", "172104.891000", "172104.894000", "172104.897000", "172104.900000", "172104.903000", "172104.906000", "172104.909000", "172104.912000", "172104.915000", "172104.919000", "172104.922000", "172104.925000", "172104.928000", "172104.931000", "172104.934000", "172104.937000", "172104.940000", "172104.943000", "172104.946000", "172104.949000", "172104.966000", "172104.969000", "172104.972000", "172104.975000", "172144.881000", "172144.884000", "172144.887000", "172144.890000", "172144.893000", "172144.897000", "172144.900000", "172144.903000", "172144.906000", "172144.909000", "172144.912000", "172144.915000", "172144.918000", "172144.921000", "172144.924000", "172144.927000", "172144.930000", "172144.933000", "172144.936000", "172144.939000", "172144.942000", "172144.946000", "172144.949000", "172144.952000", "172144.955000", "172144.958000", "172144.961000", "172202.548000", "172202.551000", "172202.555000", "172202.558000", "172202.561000", "172202.564000", "172202.567000", "172202.570000", "172202.574000", "172202.577000", "172202.581000", "172202.584000"],
      "InstanceNumber": [1, 2, 3, 4, 5, 6, 7, 8, 9, 10, 11, 12, 13, 14, 15, 16, 17, 18, 19, 20, 21, 22, 23, 24, 25, 26, 27, 28, 29, 30, 31, 32, 33, 34, 35, 36, 37, 38, 39, 40, 41, 42, 43, 44, 45, 46, 47, 48, 49, 50, 51, 52, 53, 54, 55, 56, 57, 58, 59, 60, 61, 62, 63, 64, 65, 66, 67, 68, 69, 70, 71, 72, 73, 74, 75, 76, 77, 78, 79, 80, 81, 82, 83, 84, 85, 86, 87, 88, 89, 90, 91, 92, 93, 94, 95, 96, 97, 98, 99, 100, 101, 102, 103, 104, 105, 106, 107, 108, 109, 110, 111, 112, 113, 114, 115, 116, 117, 118, 119, 120, 121, 122, 123, 124, 125, 126, 127, 128, 129, 130, 131, 132, 133, 134, 135, 136, 137, 138, 139, 140, 141, 142, 143, 144, 145, 146, 147, 148, 149, 150, 151, 152, 153, 154, 155, 156, 157, 158, 159, 160, 161, 162, 163, 164],
      "LargestImagePixelValue": [2534, 2443, 2431, 2386, 2383, 2382, 2422, 2393, 2396, 2404, 2396, 2378, 2389, 2399, 2416, 2416, 2414, 2422, 2404, 2384, 2366, 2359, 2405, 2416, 2398, 2392, 2392, 2384, 2368, 2418, 2437, 2408, 2391, 2341, 2400, 2404, 2405, 2406, 2389, 2376, 2389, 2401, 2400, 2383, 2396, 2378, 2403, 2413, 2408, 2408, 2436, 2425, 2413, 2387, 2369, 2352, 2397, 2420, 2391, 2374, 2368, 2397, 2408, 2450, 2425, 2375, 2365, 2402, 2382, 2399, 2413, 2409, 2412, 2395, 2386, 2381, 2381, 2445, 2425, 2431, 2481, 2415, 2459, 2419, 2450, 2423, 2451, 2429, 2417, 2391, 2402, 2434, 2423, 2426, 2384, 2394, 2374, 2419, 2378, 2411, 2423, 2419, 2409, 2375, 2394, 2394, 2408, 2377, 2367, 2396, 2380, 2385, 2399, 2580, 2365, 2475, 2393, 2398, 2357, 2339, 2353, 2273, 2392, 2500, 2335, 2381, 2389, 2387, 2344, 2319, 2326, 2360, 2378, 2374, 2370, 2402, 2373, 2377, 2393, 2422, 2399, 2387, 2380, 2395, 2366, 2374, 2408, 2394, 2387, 2453, 2414, 2385, 2419, 2409, 2381, 2415, 2371, 2380, 2349, 2342, 2378, 2373, 2401, 2398],
      "WindowCenter": [700.0, 698.0, 699.0, 698.0, 697.0, 697.0, 697.0, 697.0, 696.0, 696.0, 696.0, 696.0, 696.0, 695.0, 696.0, 696.0, 696.0, 696.0, 696.0, 696.0, 696.0, 695.0, 695.0, 695.0, 696.0, 695.0, 696.0, 696.0, 696.0, 696.0, 696.0, 696.0, 696.0, 695.0, 696.0, 696.0, 697.0, 696.0, 695.0, 695.0, 695.0, 695.0, 695.0, 696.0, 696.0, 696.0, 695.0, 695.0, 695.0, 695.0, 696.0, 695.0, 695.0, 695.0, 696.0, 697.0, 696.0, 696.0, 696.0, 696.0, 695.0, 696.0, 697.0, 696.0, 696.0, 695.0, 694.0, 695.0, 695.0, 696.0, 696.0, 696.0, 696.0, 696.0, 695.0, 696.0, 696.0, 696.0, 696.0, 697.0, 697.0, 697.0, 697.0, 696.0, 696.0, 696.0, 696.0, 695.0, 695.0, 695.0, 695.0, 695.0, 695.0, 695.0, 695.0, 695.0, 695.0, 696.0, 696.0, 696.0, 697.0, 696.0, 696.0, 696.0, 696.0, 696.0, 695.0, 695.0, 694.0, 694.0, 694.0, 695.0, 692.0, 699.0, 697.0, 698.0, 696.0, 696.0, 695.0, 696.0, 694.0, 695.0, 695.0, 698.0, 698.0, 697.0, 696.0, 695.0, 694.0, 694.0, 694.0, 695.0, 696.0, 695.0, 696.0, 697.0, 697.0, 697.0, 696.0, 697.0, 696.0, 696.0, 696.0, 697.0, 697.0, 698.0, 698.0, 697.0, 697.0, 696.0, 696.0, 696.0, 696.0, 696.0, 696.0, 697.0, 696.0, 696.0, 695.0, 695.0, 696.0, 696.0, 696.0, 696.0],
      "WindowWidth": [1512.0, 1508.0, 1508.0, 1507.0, 1505.0, 1503.0, 1504.0, 1504.0, 1502.0, 1501.0, 1502.0, 1501.0, 1501.0, 1499.0, 1500.0, 1501.0, 1502.0, 1502.0, 1501.0, 1500.0, 1500.0, 1499.0, 1499.0, 1499.0, 1499.0, 1499.0, 1500.0, 1500.0, 1501.0, 1502.0, 1502.0, 1501.0, 1500.0, 1498.0, 1500.0, 1501.0, 1502.0, 1501.0, 1499.0, 1498.0, 1497.0, 1498.0, 1499.0, 1500.0, 1501.0, 1500.0, 1498.0, 1499.0, 1499.0, 1499.0, 1500.0, 1499.0, 1499.0, 1499.0, 1501.0, 1502.0, 1502.0, 1501.0, 1500.0, 1500.0, 1499.0, 1502.0, 1502.0, 1502.0, 1500.0, 1497.0, 1496.0, 1498.0, 1498.0, 1500.0, 1501.0, 1500.0, 1500.0, 1500.0, 1499.0, 1499.0, 1501.0, 1501.0, 1501.0, 1503.0, 1502.0, 1502.0, 1502.0, 1500.0, 1501.0, 1500.0, 1500.0, 1499.0, 1497.0, 1497.0, 1498.0, 1499.0, 1498.0, 1498.0, 1498.0, 1499.0, 1498.0, 1499.0, 1500.0, 1501.0, 1502.0, 1501.0, 1500.0, 1500.0, 1500.0, 1501.0, 1499.0, 1497.0, 1495.0, 1496.0, 1495.0, 1497.0, 1490.0, 1508.0, 1505.0, 1505.0, 1501.0, 1501.0, 1498.0, 1501.0, 1496.0, 1499.0, 1499.0, 1505.0, 1506.0, 1504.0, 1500.0, 1498.0, 1495.0, 1495.0, 1496.0, 1498.0, 1500.0, 1499.0, 1501.0, 1503.0, 1503.0, 1503.0, 1502.0, 1502.0, 1502.0, 1501.0, 1501.0, 1503.0, 1504.0, 1505.0, 1506.0, 1504.0, 1502.0, 1502.0, 1501.0, 1500.0, 1501.0, 1502.0, 1502.0, 1504.0, 1502.0, 1501.0, 1499.0, 1499.0, 1501.0, 1501.0, 1501.0, 1500.0]
    },
    "slices": {}
  }
}