{
  "AcquisitionMatrixPE": 72,
  "AcquisitionNumber": 1,
  "AcquisitionTime": "17:05:26.672500",
  "BandwidthPerPixelPhaseEncode": 17.943,
  "BaseResolution": 96,
  "BodyPartExamined": "BRAIN",
  "CoilCombinationMethod": "Sum of Squares",
  "ConsistencyInfo": "N4_VE11C_LATEST_20160120",
  "ConversionSoftware": "dcm2niix",
  "ConversionSoftwareVersion": "v1.0.20211006",
  "DerivedVendorReportedEchoSpacing": 0.000552897,
  "DeviceSerialNumber": "166011",
  "EchoTime": 0.03,
  "EchoTrainLength": 58,
  "EffectiveEchoSpacing": 0.000580542,
  "FlipAngle": 62,
  "ImageOrientationPatientDICOM": [0.999471, 0.011738, 0.0303397, -0.00994337, 0.99823, -0.0586383],
  "ImageType": [
    "ORIGINAL",
    "PRIMARY",
    "M",
    "ND",
    "MOSAIC"
],
  "ImagingFrequency": 123.259,
  "InPlanePhaseEncodingDirectionDICOM": "COL",
  "InstitutionAddress": "West 130th Street 610,NY,NYC,US,10025",
  "InstitutionName": "MBBI",
  "MRAcquisitionType": "2D",
  "MagneticFieldStrength": 3,
  "Manufacturer": "Siemens",
  "ManufacturersModelName": "Prisma",
  "Modality": "MR",
  "MultibandAccelerationFactor": 3,
  "PartialFourier": 0.75,
  "PatientPosition": "HFS",
  "PercentPhaseFOV": 100,
  "PercentSampling": 75,
  "PhaseEncodingDirection": "j-",
  "PhaseEncodingSteps": 58,
  "PhaseOversampling": 0.05,
  "PhaseResolution": 0.75,
  "PixelBandwidth": 2265,
  "ProcedureStepDescription": "White^Word_recognition",
  "ProtocolName": "func_vwfate_run2",
  "PulseSequenceDetails": "%SiemensSeq%\\ep2d_bold",
  "ReceiveCoilActiveElements": "HC1-7",
  "ReceiveCoilName": "HeadNeck_64",
  "ReconMatrixPE": 96,
  "RefLinesPE": 40,
  "RepetitionTime": 1.5,
  "SAR": 0.0442008,
  "ScanOptions": "PFP\\FS",
  "ScanningSequence": "EP",
  "SequenceName": "*epfid2d1_72",
  "SequenceVariant": "SK\\OSP",
  "SeriesDescription": "func_vwfate_run2",
  "SeriesNumber": 9,
  "ShimSetting": [-1130, -1438, 695, 682, 11, -111, -28, -33],
  "SliceThickness": 2,
  "SliceTiming": [1.0775, 0, 0.74, 0.0675, 0.8075, 0.135, 0.875, 0.2025, 0.9425, 0.27, 1.01, 0.405, 1.145, 0.4725, 1.2125, 0.5375, 1.2775, 0.605, 1.345, 0.6725, 1.4125, 0.3375, 1.0775, 0, 0.74, 0.0675, 0.8075, 0.135, 0.875, 0.2025, 0.9425, 0.27, 1.01, 0.405, 1.145, 0.4725, 1.2125, 0.5375, 1.2775, 0.605, 1.345, 0.6725, 1.4125, 0.3375, 1.0775, 0, 0.74, 0.0675, 0.8075, 0.135, 0.875, 0.2025, 0.9425, 0.27, 1.01, 0.405, 1.145, 0.4725, 1.2125, 0.5375, 1.2775, 0.605, 1.345, 0.6725, 1.4125, 0.3375],
  "SoftwareVersions": "syngo MR E11",
  "SpacingBetweenSlices": 2,
  "StationName": "AWP166011",
  "TaskName": "vwfate",
  "TotalReadoutTime": 0.0551515,
  "TxRefAmp": 217.873,
  "dcmmeta_affine": [
    [-1.998941421508789, -0.019886748865246773, 0.06194858253002167, 93.40015411376953],
    [-0.02347591705620289, 1.9964596033096313, -0.11661109328269958, -56.65166091918945],
    [0.06067941337823868, 0.11727652698755264, 1.995636224746704, -69.88821411132812],
    [0.0, 0.0, 0.0, 1.0]
],
  "dcmmeta_reorient_transform": [
    [0.0, -1.0, 0.0, 95.0],
    [1.0, 0.0, 0.0, 0.0],
    [0.0, 0.0, 1.0, 0.0],
    [0.0, 0.0, 0.0, 1.0]
],
  "dcmmeta_shape": [96, 96, 66, 164],
  "dcmmeta_slice_dim": 2,
  "dcmmeta_version": 0.6,
  "global": {
    "const": {
      "AcquisitionMatrix": [96, 0, 0, 72],
      "AngioFlag": "N",
      "BitsAllocated": 16,
      "BitsStored": 12,
      "BodyPartExamined": "BRAIN",
      "Columns": 864,
      "EchoNumbers": 1,
      "EchoTime": 30.0,
      "EchoTrainLength": 58,
      "FlipAngle": 62.0,
      "HighBit": 11,
      "ImageOrientationPatient": [0.99947072121689, 0.01173795837567, 0.03033970605254, -0.0099433746797, 0.99822977481715, -0.0586382636892],
      "ImagePositionPatient": [-851.46791378131, -908.66721715121, -37.013650175351],
      "ImageType": [
        "ORIGINAL",
        "PRIMARY",
        "M",
        "ND",
        "MOSAIC"
],
      "ImagedNucleus": "1H",
      "ImagingFrequency": 123.259471,
      "InPlanePhaseEncodingDirection": "COL",
      "MRAcquisitionType": "2D",
      "MagneticFieldStrength": 3.0,
      "Manufacturer": "SIEMENS",
      "ManufacturerModelName": "Prisma",
      "Modality": "MR",
      "NumberOfAverages": 1.0,
      "NumberOfPhaseEncodingSteps": 58,
      "PercentPhaseFieldOfView": 100.0,
      "PercentSampling": 75.0,
      "PerformedProcedureStepStartTime": "162933.940000",
      "PhotometricInterpretation": "MONOCHROME2",
      "PixelBandwidth": 2265.0,
      "PixelRepresentation": 0,
      "PixelSpacing": [2.0, 2.0],
      "ProtocolName": "func_vwfate_run2",
      "RepetitionTime": 1500.0,
      "Rows": 864,
      "SAR": 0.0442008218925,
      "SamplesPerPixel": 1,
      "ScanOptions": [
        "PFP",
        "FS"
],
      "ScanningSequence": "EP",
      "SequenceName": "*epfid2d1_72",
      "SequenceVariant": [
        "SK",
        "OSP"
],
      "SeriesDescription": "func_vwfate_run2",
      "SeriesNumber": 9,
      "SeriesTime": "170614.085000",
      "SliceLocation": -63.539617175126,
      "SliceThickness": 2.0,
      "SmallestImagePixelValue": 0,
      "SoftwareVersions": "syngo MR E11",
      "SpacingBetweenSlices": 1.9999999842651,
      "SpecificCharacterSet": "ISO_IR 100",
      "StudyID": "1",
      "StudyTime": "162933.872000",
      "TransmitCoilName": "Body",
      "VariableFlipAngleFlag": "N",
      "WindowCenterWidthExplanation": "Algo1",
      "dBdt": 0.0},
    "slices": {}
  },
  "time": {
    "samples": {
      "AcquisitionNumber": [1, 2, 3, 4, 5, 6, 7, 8, 9, 10, 11, 12, 13, 14, 15, 16, 17, 18, 19, 20, 21, 22, 23, 24, 25, 26, 27, 28, 29, 30, 31, 32, 33, 34, 35, 36, 37, 38, 39, 40, 41, 42, 43, 44, 45, 46, 47, 48, 49, 50, 51, 52, 53, 54, 55, 56, 57, 58, 59, 60, 61, 62, 63, 64, 65, 66, 67, 68, 69, 70, 71, 72, 73, 74, 75, 76, 77, 78, 79, 80, 81, 82, 83, 84, 85, 86, 87, 88, 89, 90, 91, 92, 93, 94, 95, 96, 97, 98, 99, 100, 101, 102, 103, 104, 105, 106, 107, 108, 109, 110, 111, 112, 113, 114, 115, 116, 117, 118, 119, 120, 121, 122, 123, 124, 125, 126, 127, 128, 129, 130, 131, 132, 133, 134, 135, 136, 137, 138, 139, 140, 141, 142, 143, 144, 145, 146, 147, 148, 149, 150, 151, 152, 153, 154, 155, 156, 157, 158, 159, 160, 161, 162, 163, 164],
      "AcquisitionTime": ["170526.672500", "170528.172500", "170529.672500", "170531.172500", "170532.672500", "170534.172500", "170535.672500", "170537.172500", "170538.672500", "170540.172500", "170541.672500", "170543.172500", "170544.672500", "170546.172500", "170547.672500", "170549.172500", "170550.672500", "170552.172500", "170553.672500", "170555.172500", "170556.672500", "170558.172500", "170559.672500", "170601.172500", "170602.672500", "170604.172500", "170605.672500", "170607.172500", "170608.672500", "170610.172500", "170611.672500", "170613.172500", "170614.672500", "170616.172500", "170617.672500", "170619.172500", "170620.672500", "170622.172500", "170623.672500", "170625.172500", "170626.672500", "170628.172500", "170629.672500", "170631.172500", "170632.672500", "170634.172500", "170635.672500", "170637.172500", "170638.672500", "170640.172500", "170641.672500", "170643.172500", "170644.672500", "170646.172500", "170647.672500", "170649.172500", "170650.672500", "170652.172500", "170653.672500", "170655.172500", "170656.672500", "170658.172500", "170659.672500", "170701.172500", "170702.672500", "170704.172500", "170705.672500", "170707.172500", "170708.672500", "170710.172500", "170711.672500", "170713.172500", "170714.672500", "170716.172500", "170717.672500", "170719.172500", "170720.672500", "170722.172500", "170723.672500", "170725.172500", "170726.672500", "170728.172500", "170729.672500", "170731.172500", "170732.672500", "170734.172500", "170735.672500", "170737.172500", "170738.672500", "170740.172500", "170741.672500", "170743.172500", "170744.672500", "170746.172500", "170747.672500", "170749.172500", "170750.672500", "170752.172500", "170753.672500", "170755.172500", "170756.672500", "170758.172500", "170759.672500", "170801.172500", "170802.672500", "170804.172500", "170805.672500", "170807.172500", "170808.672500", "170810.172500", "170811.672500", "170813.172500", "170814.672500", "170816.172500", "170817.672500", "170819.172500", "170820.672500", "170822.172500", "170823.672500", "170825.172500", "170826.672500", "170828.172500", "170829.672500", "170831.172500", "170832.672500", "170834.172500", "170835.672500", "170837.172500", "170838.672500", "170840.172500", "170841.672500", "170843.172500", "170844.672500", "170846.172500", "170847.672500", "170849.172500", "170850.672500", "170852.172500", "170853.672500", "170855.172500", "170856.672500", "170858.172500", "170859.672500", "170901.172500", "170902.672500", "170904.172500", "170905.672500", "170907.172500", "170908.672500", "170910.172500", "170911.672500", "170913.172500", "170914.672500", "170916.172500", "170917.672500", "170919.172500", "170920.672500", "170922.172500", "170923.672500", "170925.172500", "170926.672500", "170928.172500", "170929.672500", "170931.172500"],
      "ContentTime": ["170614.088000", "170614.092000", "170614.095000", "170614.098000", "170614.102000", "170614.105000", "170614.108000", "170614.123000", "170614.132000", "170614.135000", "170614.138000", "170614.141000", "170614.144000", "170614.147000", "170614.150000", "170614.154000", "170614.157000", "170614.160000", "170614.163000", "170614.181000", "170614.184000", "170614.187000", "170614.190000", "170614.193000", "170614.196000", "170614.199000", "170614.202000", "170614.205000", "170614.208000", "170614.211000", "170614.214000", "170654.077000", "170654.080000", "170654.083000", "170654.086000", "170654.089000", "170654.092000", "170654.096000", "170654.099000", "170654.102000", "170654.105000", "170654.108000", "170654.116000", "170654.119000", "170654.122000", "170654.125000", "170654.128000", "170654.131000", "170654.134000", "170654.137000", "170654.141000", "170654.143000", "170654.146000", "170654.149000", "170654.152000", "170654.155000", "170654.158000", "170654.161000", "170734.077000", "170734.080000", "170734.083000", "170734.086000", "170734.089000", "170734.092000", "170734.095000", "170734.099000", "170734.102000", "170734.105000", "170734.108000", "170734.111000", "170734.121000", "170734.124000", "170734.128000", "170734.131000", "170734.134000", "170734.137000", "170734.140000", "170734.142000", "170734.145000", "170734.148000", "170734.151000", "170734.154000", "170734.157000", "170734.160000", "170754.078000", "170754.081000", "170754.091000", "170754.094000", "170754.097000", "170754.100000", "170754.103000", "170754.106000", "170754.109000", "170754.113000", "170754.116000", "170754.119000", "170754.122000", "170754.125000", "170834.078000", "170834.081000", "170834.084000", "170834.088000", "170834.091000", "170834.094000", "170834.097000", "170834.100000", "170834.103000", "170834.106000", "170834.109000", "170834.112000", "170834.115000", "170834.118000", "170834.121000", "170834.124000", "170834.127000", "170834.131000", "170834.134000", "170834.137000", "170834.139000", "170834.143000", "170834.146000", "170834.149000", "170834.152000", "170834.155000", "170914.077000", "170914.080000", "170914.083000", "170914.087000", "170914.090000", "170914.093000", "170914.096000", "170914.100000", "170914.103000", "170914.106000", "170914.109000", "170914.120000", "170914.123000", "170914.126000", "170914.129000", "170914.132000", "170914.135000", "170914.138000", "170914.141000", "170914.144000", "170914.147000", "170914.150000", "170914.153000", "170914.156000", "170914.160000", "170914.163000", "170914.166000", "170932.822000", "170932.826000", "170932.829000", "170932.832000", "170932.835000", "170932.838000", "170932.841000", "170932.844000", "170932.847000", "170932.850000", "170932.853000", "170932.871000", "170932.874000"],
      "InstanceCreationTime": ["170614.088000", "170614.092000", "170614.095000", "170614.098000", "170614.102000", "170614.105000", "170614.108000", "170614.123000", "170614.132000", "170614.135000", "170614.138000", "170614.141000", "170614.144000", "170614.147000", "170614.150000", "170614.154000", "170614.157000", "170614.160000", "170614.163000", "170614.181000", "170614.184000", "170614.187000", "170614.190000", "170614.193000", "170614.196000", "170614.199000", "170614.202000", "170614.205000", "170614.208000", "170614.211000", "170614.214000", "170654.077000", "170654.080000", "170654.083000", "170654.086000", "170654.089000", "170654.092000", "170654.096000", "170654.099000", "170654.102000", "170654.105000", "170654.108000", "170654.116000", "170654.119000", "170654.122000", "170654.125000", "170654.128000", "170654.131000", "170654.134000", "170654.137000", "170654.141000", "170654.143000", "170654.146000", "170654.149000", "170654.152000", "170654.155000", "170654.158000", "170654.161000", "170734.077000", "170734.080000", "170734.083000", "170734.086000", "170734.089000", "170734.092000", "170734.095000", "170734.099000", "170734.102000", "170734.105000", "170734.108000", "170734.111000", "170734.121000", "170734.124000", "170734.128000", "170734.131000", "170734.134000", "170734.137000", "170734.140000", "170734.142000", "170734.145000", "170734.148000", "170734.151000", "170734.154000", "170734.157000", "170734.160000", "170754.078000", "170754.081000", "170754.091000", "170754.094000", "170754.097000", "170754.100000", "170754.103000", "170754.106000", "170754.109000", "170754.113000", "170754.116000", "170754.119000", "170754.122000", "170754.125000", "170834.078000", "170834.081000", "170834.084000", "170834.088000", "170834.091000", "170834.094000", "170834.097000", "170834.100000", "170834.103000", "170834.106000", "170834.109000", "170834.112000", "170834.115000", "170834.118000", "170834.121000", "170834.124000", "170834.127000", "170834.131000", "170834.134000", "170834.137000", "170834.139000", "170834.143000", "170834.146000", "170834.149000", "170834.152000", "170834.155000", "170914.077000", "170914.080000", "170914.083000", "170914.087000", "170914.090000", "170914.093000", "170914.096000", "170914.100000", "170914.103000", "170914.106000", "170914.109000", "170914.120000", "170914.123000", "170914.126000", "170914.129000", "170914.132000", "170914.135000", "170914.138000", "170914.141000", "170914.144000", "170914.147000", "170914.150000", "170914.153000", "170914.156000", "170914.160000", "170914.163000", "170914.166000", "170932.822000", "170932.826000", "170932.829000", "170932.832000", "170932.835000", "170932.838000", "170932.841000", "170932.844000", "170932.847000", "170932.850000", "170932.853000", "170932.871000", "170932.874000"],
      "InstanceNumber": [1, 2, 3, 4, 5, 6, 7, 8, 9, 10, 11, 12, 13, 14, 15, 16, 17, 18, 19, 20, 21, 22, 23, 24, 25, 26, 27, 28, 29, 30, 31, 32, 33, 34, 35, 36, 37, 38, 39, 40, 41, 42, 43, 44, 45, 46, 47, 48, 49, 50, 51, 52, 53, 54, 55, 56, 57, 58, 59, 60, 61, 62, 63, 64, 65, 66, 67, 68, 69, 70, 71, 72, 73, 74, 75, 76, 77, 78, 79, 80, 81, 82, 83, 84, 85, 86, 87, 88, 89, 90, 91, 92, 93, 94, 95, 96, 97, 98, 99, 100, 101, 102, 103, 104, 105, 106, 107, 108, 109, 110, 111, 112, 113, 114, 115, 116, 117, 118, 119, 120, 121, 122, 123, 124, 125, 126, 127, 128, 129, 130, 131, 132, 133, 134, 135, 136, 137, 138, 139, 140, 141, 142, 143, 144, 145, 146, 147, 148, 149, 150, 151, 152, 153, 154, 155, 156, 157, 158, 159, 160, 161, 162, 163, 164],
      "LargestImagePixelValue": [2937, 2862, 2788, 2783, 2767, 2738, 2721, 2702, 2677, 2693, 2682, 2719, 2707, 2709, 2756, 2743, 2760, 2730, 2729, 2726, 2713, 2694, 2712, 2730, 2724, 2687, 2722, 2713, 2699, 2649, 2815, 2717, 2682, 2695, 2711, 2692, 2855, 3039, 2689, 2605, 2675, 2629, 2597, 2910, 2721, 2706, 2575, 2636, 2624, 2692, 2644, 2628, 2651, 2885, 2837, 2883, 2803, 2796, 2703, 2732, 2630, 2594, 2559, 2513, 2588, 2531, 2586, 2695, 2645, 2557, 2630, 2649, 2738, 2757, 2817, 2594, 2855, 2662, 2514, 2706, 2686, 2634, 2608, 2665, 2630, 2651, 2670, 2606, 2975, 2913, 3518, 3259, 2946, 2766, 2668, 2680, 2644, 2589, 3241, 2897, 2816, 2837, 2765, 2695, 2729, 2711, 2631, 2560, 2893, 2759, 2807, 3000, 2900, 2814, 2751, 2762, 2739, 2695, 2702, 2626, 2658, 2596, 2585, 2963, 2788, 2589, 2797, 2702, 2621, 2655, 2679, 2642, 2595, 2556, 2489, 2518, 2700, 3459, 3191, 3282, 3149, 2921, 2948, 2950, 2974, 3039, 2967, 2787, 2766, 2687, 2661, 2758, 2715, 2694, 2396, 2780, 2644, 2684, 2547, 2724, 2846, 2786, 2847, 2877],
      "WindowCenter": [704.0, 702.0, 701.0, 700.0, 700.0, 698.0, 698.0, 698.0, 698.0, 699.0, 700.0, 700.0, 700.0, 697.0, 703.0, 702.0, 702.0, 702.0, 702.0, 701.0, 701.0, 700.0, 700.0, 700.0, 700.0, 700.0, 701.0, 699.0, 699.0, 691.0, 700.0, 699.0, 699.0, 698.0, 700.0, 700.0, 700.0, 702.0, 700.0, 700.0, 701.0, 701.0, 694.0, 682.0, 691.0, 700.0, 698.0, 698.0, 698.0, 698.0, 696.0, 699.0, 695.0, 694.0, 700.0, 701.0, 701.0, 699.0, 698.0, 697.0, 697.0, 697.0, 697.0, 696.0, 697.0, 696.0, 696.0, 694.0, 699.0, 698.0, 699.0, 698.0, 699.0, 699.0, 698.0, 696.0, 680.0, 700.0, 695.0, 693.0, 698.0, 695.0, 697.0, 697.0, 698.0, 697.0, 697.0, 691.0, 683.0, 700.0, 713.0, 701.0, 706.0, 703.0, 703.0, 702.0, 699.0, 682.0, 710.0, 705.0, 703.0, 701.0, 701.0, 700.0, 701.0, 700.0, 699.0, 689.0, 702.0, 701.0, 708.0, 700.0, 703.0, 701.0, 699.0, 700.0, 700.0, 700.0, 700.0, 701.0, 701.0, 697.0, 693.0, 696.0, 694.0, 695.0, 702.0, 698.0, 697.0, 697.0, 698.0, 698.0, 697.0, 696.0, 694.0, 695.0, 684.0, 702.0, 717.0, 712.0, 709.0, 708.0, 708.0, 707.0, 708.0, 698.0, 677.0, 665.0, 703.0, 697.0, 695.0, 695.0, 694.0, 695.0, 681.0, 698.0, 695.0, 695.0, 689.0, 687.0, 698.0, 697.0, 697.0, 697.0],
      "WindowWidth": [1516.0, 1512.0, 1508.0, 1506.0, 1504.0, 1499.0, 1500.0, 1501.0, 1500.0, 1503.0, 1504.0, 1504.0, 1506.0, 1499.0, 1513.0, 1511.0, 1510.0, 1511.0, 1510.0, 1509.0, 1507.0, 1505.0, 1506.0, 1506.0, 1506.0, 1507.0, 1507.0, 1503.0, 1503.0, 1483.0, 1505.0, 1503.0, 1503.0, 1501.0, 1506.0, 1507.0, 1506.0, 1512.0, 1506.0, 1506.0, 1508.0, 1507.0, 1491.0, 1458.0, 1482.0, 1506.0, 1500.0, 1499.0, 1500.0, 1500.0, 1494.0, 1501.0, 1493.0, 1490.0, 1505.0, 1507.0, 1507.0, 1503.0, 1498.0, 1498.0, 1497.0, 1496.0, 1496.0, 1494.0, 1495.0, 1493.0, 1494.0, 1490.0, 1503.0, 1499.0, 1501.0, 1501.0, 1501.0, 1501.0, 1500.0, 1494.0, 1457.0, 1505.0, 1491.0, 1488.0, 1498.0, 1491.0, 1496.0, 1496.0, 1498.0, 1498.0, 1498.0, 1483.0, 1466.0, 1513.0, 1546.0, 1513.0, 1523.0, 1515.0, 1513.0, 1511.0, 1505.0, 1464.0, 1532.0, 1520.0, 1515.0, 1508.0, 1508.0, 1506.0, 1509.0, 1507.0, 1504.0, 1476.0, 1511.0, 1510.0, 1528.0, 1508.0, 1513.0, 1508.0, 1503.0, 1504.0, 1505.0, 1506.0, 1505.0, 1507.0, 1507.0, 1498.0, 1487.0, 1496.0, 1492.0, 1491.0, 1512.0, 1500.0, 1497.0, 1497.0, 1497.0, 1497.0, 1495.0, 1493.0, 1487.0, 1490.0, 1465.0, 1517.0, 1558.0, 1544.0, 1534.0, 1531.0, 1530.0, 1528.0, 1530.0, 1504.0, 1455.0, 1421.0, 1513.0, 1496.0, 1490.0, 1490.0, 1489.0, 1489.0, 1457.0, 1499.0, 1490.0, 1490.0, 1475.0, 1472.0, 1500.0, 1497.0, 1496.0, 1496.0]
    },
    "slices": {}
  }
}