{
  "AcquisitionMatrixPE": 70,
  "AcquisitionNumber": 1,
  "AcquisitionTime": "19:23:34.787500",
  "BaseResolution": 70,
  "BodyPartExamined": "BRAIN",
  "CoilCombinationMethod": "Sum of Squares",
  "ConsistencyInfo": "N4_VE11C_LATEST_20160120",
  "ConversionSoftware": "dcm2niix",
  "ConversionSoftwareVersion": "v1.0.20211006",
  "DeviceSerialNumber": "166011",
  "EchoNumber": 2,
  "EchoTime": 0.00738,
  "EchoTime1": 0.00492,
  "EchoTime2": 0.00738,
  "FlipAngle": 60,
  "ImageOrientationPatientDICOM": [
    0.997772,
    -0.00721801,
    0.0663232,
    0.0165452,
    0.989845,
    -0.141182
  ],
  "ImageType": [
    "ORIGINAL",
    "PRIMARY",
    "P",
    "ND",
    "PHASE"
  ],
  "ImagingFrequency": 123.26,
  "InPlanePhaseEncodingDirectionDICOM": "ROW",
  "InstitutionAddress": "West 130th Street 610,NY,NYC,US,10025",
  "InstitutionName": "MBBI",
  "IntendedFor": [
    "ses-2/func/sub-118_ses-2_task-catLoc_run-01_bold.nii.gz",
    "ses-2/func/sub-118_ses-2_task-catLoc_run-02_bold.nii.gz",
    "ses-2/func/sub-118_ses-2_task-vwfate_run-01_bold.nii.gz",
    "ses-2/func/sub-118_ses-2_task-vwfate_run-02_bold.nii.gz",
    "ses-2/func/sub-118_ses-2_task-vwfate_run-03_bold.nii.gz",
    "ses-2/func/sub-118_ses-2_task-vwfate_run-04_bold.nii.gz",
    "ses-2/func/sub-118_ses-2_task-vwfate_run-05_bold.nii.gz",
    "ses-2/func/sub-118_ses-2_task-vwfate_run-06_bold.nii.gz"
  ],
  "MRAcquisitionType": "2D",
  "MagneticFieldStrength": 3,
  "Manufacturer": "Siemens",
  "ManufacturersModelName": "Prisma",
  "MatrixCoilMode": "SENSE",
  "Modality": "MR",
  "MultibandAccelerationFactor": 2,
  "PartialFourier": 1,
  "PatientPosition": "HFS",
  "PercentPhaseFOV": 100,
  "PercentSampling": 100,
  "PhaseEncodingDirection": "i",
  "PhaseEncodingSteps": 70,
  "PhaseResolution": 1,
  "PixelBandwidth": 595,
  "ProcedureStepDescription": "White^Word_recognition",
  "ProtocolName": "fmap_gre_field_mapping",
  "PulseSequenceDetails": "%SiemensSeq%\\gre_field_mapping",
  "ReceiveCoilActiveElements": "HC1-7",
  "ReceiveCoilName": "HeadNeck_64",
  "ReconMatrixPE": 70,
  "RepetitionTime": 0.52,
  "SAR": 0.0809986,
  "ScanningSequence": "GR",
  "SequenceName": "*fm2d2r",
  "SequenceVariant": "SP",
  "SeriesDescription": "fmap_gre_field_mapping",
  "SeriesNumber": 17,
  "ShimSetting": [
    -1132,
    -1377,
    672,
    591,
    -66,
    26,
    -94,
    -39
  ],
  "SliceThickness": 3,
  "SliceTiming": [
    0.25,
    0,
    0.26562,
    0.01562,
    0.28125,
    0.01562,
    0.29688,
    0.03125,
    0.3125,
    0.04688,
    0.3125,
    0.0625,
    0.32812,
    0.07812,
    0.34375,
    0.07812,
    0.35938,
    0.09375,
    0.375,
    0.10938,
    0.375,
    0.125,
    0.39062,
    0.14062,
    0.40625,
    0.14062,
    0.42188,
    0.15625,
    0.4375,
    0.17188,
    0.4375,
    0.1875,
    0.45312,
    0.1875,
    0.46875,
    0.20312,
    0.48438,
    0.21875,
    0.48438,
    0.23438,
    0.5,
    0.25
  ],
  "SoftwareVersions": "syngo MR E11",
  "SpacingBetweenSlices": 3,
  "StationName": "AWP166011",
  "TxRefAmp": 216.195,
  "dcmmeta_affine": [
    [
      -2.993316173553467,
      0.04963561147451401,
      0.1938924789428711,
      104.63041687011719
    ],
    [
      0.021654024720191956,
      2.969536304473877,
      -0.42589378356933594,
      -66.24046325683594
    ],
    [
      0.19896948337554932,
      0.4235457181930542,
      2.963275909423828,
      -78.27250671386719
    ],
    [
      0.0,
      0.0,
      0.0,
      1.0
    ]
  ],
  "dcmmeta_reorient_transform": [
    [
      0.0,
      -1.0,
      0.0,
      69.0
    ],
    [
      1.0,
      0.0,
      0.0,
      0.0
    ],
    [
      0.0,
      0.0,
      -1.0,
      41.0
    ],
    [
      0.0,
      0.0,
      0.0,
      1.0
    ]
  ],
  "dcmmeta_shape": [
    70,
    70,
    42
  ],
  "dcmmeta_slice_dim": 2,
  "dcmmeta_version": 0.6,
  "global": {
    "const": {
      "AcquisitionMatrix": [
        0,
        70,
        70,
        0
      ],
      "AcquisitionNumber": 1,
      "AngioFlag": "N",
      "BitsAllocated": 16,
      "BitsStored": 12,
      "BodyPartExamined": "BRAIN",
      "Columns": 70,
      "EchoNumbers": 2,
      "EchoTime": 7.38,
      "EchoTrainLength": 0,
      "FlipAngle": 60.0,
      "HighBit": 11,
      "ImageOrientationPatient": [
        0.99777208753983,
        -0.0072180081803,
        0.06632316099458,
        0.01654520350028,
        0.98984540553178,
        -0.1411819017748
      ],
      "ImageType": [
        "ORIGINAL",
        "PRIMARY",
        "P",
        "ND"
      ],
      "ImagedNucleus": "1H",
      "ImagingFrequency": 123.259546,
      "InPlanePhaseEncodingDirection": "ROW",
      "MRAcquisitionType": "2D",
      "MagneticFieldStrength": 3.0,
      "Manufacturer": "SIEMENS",
      "ManufacturerModelName": "Prisma",
      "Modality": "MR",
      "NumberOfAverages": 1.0,
      "NumberOfPhaseEncodingSteps": 70,
      "PercentPhaseFieldOfView": 100.0,
      "PercentSampling": 100.0,
      "PerformedProcedureStepStartTime": "181558.666000",
      "PhotometricInterpretation": "MONOCHROME2",
      "PixelBandwidth": 595.0,
      "PixelRepresentation": 0,
      "PixelSpacing": [
        3.0,
        3.0
      ],
      "ProtocolName": "fmap_gre_field_mapping",
      "RepetitionTime": 520.0,
      "RescaleIntercept": -4096.0,
      "RescaleSlope": 2.0,
      "RescaleType": "US",
      "Rows": 70,
      "SAR": 0.08099857152504,
      "SamplesPerPixel": 1,
      "ScanningSequence": "GR",
      "SequenceName": "*fm2d2r",
      "SequenceVariant": "SP",
      "SeriesDescription": "fmap_gre_field_mapping",
      "SeriesNumber": 17,
      "SeriesTime": "192448.051000",
      "SliceThickness": 3.0,
      "SoftwareVersions": "syngo MR E11",
      "SpacingBetweenSlices": 3.0,
      "SpecificCharacterSet": "ISO_IR 100",
      "StudyID": "2",
      "StudyTime": "181558.613000",
      "TransmitCoilName": "Body",
      "VariableFlipAngleFlag": "N",
      "WindowCenterWidthExplanation": "Algo1",
      "dBdt": 0.0
    },
    "slices": {
      "AcquisitionTime": [
        "192334.787500",
        "192334.527500",
        "192334.800000",
        "192334.540000",
        "192334.812500",
        "192334.552500",
        "192334.825000",
        "192334.565000",
        "192334.837500",
        "192334.577500",
        "192334.850000",
        "192334.590000",
        "192334.862500",
        "192334.602500",
        "192334.875000",
        "192334.615000",
        "192334.887500",
        "192334.627500",
        "192334.900000",
        "192334.640000",
        "192334.912500",
        "192334.652500",
        "192334.925000",
        "192334.665000",
        "192334.937500",
        "192334.677500",
        "192334.950000",
        "192334.690000",
        "192334.962500",
        "192334.702500",
        "192334.972500",
        "192334.712500",
        "192334.985000",
        "192334.725000",
        "192334.997500",
        "192334.737500",
        "192335.010000",
        "192334.750000",
        "192335.022500",
        "192334.762500",
        "192335.035000",
        "192334.775000"
      ],
      "ContentTime": [
        "192448.102000",
        "192448.053000",
        "192448.104000",
        "192448.056000",
        "192448.106000",
        "192448.058000",
        "192448.109000",
        "192448.060000",
        "192448.111000",
        "192448.066000",
        "192448.113000",
        "192448.068000",
        "192448.115000",
        "192448.070000",
        "192448.117000",
        "192448.072000",
        "192448.119000",
        "192448.074000",
        "192448.121000",
        "192448.076000",
        "192448.123000",
        "192448.079000",
        "192448.126000",
        "192448.081000",
        "192448.128000",
        "192448.083000",
        "192448.130000",
        "192448.085000",
        "192448.132000",
        "192448.087000",
        "192448.134000",
        "192448.089000",
        "192448.136000",
        "192448.091000",
        "192448.138000",
        "192448.093000",
        "192448.140000",
        "192448.096000",
        "192448.143000",
        "192448.098000",
        "192448.145000",
        "192448.100000"
      ],
      "CsaImage.ICE_Dims": [
        "X_2_1_1_1_1_1_22_1_1_1_1_151",
        "X_2_1_1_1_1_1_1_1_1_2_1_151",
        "X_2_1_1_1_1_1_23_1_1_3_1_151",
        "X_2_1_1_1_1_1_2_1_1_4_1_151",
        "X_2_1_1_1_1_1_24_1_1_5_1_151",
        "X_2_1_1_1_1_1_3_1_1_6_1_151",
        "X_2_1_1_1_1_1_25_1_1_7_1_151",
        "X_2_1_1_1_1_1_4_1_1_8_1_151",
        "X_2_1_1_1_1_1_26_1_1_9_1_151",
        "X_2_1_1_1_1_1_5_1_1_10_1_151",
        "X_2_1_1_1_1_1_27_1_1_11_1_151",
        "X_2_1_1_1_1_1_6_1_1_12_1_151",
        "X_2_1_1_1_1_1_28_1_1_13_1_151",
        "X_2_1_1_1_1_1_7_1_1_14_1_151",
        "X_2_1_1_1_1_1_29_1_1_15_1_151",
        "X_2_1_1_1_1_1_8_1_1_16_1_151",
        "X_2_1_1_1_1_1_30_1_1_17_1_151",
        "X_2_1_1_1_1_1_9_1_1_18_1_151",
        "X_2_1_1_1_1_1_31_1_1_19_1_151",
        "X_2_1_1_1_1_1_10_1_1_20_1_151",
        "X_2_1_1_1_1_1_32_1_1_21_1_151",
        "X_2_1_1_1_1_1_11_1_1_22_1_151",
        "X_2_1_1_1_1_1_33_1_1_23_1_151",
        "X_2_1_1_1_1_1_12_1_1_24_1_151",
        "X_2_1_1_1_1_1_34_1_1_25_1_151",
        "X_2_1_1_1_1_1_13_1_1_26_1_151",
        "X_2_1_1_1_1_1_35_1_1_27_1_151",
        "X_2_1_1_1_1_1_14_1_1_28_1_151",
        "X_2_1_1_1_1_1_36_1_1_29_1_151",
        "X_2_1_1_1_1_1_15_1_1_30_1_151",
        "X_2_1_1_1_1_1_37_1_1_31_1_151",
        "X_2_1_1_1_1_1_16_1_1_32_1_151",
        "X_2_1_1_1_1_1_38_1_1_33_1_151",
        "X_2_1_1_1_1_1_17_1_1_34_1_151",
        "X_2_1_1_1_1_1_39_1_1_35_1_151",
        "X_2_1_1_1_1_1_18_1_1_36_1_151",
        "X_2_1_1_1_1_1_40_1_1_37_1_151",
        "X_2_1_1_1_1_1_19_1_1_38_1_151",
        "X_2_1_1_1_1_1_41_1_1_39_1_151",
        "X_2_1_1_1_1_1_20_1_1_40_1_151",
        "X_2_1_1_1_1_1_42_1_1_41_1_151",
        "X_2_1_1_1_1_1_21_1_1_42_1_151"
      ],
      "CsaImage.ProtocolSliceNumber": [
        0,
        1,
        2,
        3,
        4,
        5,
        6,
        7,
        8,
        9,
        10,
        11,
        12,
        13,
        14,
        15,
        16,
        17,
        18,
        19,
        20,
        21,
        22,
        23,
        24,
        25,
        26,
        27,
        28,
        29,
        30,
        31,
        32,
        33,
        34,
        35,
        36,
        37,
        38,
        39,
        40,
        41
      ],
      "CsaImage.SlicePosition_PCS": [
        [
          -108.05529975,
          -138.65755092,
          -49.04796286
        ],
        [
          -108.24919163,
          -138.23165523,
          -46.08468695
        ],
        [
          -108.44308352,
          -137.80576335,
          -43.12140723
        ],
        [
          -108.6369754,
          -137.37986766,
          -40.15812751
        ],
        [
          -108.83086716,
          -136.95397197,
          -37.1948516
        ],
        [
          -109.02475916,
          -136.52808009,
          -34.23157187
        ],
        [
          -109.21865093,
          -136.1021844,
          -31.26829215
        ],
        [
          -109.41254293,
          -135.67629252,
          -28.30501242
        ],
        [
          -109.60643469,
          -135.25039683,
          -25.34173651
        ],
        [
          -109.8003267,
          -134.82450305,
          -22.37845679
        ],
        [
          -109.99421846,
          -134.39860927,
          -19.41517897
        ],
        [
          -110.18811046,
          -133.97271548,
          -16.45189925
        ],
        [
          -110.38200223,
          -133.5468217,
          -13.48862143
        ],
        [
          -110.57589399,
          -133.12092792,
          -10.52534171
        ],
        [
          -110.76978599,
          -132.69503222,
          -7.56206389
        ],
        [
          -110.96367799,
          -132.26913844,
          -4.59878512
        ],
        [
          -111.15757,
          -131.84324466,
          -1.63550635
        ],
        [
          -111.35146152,
          -131.41735087,
          1.32777194
        ],
        [
          -111.54535352,
          -130.99145709,
          4.29105071
        ],
        [
          -111.73924553,
          -130.56556331,
          7.2543293
        ],
        [
          -111.93313753,
          -130.13966762,
          10.21760802
        ],
        [
          -112.12702905,
          -129.71377383,
          13.18088655
        ],
        [
          -112.32092105,
          -129.28788005,
          16.14416532
        ],
        [
          -112.51481306,
          -128.86198626,
          19.10744409
        ],
        [
          -112.70870506,
          -128.43609248,
          22.07072286
        ],
        [
          -112.90259658,
          -128.0101987,
          25.03400163
        ],
        [
          -113.09648859,
          -127.58430491,
          27.99727945
        ],
        [
          -113.29038059,
          -127.15840922,
          30.96055917
        ],
        [
          -113.48427259,
          -126.73251544,
          33.92383699
        ],
        [
          -113.67816412,
          -126.30662166,
          36.8871148
        ],
        [
          -113.87205612,
          -125.88072787,
          39.85039453
        ],
        [
          -114.06594812,
          -125.45483409,
          42.81367425
        ],
        [
          -114.25984012,
          -125.02894031,
          45.77695016
        ],
        [
          -114.45373165,
          -124.60304461,
          48.74022989
        ],
        [
          -114.64762365,
          -124.17715083,
          51.70350961
        ],
        [
          -114.84151517,
          -123.75125705,
          54.66678552
        ],
        [
          -115.03540765,
          -123.32536326,
          57.63006524
        ],
        [
          -115.22929918,
          -122.89946948,
          60.59334497
        ],
        [
          -115.42319166,
          -122.4735757,
          63.55662469
        ],
        [
          -115.61708318,
          -122.04768191,
          66.5199006
        ],
        [
          -115.81097471,
          -121.62178622,
          69.48318032
        ],
        [
          -116.00486719,
          -121.19589244,
          72.44645623
        ]
      ],
      "CsaImage.TimeAfterStart": [
        0.7825,
        0.5225,
        0.795,
        0.535,
        0.8075,
        0.5475,
        0.82,
        0.56,
        0.8325,
        0.5725,
        0.845,
        0.585,
        0.8575,
        0.5975,
        0.87,
        0.61,
        0.8825,
        0.6225,
        0.895,
        0.635,
        0.9075,
        0.6475,
        0.92,
        0.66,
        0.9325,
        0.6725,
        0.945,
        0.685,
        0.9575,
        0.6975,
        0.9675,
        0.7075,
        0.98,
        0.72,
        0.9925,
        0.7325,
        1.005,
        0.745,
        1.0175,
        0.7575,
        1.03,
        0.77
      ],
      "ImagePositionPatient": [
        [
          -108.05529975015,
          -138.65755091625,
          -49.047962863827
        ],
        [
          -108.24919163305,
          -138.23165522533,
          -46.084686954403
        ],
        [
          -108.44308351595,
          -137.80576334911,
          -43.121407230282
        ],
        [
          -108.63697539884,
          -137.37986765819,
          -40.158127506161
        ],
        [
          -108.83086716253,
          -136.95397196727,
          -37.194851596737
        ],
        [
          -109.02475916463,
          -136.52808009105,
          -34.231571872616
        ],
        [
          -109.21865092832,
          -136.10218440013,
          -31.268292148495
        ],
        [
          -109.41254293043,
          -135.67629252391,
          -28.305012424373
        ],
        [
          -109.60643469411,
          -135.25039683299,
          -25.34173651495
        ],
        [
          -109.80032669622,
          -134.82450304942,
          -22.378456790829
        ],
        [
          -109.99421845991,
          -134.39860926586,
          -19.415178974056
        ],
        [
          -110.18811046201,
          -133.97271548229,
          -16.451899249935
        ],
        [
          -110.3820022257,
          -133.54682169872,
          -13.488621433162
        ],
        [
          -110.57589398939,
          -133.12092791515,
          -10.525341709041
        ],
        [
          -110.76978599149,
          -132.69503222423,
          -7.5620638922689
        ],
        [
          -110.9636779936,
          -132.26913844066,
          -4.5987851218221
        ],
        [
          -111.1575699957,
          -131.84324465709,
          -1.6355063513754
        ],
        [
          -111.35146152097,
          -131.41735087352,
          1.3277719422342
        ],
        [
          -111.54535352308,
          -130.99145708995,
          4.291050712681
        ],
        [
          -111.73924552518,
          -130.56556330638,
          7.2543293043139
        ],
        [
          -111.93313752729,
          -130.13966761547,
          10.217608015156
        ],
        [
          -112.12702905256,
          -129.7137738319,
          13.180886547184
        ],
        [
          -112.32092105466,
          -129.28788004833,
          16.144165317631
        ],
        [
          -112.51481305677,
          -128.86198626476,
          19.107444088078
        ],
        [
          -112.70870505888,
          -128.43609248119,
          22.070722858525
        ],
        [
          -112.90259658414,
          -128.01019869762,
          25.034001628971
        ],
        [
          -113.09648858625,
          -127.58430491405,
          27.997279445744
        ],
        [
          -113.29038058836,
          -127.15840922313,
          30.960559169865
        ],
        [
          -113.48427259046,
          -126.73251543956,
          33.923836986637
        ],
        [
          -113.67816411573,
          -126.30662165599,
          36.88711480341
        ],
        [
          -113.87205611784,
          -125.88072787242,
          39.850394527531
        ],
        [
          -114.06594811994,
          -125.45483408885,
          42.813674251652
        ],
        [
          -114.25984012205,
          -125.02894030528,
          45.776950161076
        ],
        [
          -114.45373164732,
          -124.60304461437,
          48.740229885197
        ],
        [
          -114.64762364942,
          -124.1771508308,
          51.703509609318
        ],
        [
          -114.84151517469,
          -123.75125704723,
          54.666785518742
        ],
        [
          -115.03540765363,
          -123.32536326366,
          57.630065242863
        ],
        [
          -115.2292991789,
          -122.89946948009,
          60.593344966984
        ],
        [
          -115.42319165784,
          -122.47357569652,
          63.556624691105
        ],
        [
          -115.61708318311,
          -122.04768191295,
          66.519900600529
        ],
        [
          -115.81097470838,
          -121.62178622203,
          69.48318032465
        ],
        [
          -116.00486718732,
          -121.19589243846,
          72.446456234074
        ]
      ],
      "InstanceCreationTime": [
        "192448.102000",
        "192448.053000",
        "192448.104000",
        "192448.056000",
        "192448.106000",
        "192448.058000",
        "192448.109000",
        "192448.060000",
        "192448.111000",
        "192448.066000",
        "192448.113000",
        "192448.068000",
        "192448.115000",
        "192448.070000",
        "192448.117000",
        "192448.072000",
        "192448.119000",
        "192448.074000",
        "192448.121000",
        "192448.076000",
        "192448.123000",
        "192448.079000",
        "192448.126000",
        "192448.081000",
        "192448.128000",
        "192448.083000",
        "192448.130000",
        "192448.085000",
        "192448.132000",
        "192448.087000",
        "192448.134000",
        "192448.089000",
        "192448.136000",
        "192448.091000",
        "192448.138000",
        "192448.093000",
        "192448.140000",
        "192448.096000",
        "192448.143000",
        "192448.098000",
        "192448.145000",
        "192448.100000"
      ],
      "InstanceNumber": [
        1,
        2,
        3,
        4,
        5,
        6,
        7,
        8,
        9,
        10,
        11,
        12,
        13,
        14,
        15,
        16,
        17,
        18,
        19,
        20,
        21,
        22,
        23,
        24,
        25,
        26,
        27,
        28,
        29,
        30,
        31,
        32,
        33,
        34,
        35,
        36,
        37,
        38,
        39,
        40,
        41,
        42
      ],
      "LargestImagePixelValue": [
        4079,
        4085,
        4091,
        4093,
        4094,
        4092,
        4093,
        4093,
        4090,
        4082,
        4094,
        4092,
        4087,
        4085,
        4093,
        4090,
        4095,
        4090,
        4090,
        4092,
        4090,
        4089,
        4086,
        4063,
        4081,
        4093,
        4083,
        4094,
        4093,
        4093,
        4091,
        4094,
        4090,
        4081,
        4090,
        4093,
        4088,
        4094,
        4083,
        4094,
        4094,
        4094
      ],
      "SliceLocation": [
        -61.148388159013,
        -58.148390606153,
        -55.148389826843,
        -52.148388505979,
        -49.148390960824,
        -46.148390173809,
        -43.14838886065,
        -40.148388073635,
        -37.14839052848,
        -34.148389470689,
        -31.148390312308,
        -28.148389254516,
        -25.148390096136,
        -22.148389053753,
        -19.148389609187,
        -16.148389493397,
        -13.148389377606,
        -10.148389763634,
        -7.1483896478434,
        -4.1483897086779,
        -1.1483893809861,
        1.851610468486,
        4.8516105842767,
        7.8516107000674,
        10.851610815858,
        13.85161090083,
        16.85161007462,
        19.851611403188,
        22.851610576978,
        25.851609719949,
        28.851610777741,
        31.851611835532,
        34.85160912532,
        37.85161042307,
        40.851611480861,
        43.851608739831,
        46.851609828441,
        49.851610855414,
        52.851611944024,
        55.851609202994,
        58.851610500743,
        61.851607821349
      ],
      "SmallestImagePixelValue": [
        3,
        0,
        0,
        0,
        1,
        0,
        6,
        0,
        1,
        1,
        0,
        3,
        12,
        5,
        19,
        2,
        6,
        5,
        1,
        16,
        6,
        13,
        10,
        0,
        4,
        0,
        0,
        11,
        4,
        38,
        2,
        20,
        2,
        2,
        0,
        0,
        0,
        0,
        2,
        2,
        0,
        0
      ],
      "WindowCenter": [
        -230.0,
        -260.0,
        -176.0,
        -158.0,
        -84.0,
        -88.0,
        -174.0,
        -230.0,
        -230.0,
        -164.0,
        -158.0,
        -120.0,
        10.0,
        -82.0,
        -130.0,
        -184.0,
        -172.0,
        -110.0,
        -114.0,
        -68.0,
        -202.0,
        -190.0,
        -206.0,
        -214.0,
        -218.0,
        -182.0,
        -178.0,
        -182.0,
        -192.0,
        -262.0,
        -296.0,
        -308.0,
        -312.0,
        -290.0,
        -254.0,
        -274.0,
        -274.0,
        -316.0,
        -196.0,
        -206.0,
        -264.0,
        -244.0
      ],
      "WindowWidth": [
        5844.0,
        5816.0,
        5810.0,
        5960.0,
        6114.0,
        6098.0,
        5938.0,
        5818.0,
        5578.0,
        5668.0,
        5412.0,
        5504.0,
        5618.0,
        5608.0,
        5536.0,
        5396.0,
        5096.0,
        5334.0,
        5234.0,
        5236.0,
        4516.0,
        4482.0,
        4492.0,
        4478.0,
        4484.0,
        4464.0,
        4480.0,
        4490.0,
        4522.0,
        4558.0,
        4594.0,
        4620.0,
        4638.0,
        4646.0,
        4664.0,
        4690.0,
        4740.0,
        4774.0,
        5428.0,
        5642.0,
        5798.0,
        5942.0
      ]
    }
  }
}