{
  "AcquisitionMatrixPE": 72,
  "AcquisitionNumber": 1,
  "AcquisitionTime": "09:08:36.695000",
  "BandwidthPerPixelPhaseEncode": 17.943,
  "BaseResolution": 96,
  "BodyPartExamined": "BRAIN",
  "CoilCombinationMethod": "Sum of Squares",
  "ConsistencyInfo": "N4_VE11C_LATEST_20160120",
  "ConversionSoftware": "dcm2niix",
  "ConversionSoftwareVersion": "v1.0.20211006",
  "DerivedVendorReportedEchoSpacing": 0.000552897,
  "DeviceSerialNumber": "166011",
  "EchoTime": 0.03,
  "EchoTrainLength": 58,
  "EffectiveEchoSpacing": 0.000580542,
  "FlipAngle": 62,
  "ImageOrientationPatientDICOM": [0.999867, -0.0133987, -0.00931608, 0.0106455, 0.9682, -0.249951],
  "ImageType": [
    "ORIGINAL",
    "PRIMARY",
    "M",
    "ND",
    "MOSAIC"
],
  "ImagingFrequency": 123.259,
  "InPlanePhaseEncodingDirectionDICOM": "COL",
  "InstitutionAddress": "West 130th Street 610,NY,NYC,US,10025",
  "InstitutionName": "MBBI",
  "MRAcquisitionType": "2D",
  "MagneticFieldStrength": 3,
  "Manufacturer": "Siemens",
  "ManufacturersModelName": "Prisma",
  "Modality": "MR",
  "MultibandAccelerationFactor": 3,
  "PartialFourier": 0.75,
  "PatientPosition": "HFS",
  "PercentPhaseFOV": 100,
  "PercentSampling": 75,
  "PhaseEncodingDirection": "j-",
  "PhaseEncodingSteps": 58,
  "PhaseOversampling": 0.05,
  "PhaseResolution": 0.75,
  "PixelBandwidth": 2265,
  "ProcedureStepDescription": "White^Word_recognition",
  "ProtocolName": "func_catLoc_run3",
  "PulseSequenceDetails": "%SiemensSeq%\\ep2d_bold",
  "ReceiveCoilActiveElements": "HC1-7",
  "ReceiveCoilName": "HeadNeck_64",
  "ReconMatrixPE": 96,
  "RefLinesPE": 40,
  "RepetitionTime": 1.5,
  "SAR": 0.0481747,
  "ScanOptions": "PFP\\FS",
  "ScanningSequence": "EP",
  "SequenceName": "*epfid2d1_72",
  "SequenceVariant": "SK\\OSP",
  "SeriesDescription": "func_catLoc_run3",
  "SeriesNumber": 10,
  "ShimSetting": [-1160, -1346, 686, 501, -86, 177, -45, -24],
  "SliceThickness": 2,
  "SliceTiming": [1.0775, 0, 0.74, 0.0675, 0.8075, 0.135, 0.875, 0.2025, 0.9425, 0.27, 1.01, 0.405, 1.1425, 0.47, 1.21, 0.5375, 1.2775, 0.605, 1.345, 0.6725, 1.4125, 0.3375, 1.0775, 0, 0.74, 0.0675, 0.8075, 0.135, 0.875, 0.2025, 0.9425, 0.27, 1.01, 0.405, 1.1425, 0.47, 1.21, 0.5375, 1.2775, 0.605, 1.345, 0.6725, 1.4125, 0.3375, 1.0775, 0, 0.74, 0.0675, 0.8075, 0.135, 0.875, 0.2025, 0.9425, 0.27, 1.01, 0.405, 1.1425, 0.47, 1.21, 0.5375, 1.2775, 0.605, 1.345, 0.6725, 1.4125, 0.3375],
  "SoftwareVersions": "syngo MR E11",
  "SpacingBetweenSlices": 2,
  "StationName": "AWP166011",
  "TaskName": "catLoc",
  "TotalReadoutTime": 0.0551515,
  "TxRefAmp": 226.123,
  "dcmmeta_affine": [
    [-1.9997336864471436, 0.02129092812538147, -0.024737687781453133, 96.25889587402344],
    [0.026797372847795486, 1.936400055885315, -0.4996366500854492, -64.47509765625],
    [-0.01863216608762741, 0.49990156292915344, 1.9364274740219116, -84.03739929199219],
    [0.0, 0.0, 0.0, 1.0]
],
  "dcmmeta_reorient_transform": [
    [0.0, -1.0, 0.0, 95.0],
    [1.0, 0.0, 0.0, 0.0],
    [0.0, 0.0, 1.0, 0.0],
    [0.0, 0.0, 0.0, 1.0]
],
  "dcmmeta_shape": [96, 96, 66, 214],
  "dcmmeta_slice_dim": 2,
  "dcmmeta_version": 0.6,
  "global": {
    "const": {
      "AcquisitionMatrix": [96, 0, 0, 72],
      "AngioFlag": "N",
      "BitsAllocated": 16,
      "BitsStored": 12,
      "BodyPartExamined": "BRAIN",
      "Columns": 864,
      "EchoNumbers": 1,
      "EchoTime": 30.0,
      "EchoTrainLength": 58,
      "FlipAngle": 62.0,
      "HighBit": 11,
      "ImageOrientationPatient": [0.99986683403485, -0.0133986861909, -0.0093160831618, 0.01064546367403, 0.96820002263558, -0.2499507756972],
      "ImagePositionPatient": [-874.35497600859, -852.77033421089, 162.57019901923],
      "ImageType": [
        "ORIGINAL",
        "PRIMARY",
        "M",
        "ND",
        "MOSAIC"
],
      "ImagedNucleus": "1H",
      "ImagingFrequency": 123.259494,
      "InPlanePhaseEncodingDirection": "COL",
      "MRAcquisitionType": "2D",
      "MagneticFieldStrength": 3.0,
      "Manufacturer": "SIEMENS",
      "ManufacturerModelName": "Prisma",
      "Modality": "MR",
      "NumberOfAverages": 1.0,
      "NumberOfPhaseEncodingSteps": 58,
      "PercentPhaseFieldOfView": 100.0,
      "PercentSampling": 75.0,
      "PerformedProcedureStepStartTime": "082814.837000",
      "PhotometricInterpretation": "MONOCHROME2",
      "PixelBandwidth": 2265.0,
      "PixelRepresentation": 0,
      "PixelSpacing": [2.0, 2.0],
      "ProtocolName": "func_catLoc_run3",
      "RepetitionTime": 1500.0,
      "Rows": 864,
      "SAR": 0.04817466545366,
      "SamplesPerPixel": 1,
      "ScanOptions": [
        "PFP",
        "FS"
],
      "ScanningSequence": "EP",
      "SequenceName": "*epfid2d1_72",
      "SequenceVariant": [
        "SK",
        "OSP"
],
      "SeriesDescription": "func_catLoc_run3",
      "SeriesNumber": 10,
      "SeriesTime": "090909.464000",
      "SliceLocation": -66.449711474887,
      "SliceThickness": 2.0,
      "SmallestImagePixelValue": 0,
      "SoftwareVersions": "syngo MR E11",
      "SpacingBetweenSlices": 2.0000000315333,
      "SpecificCharacterSet": "ISO_IR 100",
      "StudyID": "2",
      "StudyTime": "082814.776000",
      "TransmitCoilName": "Body",
      "VariableFlipAngleFlag": "N",
      "WindowCenterWidthExplanation": "Algo1",
      "dBdt": 0.0},
    "slices": {}
  },
  "time": {
    "samples": {
      "AcquisitionNumber": [1, 2, 3, 4, 5, 6, 7, 8, 9, 10, 11, 12, 13, 14, 15, 16, 17, 18, 19, 20, 21, 22, 23, 24, 25, 26, 27, 28, 29, 30, 31, 32, 33, 34, 35, 36, 37, 38, 39, 40, 41, 42, 43, 44, 45, 46, 47, 48, 49, 50, 51, 52, 53, 54, 55, 56, 57, 58, 59, 60, 61, 62, 63, 64, 65, 66, 67, 68, 69, 70, 71, 72, 73, 74, 75, 76, 77, 78, 79, 80, 81, 82, 83, 84, 85, 86, 87, 88, 89, 90, 91, 92, 93, 94, 95, 96, 97, 98, 99, 100, 101, 102, 103, 104, 105, 106, 107, 108, 109, 110, 111, 112, 113, 114, 115, 116, 117, 118, 119, 120, 121, 122, 123, 124, 125, 126, 127, 128, 129, 130, 131, 132, 133, 134, 135, 136, 137, 138, 139, 140, 141, 142, 143, 144, 145, 146, 147, 148, 149, 150, 151, 152, 153, 154, 155, 156, 157, 158, 159, 160, 161, 162, 163, 164, 165, 166, 167, 168, 169, 170, 171, 172, 173, 174, 175, 176, 177, 178, 179, 180, 181, 182, 183, 184, 185, 186, 187, 188, 189, 190, 191, 192, 193, 194, 195, 196, 197, 198, 199, 200, 201, 202, 203, 204, 205, 206, 207, 208, 209, 210, 211, 212, 213, 214],
      "AcquisitionTime": ["090836.695000", "090838.195000", "090839.695000", "090841.195000", "090842.695000", "090844.195000", "090845.695000", "090847.195000", "090848.695000", "090850.195000", "090851.695000", "090853.195000", "090854.695000", "090856.195000", "090857.695000", "090859.195000", "090900.695000", "090902.195000", "090903.695000", "090905.195000", "090906.695000", "090908.195000", "090909.695000", "090911.195000", "090912.695000", "090914.195000", "090915.695000", "090917.195000", "090918.695000", "090920.195000", "090921.695000", "090923.195000", "090924.695000", "090926.195000", "090927.695000", "090929.195000", "090930.695000", "090932.195000", "090933.695000", "090935.195000", "090936.695000", "090938.195000", "090939.695000", "090941.195000", "090942.695000", "090944.195000", "090945.695000", "090947.195000", "090948.695000", "090950.195000", "090951.695000", "090953.195000", "090954.695000", "090956.195000", "090957.695000", "090959.195000", "091000.695000", "091002.195000", "091003.695000", "091005.195000", "091006.695000", "091008.195000", "091009.695000", "091011.195000", "091012.695000", "091014.195000", "091015.695000", "091017.195000", "091018.695000", "091020.195000", "091021.695000", "091023.195000", "091024.695000", "091026.195000", "091027.695000", "091029.195000", "091030.695000", "091032.195000", "091033.695000", "091035.195000", "091036.695000", "091038.195000", "091039.695000", "091041.195000", "091042.695000", "091044.195000", "091045.695000", "091047.195000", "091048.695000", "091050.195000", "091051.695000", "091053.195000", "091054.695000", "091056.195000", "091057.695000", "091059.195000", "091100.695000", "091102.195000", "091103.695000", "091105.195000", "091106.695000", "091108.195000", "091109.695000", "091111.195000", "091112.695000", "091114.195000", "091115.695000", "091117.195000", "091118.695000", "091120.195000", "091121.695000", "091123.195000", "091124.695000", "091126.195000", "091127.695000", "091129.195000", "091130.695000", "091132.195000", "091133.695000", "091135.195000", "091136.695000", "091138.195000", "091139.695000", "091141.195000", "091142.695000", "091144.195000", "091145.695000", "091147.195000", "091148.695000", "091150.195000", "091151.695000", "091153.195000", "091154.695000", "091156.195000", "091157.695000", "091159.195000", "091200.695000", "091202.195000", "091203.695000", "091205.195000", "091206.695000", "091208.195000", "091209.695000", "091211.195000", "091212.695000", "091214.195000", "091215.695000", "091217.195000", "091218.695000", "091220.195000", "091221.695000", "091223.195000", "091224.695000", "091226.195000", "091227.695000", "091229.195000", "091230.695000", "091232.195000", "091233.695000", "091235.195000", "091236.695000", "091238.195000", "091239.695000", "091241.195000", "091242.695000", "091244.195000", "091245.695000", "091247.195000", "091248.695000", "091250.195000", "091251.695000", "091253.195000", "091254.695000", "091256.195000", "091257.695000", "091259.195000", "091300.695000", "091302.195000", "091303.695000", "091305.195000", "091306.695000", "091308.195000", "091309.695000", "091311.195000", "091312.695000", "091314.195000", "091315.695000", "091317.195000", "091318.695000", "091320.195000", "091321.695000", "091323.195000", "091324.695000", "091326.195000", "091327.695000", "091329.195000", "091330.695000", "091332.195000", "091333.695000", "091335.195000", "091336.695000", "091338.195000", "091339.695000", "091341.195000", "091342.695000", "091344.195000", "091345.695000", "091347.195000", "091348.695000", "091350.195000", "091351.695000", "091353.195000", "091354.695000", "091356.195000"],
      "ContentTime": ["090909.468000", "090909.472000", "090909.475000", "090909.478000", "090909.481000", "090909.484000", "090909.487000", "090909.490000", "090909.493000", "090909.496000", "090909.499000", "090909.509000", "090909.522000", "090909.532000", "090909.535000", "090909.538000", "090909.541000", "090909.549000", "090909.552000", "090909.555000", "090909.558000", "090909.561000", "090949.463000", "090949.467000", "090949.470000", "090949.474000", "090949.481000", "090949.484000", "090949.487000", "090949.490000", "090949.493000", "090949.496000", "090949.499000", "090949.502000", "090949.505000", "090949.508000", "090949.511000", "090949.514000", "090949.517000", "090949.520000", "090949.523000", "090949.526000", "090949.529000", "090949.532000", "090949.535000", "090949.538000", "090949.541000", "090949.544000", "091029.463000", "091029.466000", "091029.469000", "091029.472000", "091029.476000", "091029.478000", "091029.481000", "091029.484000", "091029.488000", "091029.491000", "091029.494000", "091029.497000", "091029.500000", "091029.503000", "091029.506000", "091029.509000", "091029.512000", "091029.515000", "091029.518000", "091029.521000", "091029.534000", "091029.537000", "091029.540000", "091029.543000", "091029.546000", "091029.549000", "091029.552000", "091109.463000", "091109.466000", "091109.469000", "091109.473000", "091109.476000", "091109.479000", "091109.482000", "091109.485000", "091109.488000", "091109.491000", "091109.494000", "091109.497000", "091109.500000", "091109.503000", "091109.506000", "091109.510000", "091109.513000", "091109.516000", "091109.519000", "091109.522000", "091109.525000", "091109.528000", "091109.531000", "091109.534000", "091109.537000", "091109.540000", "091109.543000", "091149.463000", "091149.466000", "091149.469000", "091149.472000", "091149.476000", "091149.479000", "091149.481000", "091149.484000", "091149.488000", "091149.491000", "091149.494000", "091149.497000", "091149.500000", "091149.503000", "091149.506000", "091149.509000", "091149.512000", "091149.515000", "091149.518000", "091149.521000", "091149.524000", "091149.527000", "091149.530000", "091149.533000", "091149.536000", "091149.539000", "091229.463000", "091229.466000", "091229.469000", "091229.472000", "091229.475000", "091229.479000", "091229.481000", "091229.484000", "091229.488000", "091229.491000", "091229.494000", "091229.497000", "091229.500000", "091229.503000", "091229.506000", "091229.509000", "091229.512000", "091229.515000", "091229.518000", "091229.521000", "091229.524000", "091229.527000", "091229.530000", "091229.533000", "091229.537000", "091229.540000", "091229.543000", "091249.463000", "091249.466000", "091249.469000", "091249.473000", "091249.476000", "091249.479000", "091249.482000", "091249.485000", "091249.488000", "091249.491000", "091249.494000", "091249.497000", "091249.500000", "091329.463000", "091329.466000", "091329.469000", "091329.472000", "091329.476000", "091329.479000", "091329.482000", "091329.485000", "091329.488000", "091329.491000", "091329.494000", "091329.497000", "091329.500000", "091329.503000", "091329.506000", "091329.509000", "091329.512000", "091329.515000", "091329.518000", "091329.539000", "091329.542000", "091329.549000", "091329.552000", "091329.555000", "091329.558000", "091329.561000", "091329.564000", "091357.371000", "091357.374000", "091357.377000", "091357.381000", "091357.384000", "091357.387000", "091357.390000", "091357.394000", "091357.397000", "091357.400000", "091357.403000", "091357.407000", "091357.410000", "091357.414000", "091357.417000", "091357.420000", "091357.425000", "091357.428000", "091357.431000"],
      "InstanceCreationTime": ["090909.468000", "090909.472000", "090909.475000", "090909.478000", "090909.481000", "090909.484000", "090909.487000", "090909.490000", "090909.493000", "090909.496000", "090909.499000", "090909.509000", "090909.522000", "090909.532000", "090909.535000", "090909.538000", "090909.541000", "090909.549000", "090909.552000", "090909.555000", "090909.558000", "090909.561000", "090949.463000", "090949.467000", "090949.470000", "090949.474000", "090949.481000", "090949.484000", "090949.487000", "090949.490000", "090949.493000", "090949.496000", "090949.499000", "090949.502000", "090949.505000", "090949.508000", "090949.511000", "090949.514000", "090949.517000", "090949.520000", "090949.523000", "090949.526000", "090949.529000", "090949.532000", "090949.535000", "090949.538000", "090949.541000", "090949.544000", "091029.463000", "091029.466000", "091029.469000", "091029.472000", "091029.476000", "091029.478000", "091029.481000", "091029.484000", "091029.488000", "091029.491000", "091029.494000", "091029.497000", "091029.500000", "091029.503000", "091029.506000", "091029.509000", "091029.512000", "091029.515000", "091029.518000", "091029.521000", "091029.534000", "091029.537000", "091029.540000", "091029.543000", "091029.546000", "091029.549000", "091029.552000", "091109.463000", "091109.466000", "091109.469000", "091109.473000", "091109.476000", "091109.479000", "091109.482000", "091109.485000", "091109.488000", "091109.491000", "091109.494000", "091109.497000", "091109.500000", "091109.503000", "091109.506000", "091109.510000", "091109.513000", "091109.516000", "091109.519000", "091109.522000", "091109.525000", "091109.528000", "091109.531000", "091109.534000", "091109.537000", "091109.540000", "091109.543000", "091149.463000", "091149.466000", "091149.469000", "091149.472000", "091149.476000", "091149.479000", "091149.481000", "091149.484000", "091149.488000", "091149.491000", "091149.494000", "091149.497000", "091149.500000", "091149.503000", "091149.506000", "091149.509000", "091149.512000", "091149.515000", "091149.518000", "091149.521000", "091149.524000", "091149.527000", "091149.530000", "091149.533000", "091149.536000", "091149.539000", "091229.463000", "091229.466000", "091229.469000", "091229.472000", "091229.475000", "091229.479000", "091229.481000", "091229.484000", "091229.488000", "091229.491000", "091229.494000", "091229.497000", "091229.500000", "091229.503000", "091229.506000", "091229.509000", "091229.512000", "091229.515000", "091229.518000", "091229.521000", "091229.524000", "091229.527000", "091229.530000", "091229.533000", "091229.537000", "091229.540000", "091229.543000", "091249.463000", "091249.466000", "091249.469000", "091249.473000", "091249.476000", "091249.479000", "091249.482000", "091249.485000", "091249.488000", "091249.491000", "091249.494000", "091249.497000", "091249.500000", "091329.463000", "091329.466000", "091329.469000", "091329.472000", "091329.476000", "091329.479000", "091329.482000", "091329.485000", "091329.488000", "091329.491000", "091329.494000", "091329.497000", "091329.500000", "091329.503000", "091329.506000", "091329.509000", "091329.512000", "091329.515000", "091329.518000", "091329.539000", "091329.542000", "091329.549000", "091329.552000", "091329.555000", "091329.558000", "091329.561000", "091329.564000", "091357.371000", "091357.374000", "091357.377000", "091357.381000", "091357.384000", "091357.387000", "091357.390000", "091357.394000", "091357.397000", "091357.400000", "091357.403000", "091357.407000", "091357.410000", "091357.414000", "091357.417000", "091357.420000", "091357.425000", "091357.428000", "091357.431000"],
      "InstanceNumber": [1, 2, 3, 4, 5, 6, 7, 8, 9, 10, 11, 12, 13, 14, 15, 16, 17, 18, 19, 20, 21, 22, 23, 24, 25, 26, 27, 28, 29, 30, 31, 32, 33, 34, 35, 36, 37, 38, 39, 40, 41, 42, 43, 44, 45, 46, 47, 48, 49, 50, 51, 52, 53, 54, 55, 56, 57, 58, 59, 60, 61, 62, 63, 64, 65, 66, 67, 68, 69, 70, 71, 72, 73, 74, 75, 76, 77, 78, 79, 80, 81, 82, 83, 84, 85, 86, 87, 88, 89, 90, 91, 92, 93, 94, 95, 96, 97, 98, 99, 100, 101, 102, 103, 104, 105, 106, 107, 108, 109, 110, 111, 112, 113, 114, 115, 116, 117, 118, 119, 120, 121, 122, 123, 124, 125, 126, 127, 128, 129, 130, 131, 132, 133, 134, 135, 136, 137, 138, 139, 140, 141, 142, 143, 144, 145, 146, 147, 148, 149, 150, 151, 152, 153, 154, 155, 156, 157, 158, 159, 160, 161, 162, 163, 164, 165, 166, 167, 168, 169, 170, 171, 172, 173, 174, 175, 176, 177, 178, 179, 180, 181, 182, 183, 184, 185, 186, 187, 188, 189, 190, 191, 192, 193, 194, 195, 196, 197, 198, 199, 200, 201, 202, 203, 204, 205, 206, 207, 208, 209, 210, 211, 212, 213, 214],
      "LargestImagePixelValue": [3023, 2940, 2923, 2915, 2891, 2891, 2884, 2882, 2891, 2879, 2879, 2879, 2893, 2879, 2882, 2882, 2888, 2882, 2890, 2885, 2876, 2889, 2887, 2874, 2894, 2879, 2877, 2879, 2884, 2880, 2885, 2881, 2891, 2870, 2884, 2883, 2890, 2873, 2893, 2868, 2893, 2896, 2905, 2909, 2922, 2915, 2879, 2896, 2906, 2903, 2880, 2907, 2926, 2897, 2881, 2900, 2834, 2952, 2916, 2887, 2878, 2870, 2892, 2863, 2864, 2871, 2896, 2884, 2911, 2862, 2895, 2899, 2866, 2863, 2913, 2897, 2894, 2914, 2912, 2902, 2888, 2909, 2895, 2919, 2914, 2923, 2919, 2909, 2903, 2920, 2919, 2930, 2907, 2921, 2933, 2926, 2930, 2915, 2949, 2904, 2930, 2920, 2923, 2924, 2912, 2919, 2881, 2924, 2892, 2934, 2891, 2912, 2904, 2898, 2891, 2902, 2938, 2902, 2920, 2909, 2925, 2890, 2884, 2920, 2891, 2904, 2916, 2923, 2898, 2902, 2885, 2917, 2897, 2897, 2903, 2922, 2891, 2900, 2895, 2911, 2906, 2884, 2899, 2876, 2912, 2898, 2893, 2880, 2915, 2888, 2889, 2898, 2872, 2889, 2892, 2905, 2886, 2918, 2885, 2898, 2892, 2902, 2872, 2925, 2875, 2892, 2888, 2909, 2914, 2910, 2918, 2911, 2911, 2874, 2894, 2838, 2920, 2896, 2904, 2896, 2885, 2927, 2891, 2915, 2876, 2898, 2879, 2882, 2906, 2876, 2925, 2870, 2913, 2891, 2883, 2876, 2852, 2874, 2864, 2896, 2888, 2913, 2880, 2860, 2853, 2885, 2879, 2869, 2876, 2863, 2872, 2873, 2878, 2890],
      "WindowCenter": [750.0, 748.0, 747.0, 747.0, 746.0, 745.0, 746.0, 746.0, 747.0, 747.0, 747.0, 747.0, 747.0, 747.0, 747.0, 746.0, 746.0, 746.0, 748.0, 748.0, 748.0, 747.0, 747.0, 747.0, 748.0, 749.0, 749.0, 748.0, 747.0, 747.0, 746.0, 747.0, 749.0, 750.0, 750.0, 750.0, 749.0, 747.0, 747.0, 745.0, 747.0, 748.0, 749.0, 750.0, 750.0, 749.0, 747.0, 746.0, 746.0, 746.0, 746.0, 747.0, 746.0, 744.0, 743.0, 743.0, 742.0, 743.0, 745.0, 746.0, 745.0, 744.0, 743.0, 741.0, 741.0, 742.0, 743.0, 742.0, 743.0, 742.0, 742.0, 743.0, 744.0, 745.0, 746.0, 747.0, 748.0, 748.0, 748.0, 748.0, 748.0, 748.0, 748.0, 749.0, 749.0, 749.0, 749.0, 749.0, 749.0, 750.0, 750.0, 749.0, 749.0, 749.0, 749.0, 750.0, 750.0, 750.0, 749.0, 747.0, 747.0, 748.0, 749.0, 750.0, 748.0, 747.0, 746.0, 746.0, 745.0, 746.0, 746.0, 746.0, 746.0, 746.0, 745.0, 745.0, 747.0, 747.0, 748.0, 748.0, 747.0, 745.0, 744.0, 743.0, 744.0, 745.0, 745.0, 745.0, 745.0, 745.0, 745.0, 746.0, 747.0, 748.0, 748.0, 747.0, 746.0, 747.0, 747.0, 747.0, 746.0, 745.0, 746.0, 746.0, 747.0, 746.0, 745.0, 746.0, 745.0, 745.0, 745.0, 745.0, 746.0, 745.0, 745.0, 745.0, 744.0, 744.0, 744.0, 745.0, 745.0, 746.0, 746.0, 747.0, 746.0, 746.0, 745.0, 745.0, 746.0, 747.0, 747.0, 747.0, 746.0, 745.0, 745.0, 745.0, 746.0, 747.0, 747.0, 747.0, 747.0, 746.0, 746.0, 747.0, 746.0, 747.0, 746.0, 745.0, 744.0, 743.0, 744.0, 745.0, 746.0, 745.0, 744.0, 743.0, 744.0, 744.0, 744.0, 745.0, 746.0, 746.0, 744.0, 743.0, 743.0, 743.0, 744.0, 744.0, 744.0, 744.0, 744.0, 745.0, 747.0, 746.0],
      "WindowWidth": [1606.0, 1599.0, 1598.0, 1597.0, 1595.0, 1594.0, 1595.0, 1596.0, 1599.0, 1598.0, 1599.0, 1598.0, 1598.0, 1598.0, 1598.0, 1595.0, 1596.0, 1596.0, 1600.0, 1601.0, 1600.0, 1599.0, 1599.0, 1599.0, 1602.0, 1604.0, 1602.0, 1600.0, 1598.0, 1597.0, 1596.0, 1598.0, 1602.0, 1605.0, 1606.0, 1605.0, 1602.0, 1598.0, 1597.0, 1594.0, 1597.0, 1600.0, 1604.0, 1605.0, 1606.0, 1602.0, 1599.0, 1596.0, 1595.0, 1595.0, 1597.0, 1598.0, 1595.0, 1591.0, 1588.0, 1587.0, 1587.0, 1589.0, 1593.0, 1595.0, 1592.0, 1590.0, 1587.0, 1584.0, 1584.0, 1586.0, 1587.0, 1586.0, 1587.0, 1584.0, 1586.0, 1588.0, 1590.0, 1592.0, 1597.0, 1599.0, 1601.0, 1601.0, 1600.0, 1599.0, 1599.0, 1600.0, 1601.0, 1603.0, 1603.0, 1604.0, 1604.0, 1604.0, 1604.0, 1604.0, 1604.0, 1603.0, 1602.0, 1602.0, 1604.0, 1605.0, 1606.0, 1604.0, 1602.0, 1598.0, 1598.0, 1600.0, 1602.0, 1604.0, 1600.0, 1598.0, 1595.0, 1595.0, 1593.0, 1595.0, 1595.0, 1596.0, 1596.0, 1595.0, 1594.0, 1593.0, 1597.0, 1599.0, 1602.0, 1600.0, 1597.0, 1594.0, 1589.0, 1588.0, 1589.0, 1592.0, 1594.0, 1594.0, 1592.0, 1593.0, 1593.0, 1595.0, 1598.0, 1601.0, 1600.0, 1598.0, 1594.0, 1597.0, 1597.0, 1598.0, 1596.0, 1594.0, 1595.0, 1596.0, 1597.0, 1594.0, 1593.0, 1594.0, 1593.0, 1592.0, 1592.0, 1594.0, 1594.0, 1593.0, 1592.0, 1592.0, 1591.0, 1591.0, 1590.0, 1591.0, 1592.0, 1594.0, 1595.0, 1596.0, 1595.0, 1594.0, 1593.0, 1593.0, 1595.0, 1597.0, 1599.0, 1597.0, 1596.0, 1592.0, 1592.0, 1591.0, 1596.0, 1597.0, 1598.0, 1597.0, 1597.0, 1596.0, 1595.0, 1597.0, 1596.0, 1597.0, 1595.0, 1592.0, 1590.0, 1589.0, 1589.0, 1592.0, 1596.0, 1592.0, 1589.0, 1589.0, 1589.0, 1590.0, 1590.0, 1594.0, 1595.0, 1596.0, 1590.0, 1588.0, 1586.0, 1587.0, 1590.0, 1590.0, 1590.0, 1590.0, 1590.0, 1593.0, 1598.0, 1596.0]
    },
    "slices": {}
  }
}