{
  "AcquisitionMatrixPE": 72,
  "AcquisitionNumber": 1,
  "AcquisitionTime": "10:56:15.072500",
  "BandwidthPerPixelPhaseEncode": 17.943,
  "BaseResolution": 96,
  "BodyPartExamined": "BRAIN",
  "CoilCombinationMethod": "Sum of Squares",
  "ConsistencyInfo": "N4_VE11C_LATEST_20160120",
  "ConversionSoftware": "dcm2niix",
  "ConversionSoftwareVersion": "v1.0.20211006",
  "DerivedVendorReportedEchoSpacing": 0.000552897,
  "DeviceSerialNumber": "166011",
  "EchoTime": 0.03,
  "EchoTrainLength": 58,
  "EffectiveEchoSpacing": 0.000580542,
  "FlipAngle": 62,
  "ImageOrientationPatientDICOM": [0.99959, -0.0234206, 0.0164559, 0.0251278, 0.99332, -0.112626],
  "ImageType": [
    "ORIGINAL",
    "PRIMARY",
    "M",
    "ND",
    "MOSAIC"
],
  "ImagingFrequency": 123.26,
  "InPlanePhaseEncodingDirectionDICOM": "COL",
  "InstitutionAddress": "West 130th Street 610,NY,NYC,US,10025",
  "InstitutionName": "MBBI",
  "MRAcquisitionType": "2D",
  "MagneticFieldStrength": 3,
  "Manufacturer": "Siemens",
  "ManufacturersModelName": "Prisma",
  "Modality": "MR",
  "MultibandAccelerationFactor": 3,
  "PartialFourier": 0.75,
  "PatientPosition": "HFS",
  "PercentPhaseFOV": 100,
  "PercentSampling": 75,
  "PhaseEncodingDirection": "j-",
  "PhaseEncodingSteps": 58,
  "PhaseOversampling": 0.05,
  "PhaseResolution": 0.75,
  "PixelBandwidth": 2265,
  "ProcedureStepDescription": "White^Word_recognition",
  "ProtocolName": "func_catLoc_run2",
  "PulseSequenceDetails": "%SiemensSeq%\\ep2d_bold",
  "ReceiveCoilActiveElements": "HC1-6",
  "ReceiveCoilName": "HeadNeck_64",
  "ReconMatrixPE": 96,
  "RefLinesPE": 40,
  "RepetitionTime": 1.5,
  "SAR": 0.0464767,
  "ScanOptions": "PFP\\FS",
  "ScanningSequence": "EP",
  "SequenceName": "*epfid2d1_72",
  "SequenceVariant": "SK\\OSP",
  "SeriesDescription": "func_catLoc_run2",
  "SeriesNumber": 13,
  "ShimSetting": [-1143, -1360, 652, 538, -47, -117, -24, 20],
  "SliceThickness": 2,
  "SliceTiming": [1.0775, 0, 0.74, 0.0675, 0.8075, 0.135, 0.875, 0.2025, 0.9425, 0.27, 1.01, 0.405, 1.145, 0.47, 1.21, 0.5375, 1.2775, 0.605, 1.345, 0.6725, 1.4125, 0.3375, 1.0775, 0, 0.74, 0.0675, 0.8075, 0.135, 0.875, 0.2025, 0.9425, 0.27, 1.01, 0.405, 1.145, 0.47, 1.21, 0.5375, 1.2775, 0.605, 1.345, 0.6725, 1.4125, 0.3375, 1.0775, 0, 0.74, 0.0675, 0.8075, 0.135, 0.875, 0.2025, 0.9425, 0.27, 1.01, 0.405, 1.145, 0.47, 1.21, 0.5375, 1.2775, 0.605, 1.345, 0.6725, 1.4125, 0.3375],
  "SoftwareVersions": "syngo MR E11",
  "SpacingBetweenSlices": 2,
  "StationName": "AWP166011",
  "TaskName": "catLoc",
  "TotalReadoutTime": 0.0551515,
  "TxRefAmp": 217.339,
  "dcmmeta_affine": [
    [-1.999180555343628, 0.050255581736564636, 0.027416354045271873, 97.20365142822266],
    [0.04684118181467056, 1.986639380455017, -0.22598682343959808, -77.7950668334961],
    [0.0329117551445961, 0.22525212168693542, 1.9870022535324097, -74.20406341552734],
    [0.0, 0.0, 0.0, 1.0]
],
  "dcmmeta_reorient_transform": [
    [0.0, -1.0, 0.0, 95.0],
    [1.0, 0.0, 0.0, 0.0],
    [0.0, 0.0, 1.0, 0.0],
    [0.0, 0.0, 0.0, 1.0]
],
  "dcmmeta_shape": [96, 96, 66, 214],
  "dcmmeta_slice_dim": 2,
  "dcmmeta_version": 0.6,
  "global": {
    "const": {
      "AcquisitionMatrix": [96, 0, 0, 72],
      "AngioFlag": "N",
      "BitsAllocated": 16,
      "BitsStored": 12,
      "BodyPartExamined": "BRAIN",
      "Columns": 864,
      "EchoNumbers": 1,
      "EchoTime": 30.0,
      "EchoTrainLength": 58,
      "FlipAngle": 62.0,
      "HighBit": 11,
      "ImageOrientationPatient": [0.99959025606695, -0.0234205908023, 0.01645587744476, 0.02512779013937, 0.99331966867557, -0.1126260626364],
      "ImagePositionPatient": [-888.96139313342, -855.81816262695, 21.053591122486],
      "ImageType": [
        "ORIGINAL",
        "PRIMARY",
        "M",
        "ND",
        "MOSAIC"
],
      "ImagedNucleus": "1H",
      "ImagingFrequency": 123.259541,
      "InPlanePhaseEncodingDirection": "COL",
      "MRAcquisitionType": "2D",
      "MagneticFieldStrength": 3.0,
      "Manufacturer": "SIEMENS",
      "ManufacturerModelName": "Prisma",
      "Modality": "MR",
      "NumberOfAverages": 1.0,
      "NumberOfPhaseEncodingSteps": 58,
      "PercentPhaseFieldOfView": 100.0,
      "PercentSampling": 75.0,
      "PerformedProcedureStepStartTime": "100137.435000",
      "PhotometricInterpretation": "MONOCHROME2",
      "PixelBandwidth": 2265.0,
      "PixelRepresentation": 0,
      "PixelSpacing": [2.0, 2.0],
      "ProtocolName": "func_catLoc_run2",
      "RepetitionTime": 1500.0,
      "Rows": 864,
      "SAR": 0.04647669412465,
      "SamplesPerPixel": 1,
      "ScanOptions": [
        "PFP",
        "FS"
],
      "ScanningSequence": "EP",
      "SequenceName": "*epfid2d1_72",
      "SequenceVariant": [
        "SK",
        "OSP"
],
      "SeriesDescription": "func_catLoc_run2",
      "SeriesNumber": 13,
      "SeriesTime": "105703.360000",
      "SliceLocation": -63.599008249609,
      "SliceThickness": 2.0,
      "SmallestImagePixelValue": 0,
      "SoftwareVersions": "syngo MR E11",
      "SpacingBetweenSlices": 1.9999999321199,
      "SpecificCharacterSet": "ISO_IR 100",
      "StudyID": "1",
      "StudyTime": "100137.340000",
      "TransmitCoilName": "Body",
      "VariableFlipAngleFlag": "N",
      "WindowCenterWidthExplanation": "Algo1",
      "dBdt": 0.0},
    "slices": {}
  },
  "time": {
    "samples": {
      "AcquisitionNumber": [1, 2, 3, 4, 5, 6, 7, 8, 9, 10, 11, 12, 13, 14, 15, 16, 17, 18, 19, 20, 21, 22, 23, 24, 25, 26, 27, 28, 29, 30, 31, 32, 33, 34, 35, 36, 37, 38, 39, 40, 41, 42, 43, 44, 45, 46, 47, 48, 49, 50, 51, 52, 53, 54, 55, 56, 57, 58, 59, 60, 61, 62, 63, 64, 65, 66, 67, 68, 69, 70, 71, 72, 73, 74, 75, 76, 77, 78, 79, 80, 81, 82, 83, 84, 85, 86, 87, 88, 89, 90, 91, 92, 93, 94, 95, 96, 97, 98, 99, 100, 101, 102, 103, 104, 105, 106, 107, 108, 109, 110, 111, 112, 113, 114, 115, 116, 117, 118, 119, 120, 121, 122, 123, 124, 125, 126, 127, 128, 129, 130, 131, 132, 133, 134, 135, 136, 137, 138, 139, 140, 141, 142, 143, 144, 145, 146, 147, 148, 149, 150, 151, 152, 153, 154, 155, 156, 157, 158, 159, 160, 161, 162, 163, 164, 165, 166, 167, 168, 169, 170, 171, 172, 173, 174, 175, 176, 177, 178, 179, 180, 181, 182, 183, 184, 185, 186, 187, 188, 189, 190, 191, 192, 193, 194, 195, 196, 197, 198, 199, 200, 201, 202, 203, 204, 205, 206, 207, 208, 209, 210, 211, 212, 213, 214],
      "AcquisitionTime": ["105615.072500", "105616.572500", "105618.072500", "105619.572500", "105621.072500", "105622.572500", "105624.072500", "105625.572500", "105627.072500", "105628.572500", "105630.072500", "105631.572500", "105633.072500", "105634.572500", "105636.072500", "105637.572500", "105639.072500", "105640.572500", "105642.072500", "105643.572500", "105645.072500", "105646.572500", "105648.072500", "105649.572500", "105651.072500", "105652.572500", "105654.072500", "105655.572500", "105657.072500", "105658.572500", "105700.072500", "105701.572500", "105703.072500", "105704.572500", "105706.072500", "105707.572500", "105709.072500", "105710.572500", "105712.072500", "105713.572500", "105715.072500", "105716.572500", "105718.072500", "105719.572500", "105721.072500", "105722.572500", "105724.072500", "105725.572500", "105727.072500", "105728.572500", "105730.072500", "105731.572500", "105733.072500", "105734.572500", "105736.072500", "105737.572500", "105739.072500", "105740.572500", "105742.072500", "105743.572500", "105745.072500", "105746.572500", "105748.072500", "105749.572500", "105751.072500", "105752.572500", "105754.072500", "105755.572500", "105757.072500", "105758.572500", "105800.072500", "105801.572500", "105803.072500", "105804.572500", "105806.072500", "105807.572500", "105809.072500", "105810.572500", "105812.072500", "105813.572500", "105815.072500", "105816.572500", "105818.072500", "105819.572500", "105821.072500", "105822.572500", "105824.072500", "105825.572500", "105827.072500", "105828.572500", "105830.072500", "105831.572500", "105833.072500", "105834.572500", "105836.072500", "105837.572500", "105839.072500", "105840.572500", "105842.072500", "105843.572500", "105845.072500", "105846.572500", "105848.072500", "105849.572500", "105851.072500", "105852.572500", "105854.072500", "105855.572500", "105857.072500", "105858.572500", "105900.072500", "105901.572500", "105903.072500", "105904.572500", "105906.072500", "105907.572500", "105909.072500", "105910.572500", "105912.072500", "105913.572500", "105915.072500", "105916.572500", "105918.072500", "105919.572500", "105921.072500", "105922.572500", "105924.072500", "105925.572500", "105927.072500", "105928.572500", "105930.072500", "105931.572500", "105933.072500", "105934.572500", "105936.072500", "105937.572500", "105939.072500", "105940.572500", "105942.072500", "105943.572500", "105945.072500", "105946.572500", "105948.072500", "105949.572500", "105951.072500", "105952.572500", "105954.072500", "105955.572500", "105957.072500", "105958.572500", "110000.072500", "110001.572500", "110003.072500", "110004.572500", "110006.072500", "110007.572500", "110009.072500", "110010.572500", "110012.072500", "110013.572500", "110015.072500", "110016.572500", "110018.072500", "110019.572500", "110021.072500", "110022.572500", "110024.072500", "110025.572500", "110027.072500", "110028.572500", "110030.072500", "110031.572500", "110033.072500", "110034.572500", "110036.072500", "110037.572500", "110039.072500", "110040.572500", "110042.072500", "110043.572500", "110045.072500", "110046.572500", "110048.072500", "110049.572500", "110051.072500", "110052.572500", "110054.072500", "110055.572500", "110057.072500", "110058.572500", "110100.072500", "110101.572500", "110103.072500", "110104.572500", "110106.072500", "110107.572500", "110109.072500", "110110.572500", "110112.072500", "110113.572500", "110115.072500", "110116.572500", "110118.072500", "110119.572500", "110121.072500", "110122.572500", "110124.072500", "110125.572500", "110127.072500", "110128.572500", "110130.072500", "110131.572500", "110133.072500", "110134.572500"],
      "ContentTime": ["105703.364000", "105703.368000", "105703.378000", "105703.381000", "105703.384000", "105703.387000", "105703.390000", "105703.393000", "105703.400000", "105703.403000", "105703.406000", "105703.409000", "105703.412000", "105703.415000", "105703.418000", "105703.421000", "105703.424000", "105703.428000", "105703.441000", "105703.444000", "105703.447000", "105703.450000", "105703.453000", "105703.456000", "105703.459000", "105703.462000", "105703.465000", "105703.468000", "105703.471000", "105703.474000", "105703.477000", "105703.480000", "105743.360000", "105743.363000", "105743.366000", "105743.369000", "105743.372000", "105743.391000", "105743.394000", "105743.397000", "105743.400000", "105743.403000", "105743.406000", "105743.409000", "105743.412000", "105743.419000", "105743.422000", "105743.425000", "105743.428000", "105743.431000", "105743.434000", "105743.437000", "105743.440000", "105743.443000", "105743.446000", "105743.449000", "105743.452000", "105743.455000", "105743.458000", "105823.359000", "105823.362000", "105823.365000", "105823.368000", "105823.371000", "105823.374000", "105823.377000", "105823.380000", "105823.383000", "105823.386000", "105823.389000", "105823.392000", "105823.395000", "105823.398000", "105823.401000", "105823.404000", "105823.407000", "105823.410000", "105823.413000", "105823.417000", "105823.420000", "105823.423000", "105823.426000", "105823.429000", "105823.432000", "105823.435000", "105903.359000", "105903.362000", "105903.365000", "105903.368000", "105903.371000", "105903.374000", "105903.377000", "105903.380000", "105903.383000", "105903.386000", "105903.389000", "105903.392000", "105903.395000", "105903.398000", "105903.401000", "105903.404000", "105903.407000", "105903.410000", "105903.413000", "105903.416000", "105903.419000", "105903.422000", "105903.425000", "105903.428000", "105903.431000", "105903.434000", "105903.437000", "105943.360000", "105943.363000", "105943.366000", "105943.369000", "105943.372000", "105943.375000", "105943.378000", "105943.381000", "105943.384000", "105943.387000", "105943.390000", "105943.393000", "105943.396000", "105943.399000", "105943.402000", "105943.405000", "105943.408000", "105943.411000", "105943.414000", "105943.417000", "105943.420000", "105943.423000", "105943.427000", "105943.429000", "105943.433000", "105943.436000", "105943.439000", "110023.360000", "110023.363000", "110023.366000", "110023.369000", "110023.372000", "110023.375000", "110023.378000", "110023.381000", "110023.384000", "110023.387000", "110023.390000", "110023.393000", "110023.396000", "110023.399000", "110023.402000", "110023.405000", "110023.408000", "110023.411000", "110023.414000", "110023.418000", "110023.421000", "110023.423000", "110023.426000", "110023.430000", "110023.433000", "110023.436000", "110103.359000", "110103.362000", "110103.365000", "110103.368000", "110103.371000", "110103.374000", "110103.377000", "110103.380000", "110103.384000", "110103.387000", "110103.390000", "110103.393000", "110103.396000", "110103.399000", "110103.402000", "110103.405000", "110103.408000", "110103.411000", "110103.414000", "110103.417000", "110103.420000", "110103.423000", "110103.426000", "110103.429000", "110103.432000", "110103.435000", "110103.438000", "110135.445000", "110135.449000", "110135.452000", "110135.455000", "110135.458000", "110135.462000", "110135.465000", "110135.468000", "110135.471000", "110135.474000", "110135.477000", "110135.480000", "110135.483000", "110135.486000", "110135.489000", "110135.493000", "110135.496000", "110135.499000", "110135.502000", "110135.506000", "110135.509000", "110135.512000"],
      "InstanceCreationTime": ["105703.364000", "105703.368000", "105703.378000", "105703.381000", "105703.384000", "105703.387000", "105703.390000", "105703.393000", "105703.400000", "105703.403000", "105703.406000", "105703.409000", "105703.412000", "105703.415000", "105703.418000", "105703.421000", "105703.424000", "105703.428000", "105703.441000", "105703.444000", "105703.447000", "105703.450000", "105703.453000", "105703.456000", "105703.459000", "105703.462000", "105703.465000", "105703.468000", "105703.471000", "105703.474000", "105703.477000", "105703.480000", "105743.360000", "105743.363000", "105743.366000", "105743.369000", "105743.372000", "105743.391000", "105743.394000", "105743.397000", "105743.400000", "105743.403000", "105743.406000", "105743.409000", "105743.412000", "105743.419000", "105743.422000", "105743.425000", "105743.428000", "105743.431000", "105743.434000", "105743.437000", "105743.440000", "105743.443000", "105743.446000", "105743.449000", "105743.452000", "105743.455000", "105743.458000", "105823.359000", "105823.362000", "105823.365000", "105823.368000", "105823.371000", "105823.374000", "105823.377000", "105823.380000", "105823.383000", "105823.386000", "105823.389000", "105823.392000", "105823.395000", "105823.398000", "105823.401000", "105823.404000", "105823.407000", "105823.410000", "105823.413000", "105823.417000", "105823.420000", "105823.423000", "105823.426000", "105823.429000", "105823.432000", "105823.435000", "105903.359000", "105903.362000", "105903.365000", "105903.368000", "105903.371000", "105903.374000", "105903.377000", "105903.380000", "105903.383000", "105903.386000", "105903.389000", "105903.392000", "105903.395000", "105903.398000", "105903.401000", "105903.404000", "105903.407000", "105903.410000", "105903.413000", "105903.416000", "105903.419000", "105903.422000", "105903.425000", "105903.428000", "105903.431000", "105903.434000", "105903.437000", "105943.360000", "105943.363000", "105943.366000", "105943.369000", "105943.372000", "105943.375000", "105943.378000", "105943.381000", "105943.384000", "105943.387000", "105943.390000", "105943.393000", "105943.396000", "105943.399000", "105943.402000", "105943.405000", "105943.408000", "105943.411000", "105943.414000", "105943.417000", "105943.420000", "105943.423000", "105943.427000", "105943.429000", "105943.433000", "105943.436000", "105943.439000", "110023.360000", "110023.363000", "110023.366000", "110023.369000", "110023.372000", "110023.375000", "110023.378000", "110023.381000", "110023.384000", "110023.387000", "110023.390000", "110023.393000", "110023.396000", "110023.399000", "110023.402000", "110023.405000", "110023.408000", "110023.411000", "110023.414000", "110023.418000", "110023.421000", "110023.423000", "110023.426000", "110023.430000", "110023.433000", "110023.436000", "110103.359000", "110103.362000", "110103.365000", "110103.368000", "110103.371000", "110103.374000", "110103.377000", "110103.380000", "110103.384000", "110103.387000", "110103.390000", "110103.393000", "110103.396000", "110103.399000", "110103.402000", "110103.405000", "110103.408000", "110103.411000", "110103.414000", "110103.417000", "110103.420000", "110103.423000", "110103.426000", "110103.429000", "110103.432000", "110103.435000", "110103.438000", "110135.445000", "110135.449000", "110135.452000", "110135.455000", "110135.458000", "110135.462000", "110135.465000", "110135.468000", "110135.471000", "110135.474000", "110135.477000", "110135.480000", "110135.483000", "110135.486000", "110135.489000", "110135.493000", "110135.496000", "110135.499000", "110135.502000", "110135.506000", "110135.509000", "110135.512000"],
      "InstanceNumber": [1, 2, 3, 4, 5, 6, 7, 8, 9, 10, 11, 12, 13, 14, 15, 16, 17, 18, 19, 20, 21, 22, 23, 24, 25, 26, 27, 28, 29, 30, 31, 32, 33, 34, 35, 36, 37, 38, 39, 40, 41, 42, 43, 44, 45, 46, 47, 48, 49, 50, 51, 52, 53, 54, 55, 56, 57, 58, 59, 60, 61, 62, 63, 64, 65, 66, 67, 68, 69, 70, 71, 72, 73, 74, 75, 76, 77, 78, 79, 80, 81, 82, 83, 84, 85, 86, 87, 88, 89, 90, 91, 92, 93, 94, 95, 96, 97, 98, 99, 100, 101, 102, 103, 104, 105, 106, 107, 108, 109, 110, 111, 112, 113, 114, 115, 116, 117, 118, 119, 120, 121, 122, 123, 124, 125, 126, 127, 128, 129, 130, 131, 132, 133, 134, 135, 136, 137, 138, 139, 140, 141, 142, 143, 144, 145, 146, 147, 148, 149, 150, 151, 152, 153, 154, 155, 156, 157, 158, 159, 160, 161, 162, 163, 164, 165, 166, 167, 168, 169, 170, 171, 172, 173, 174, 175, 176, 177, 178, 179, 180, 181, 182, 183, 184, 185, 186, 187, 188, 189, 190, 191, 192, 193, 194, 195, 196, 197, 198, 199, 200, 201, 202, 203, 204, 205, 206, 207, 208, 209, 210, 211, 212, 213, 214],
      "LargestImagePixelValue": [2588, 2552, 2500, 2492, 2509, 2503, 2507, 2526, 2514, 2540, 2528, 2507, 2521, 2483, 2492, 2515, 2505, 2531, 2548, 2540, 2562, 2533, 2535, 2533, 2547, 2536, 2558, 2554, 2568, 2586, 2545, 2547, 2540, 2543, 2546, 2568, 2573, 2541, 2558, 2546, 2540, 2536, 2548, 2573, 2581, 2556, 2581, 2566, 2547, 2547, 2539, 2543, 2530, 2506, 2491, 2491, 2478, 2578, 2559, 2547, 2528, 2497, 2519, 2546, 2539, 2533, 2516, 2528, 2528, 2514, 2506, 2518, 2503, 2522, 2510, 2533, 2513, 2540, 2522, 2549, 2543, 2536, 2511, 2531, 2525, 2520, 2530, 2523, 2549, 2526, 2545, 2495, 2505, 2507, 2554, 2505, 2510, 2490, 2544, 2502, 2493, 2521, 2570, 2531, 2498, 2522, 2555, 2483, 2495, 2456, 2518, 2496, 2454, 2444, 2531, 2506, 2498, 2458, 2537, 2462, 2499, 2513, 2549, 2454, 2471, 2483, 2473, 2492, 2506, 2487, 2435, 2496, 2469, 2469, 2471, 2498, 2515, 2480, 2515, 2492, 2522, 2515, 2493, 2504, 2535, 2490, 2449, 2445, 2471, 2532, 2452, 2484, 2469, 2443, 2475, 2479, 2497, 2436, 2465, 2453, 2438, 2442, 2513, 2487, 2445, 2474, 2419, 2526, 2642, 2578, 2603, 2475, 2520, 2472, 2537, 2504, 2505, 2484, 2492, 2484, 2509, 2495, 2544, 2604, 2572, 2572, 2540, 2543, 2498, 2510, 2523, 2536, 2495, 2483, 2496, 2519, 2476, 2453, 2455, 2501, 2439, 2445, 2474, 2464, 2524, 2500, 2465, 2514, 2470, 2476, 2501, 2517, 2605, 2514],
      "WindowCenter": [710.0, 708.0, 707.0, 707.0, 707.0, 707.0, 707.0, 708.0, 708.0, 708.0, 707.0, 707.0, 707.0, 707.0, 707.0, 707.0, 707.0, 707.0, 707.0, 707.0, 707.0, 706.0, 707.0, 707.0, 706.0, 706.0, 707.0, 707.0, 707.0, 707.0, 707.0, 707.0, 706.0, 707.0, 707.0, 706.0, 707.0, 708.0, 708.0, 707.0, 707.0, 707.0, 707.0, 707.0, 709.0, 707.0, 706.0, 705.0, 705.0, 705.0, 705.0, 705.0, 705.0, 706.0, 706.0, 707.0, 707.0, 709.0, 706.0, 705.0, 705.0, 705.0, 705.0, 706.0, 707.0, 707.0, 706.0, 705.0, 706.0, 706.0, 706.0, 707.0, 706.0, 706.0, 706.0, 706.0, 706.0, 706.0, 706.0, 706.0, 706.0, 706.0, 705.0, 705.0, 705.0, 705.0, 705.0, 705.0, 706.0, 706.0, 706.0, 706.0, 706.0, 705.0, 706.0, 705.0, 706.0, 706.0, 706.0, 706.0, 706.0, 705.0, 706.0, 705.0, 705.0, 705.0, 705.0, 705.0, 705.0, 705.0, 705.0, 705.0, 705.0, 705.0, 705.0, 705.0, 705.0, 704.0, 705.0, 704.0, 705.0, 705.0, 704.0, 703.0, 704.0, 704.0, 704.0, 704.0, 705.0, 705.0, 704.0, 705.0, 704.0, 704.0, 703.0, 703.0, 704.0, 703.0, 703.0, 703.0, 703.0, 704.0, 704.0, 703.0, 703.0, 702.0, 702.0, 701.0, 702.0, 702.0, 701.0, 702.0, 702.0, 702.0, 703.0, 703.0, 702.0, 702.0, 703.0, 702.0, 703.0, 703.0, 703.0, 703.0, 705.0, 705.0, 703.0, 703.0, 702.0, 706.0, 705.0, 703.0, 704.0, 704.0, 704.0, 703.0, 704.0, 704.0, 705.0, 704.0, 705.0, 705.0, 705.0, 705.0, 705.0, 705.0, 704.0, 703.0, 702.0, 703.0, 703.0, 702.0, 701.0, 701.0, 701.0, 701.0, 701.0, 701.0, 702.0, 702.0, 701.0, 701.0, 701.0, 701.0, 702.0, 702.0, 703.0, 703.0, 703.0, 702.0, 702.0, 703.0, 703.0, 703.0],
      "WindowWidth": [1537.0, 1531.0, 1529.0, 1529.0, 1528.0, 1528.0, 1529.0, 1531.0, 1532.0, 1532.0, 1530.0, 1528.0, 1528.0, 1527.0, 1529.0, 1528.0, 1528.0, 1528.0, 1529.0, 1529.0, 1528.0, 1527.0, 1527.0, 1528.0, 1526.0, 1526.0, 1528.0, 1529.0, 1529.0, 1529.0, 1528.0, 1527.0, 1526.0, 1528.0, 1528.0, 1527.0, 1529.0, 1530.0, 1531.0, 1530.0, 1527.0, 1528.0, 1529.0, 1529.0, 1533.0, 1530.0, 1525.0, 1524.0, 1523.0, 1523.0, 1522.0, 1522.0, 1523.0, 1524.0, 1525.0, 1528.0, 1529.0, 1534.0, 1526.0, 1524.0, 1523.0, 1522.0, 1523.0, 1526.0, 1528.0, 1528.0, 1525.0, 1524.0, 1524.0, 1526.0, 1526.0, 1527.0, 1526.0, 1526.0, 1526.0, 1526.0, 1526.0, 1526.0, 1524.0, 1525.0, 1527.0, 1525.0, 1523.0, 1523.0, 1523.0, 1524.0, 1524.0, 1524.0, 1526.0, 1526.0, 1526.0, 1525.0, 1524.0, 1523.0, 1525.0, 1523.0, 1525.0, 1525.0, 1525.0, 1525.0, 1525.0, 1524.0, 1525.0, 1523.0, 1523.0, 1523.0, 1524.0, 1523.0, 1522.0, 1522.0, 1524.0, 1523.0, 1522.0, 1522.0, 1524.0, 1522.0, 1522.0, 1521.0, 1523.0, 1521.0, 1522.0, 1523.0, 1521.0, 1518.0, 1520.0, 1521.0, 1520.0, 1521.0, 1523.0, 1524.0, 1521.0, 1522.0, 1520.0, 1520.0, 1518.0, 1518.0, 1519.0, 1518.0, 1517.0, 1519.0, 1519.0, 1520.0, 1521.0, 1517.0, 1517.0, 1516.0, 1515.0, 1513.0, 1514.0, 1514.0, 1514.0, 1515.0, 1516.0, 1516.0, 1517.0, 1517.0, 1516.0, 1516.0, 1517.0, 1516.0, 1517.0, 1517.0, 1519.0, 1518.0, 1524.0, 1523.0, 1516.0, 1518.0, 1515.0, 1527.0, 1523.0, 1518.0, 1519.0, 1520.0, 1520.0, 1518.0, 1519.0, 1521.0, 1522.0, 1521.0, 1523.0, 1523.0, 1523.0, 1523.0, 1524.0, 1524.0, 1519.0, 1517.0, 1515.0, 1517.0, 1517.0, 1516.0, 1513.0, 1512.0, 1513.0, 1513.0, 1512.0, 1513.0, 1513.0, 1514.0, 1513.0, 1511.0, 1512.0, 1512.0, 1513.0, 1516.0, 1517.0, 1518.0, 1517.0, 1515.0, 1515.0, 1518.0, 1518.0, 1516.0]
    },
    "slices": {}
  }
}