{
  "AcquisitionMatrixPE": 72,
  "AcquisitionNumber": 1,
  "AcquisitionTime": "11:02:55.635000",
  "BandwidthPerPixelPhaseEncode": 17.943,
  "BaseResolution": 96,
  "BodyPartExamined": "BRAIN",
  "CoilCombinationMethod": "Sum of Squares",
  "ConsistencyInfo": "N4_VE11C_LATEST_20160120",
  "ConversionSoftware": "dcm2niix",
  "ConversionSoftwareVersion": "v1.0.20211006",
  "DerivedVendorReportedEchoSpacing": 0.000552897,
  "DeviceSerialNumber": "166011",
  "EchoTime": 0.03,
  "EchoTrainLength": 58,
  "EffectiveEchoSpacing": 0.000580542,
  "FlipAngle": 62,
  "ImageOrientationPatientDICOM": [0.99959, -0.0234206, 0.0164559, 0.0251278, 0.99332, -0.112626],
  "ImageType": [
    "ORIGINAL",
    "PRIMARY",
    "M",
    "ND",
    "MOSAIC"
],
  "ImagingFrequency": 123.26,
  "InPlanePhaseEncodingDirectionDICOM": "COL",
  "InstitutionAddress": "West 130th Street 610,NY,NYC,US,10025",
  "InstitutionName": "MBBI",
  "MRAcquisitionType": "2D",
  "MagneticFieldStrength": 3,
  "Manufacturer": "Siemens",
  "ManufacturersModelName": "Prisma",
  "Modality": "MR",
  "MultibandAccelerationFactor": 3,
  "PartialFourier": 0.75,
  "PatientPosition": "HFS",
  "PercentPhaseFOV": 100,
  "PercentSampling": 75,
  "PhaseEncodingDirection": "j-",
  "PhaseEncodingSteps": 58,
  "PhaseOversampling": 0.05,
  "PhaseResolution": 0.75,
  "PixelBandwidth": 2265,
  "ProcedureStepDescription": "White^Word_recognition",
  "ProtocolName": "func_vwfate_run5",
  "PulseSequenceDetails": "%SiemensSeq%\\ep2d_bold",
  "ReceiveCoilActiveElements": "HC1-6",
  "ReceiveCoilName": "HeadNeck_64",
  "ReconMatrixPE": 96,
  "RefLinesPE": 40,
  "RepetitionTime": 1.5,
  "SAR": 0.0463317,
  "ScanOptions": "PFP\\FS",
  "ScanningSequence": "EP",
  "SequenceName": "*epfid2d1_72",
  "SequenceVariant": "SK\\OSP",
  "SeriesDescription": "func_vwfate_run5",
  "SeriesNumber": 14,
  "ShimSetting": [-1143, -1360, 652, 538, -47, -117, -24, 20],
  "SliceThickness": 2,
  "SliceTiming": [1.075, 0, 0.74, 0.0675, 0.8075, 0.1325, 0.8725, 0.2, 0.94, 0.2675, 1.0075, 0.4025, 1.1425, 0.47, 1.21, 0.5375, 1.2775, 0.605, 1.345, 0.6725, 1.4125, 0.335, 1.075, 0, 0.74, 0.0675, 0.8075, 0.1325, 0.8725, 0.2, 0.94, 0.2675, 1.0075, 0.4025, 1.1425, 0.47, 1.21, 0.5375, 1.2775, 0.605, 1.345, 0.6725, 1.4125, 0.335, 1.075, 0, 0.74, 0.0675, 0.8075, 0.1325, 0.8725, 0.2, 0.94, 0.2675, 1.0075, 0.4025, 1.1425, 0.47, 1.21, 0.5375, 1.2775, 0.605, 1.345, 0.6725, 1.4125, 0.335],
  "SoftwareVersions": "syngo MR E11",
  "SpacingBetweenSlices": 2,
  "StationName": "AWP166011",
  "TaskName": "vwfate",
  "TotalReadoutTime": 0.0551515,
  "TxRefAmp": 217.339,
  "dcmmeta_affine": [
    [-1.999180555343628, 0.050255581736564636, 0.027416354045271873, 97.20365142822266],
    [0.04684118181467056, 1.986639380455017, -0.22598682343959808, -77.7950668334961],
    [0.0329117551445961, 0.22525212168693542, 1.9870022535324097, -74.20406341552734],
    [0.0, 0.0, 0.0, 1.0]
],
  "dcmmeta_reorient_transform": [
    [0.0, -1.0, 0.0, 95.0],
    [1.0, 0.0, 0.0, 0.0],
    [0.0, 0.0, 1.0, 0.0],
    [0.0, 0.0, 0.0, 1.0]
],
  "dcmmeta_shape": [96, 96, 66, 164],
  "dcmmeta_slice_dim": 2,
  "dcmmeta_version": 0.6,
  "global": {
    "const": {
      "AcquisitionMatrix": [96, 0, 0, 72],
      "AngioFlag": "N",
      "BitsAllocated": 16,
      "BitsStored": 12,
      "BodyPartExamined": "BRAIN",
      "Columns": 864,
      "EchoNumbers": 1,
      "EchoTime": 30.0,
      "EchoTrainLength": 58,
      "FlipAngle": 62.0,
      "HighBit": 11,
      "ImageOrientationPatient": [0.99959025606695, -0.0234205908023, 0.01645587744476, 0.02512779013937, 0.99331966867557, -0.1126260626364],
      "ImagePositionPatient": [-888.96139313342, -855.81816262695, 21.053591122486],
      "ImageType": [
        "ORIGINAL",
        "PRIMARY",
        "M",
        "ND",
        "MOSAIC"
],
      "ImagedNucleus": "1H",
      "ImagingFrequency": 123.259543,
      "InPlanePhaseEncodingDirection": "COL",
      "MRAcquisitionType": "2D",
      "MagneticFieldStrength": 3.0,
      "Manufacturer": "SIEMENS",
      "ManufacturerModelName": "Prisma",
      "Modality": "MR",
      "NumberOfAverages": 1.0,
      "NumberOfPhaseEncodingSteps": 58,
      "PercentPhaseFieldOfView": 100.0,
      "PercentSampling": 75.0,
      "PerformedProcedureStepStartTime": "100137.435000",
      "PhotometricInterpretation": "MONOCHROME2",
      "PixelBandwidth": 2265.0,
      "PixelRepresentation": 0,
      "PixelSpacing": [2.0, 2.0],
      "ProtocolName": "func_vwfate_run5",
      "RepetitionTime": 1500.0,
      "Rows": 864,
      "SAR": 0.04633170319587,
      "SamplesPerPixel": 1,
      "ScanOptions": [
        "PFP",
        "FS"
],
      "ScanningSequence": "EP",
      "SequenceName": "*epfid2d1_72",
      "SequenceVariant": [
        "SK",
        "OSP"
],
      "SeriesDescription": "func_vwfate_run5",
      "SeriesNumber": 14,
      "SeriesTime": "110303.212000",
      "SliceLocation": -63.599008249609,
      "SliceThickness": 2.0,
      "SmallestImagePixelValue": 0,
      "SoftwareVersions": "syngo MR E11",
      "SpacingBetweenSlices": 1.9999999321199,
      "SpecificCharacterSet": "ISO_IR 100",
      "StudyID": "1",
      "StudyTime": "100137.340000",
      "TransmitCoilName": "Body",
      "VariableFlipAngleFlag": "N",
      "WindowCenterWidthExplanation": "Algo1",
      "dBdt": 0.0},
    "slices": {}
  },
  "time": {
    "samples": {
      "AcquisitionNumber": [1, 2, 3, 4, 5, 6, 7, 8, 9, 10, 11, 12, 13, 14, 15, 16, 17, 18, 19, 20, 21, 22, 23, 24, 25, 26, 27, 28, 29, 30, 31, 32, 33, 34, 35, 36, 37, 38, 39, 40, 41, 42, 43, 44, 45, 46, 47, 48, 49, 50, 51, 52, 53, 54, 55, 56, 57, 58, 59, 60, 61, 62, 63, 64, 65, 66, 67, 68, 69, 70, 71, 72, 73, 74, 75, 76, 77, 78, 79, 80, 81, 82, 83, 84, 85, 86, 87, 88, 89, 90, 91, 92, 93, 94, 95, 96, 97, 98, 99, 100, 101, 102, 103, 104, 105, 106, 107, 108, 109, 110, 111, 112, 113, 114, 115, 116, 117, 118, 119, 120, 121, 122, 123, 124, 125, 126, 127, 128, 129, 130, 131, 132, 133, 134, 135, 136, 137, 138, 139, 140, 141, 142, 143, 144, 145, 146, 147, 148, 149, 150, 151, 152, 153, 154, 155, 156, 157, 158, 159, 160, 161, 162, 163, 164],
      "AcquisitionTime": ["110255.635000", "110257.135000", "110258.635000", "110300.135000", "110301.635000", "110303.135000", "110304.635000", "110306.135000", "110307.635000", "110309.135000", "110310.635000", "110312.135000", "110313.635000", "110315.135000", "110316.635000", "110318.135000", "110319.635000", "110321.135000", "110322.635000", "110324.135000", "110325.635000", "110327.135000", "110328.635000", "110330.135000", "110331.635000", "110333.135000", "110334.635000", "110336.135000", "110337.635000", "110339.135000", "110340.635000", "110342.135000", "110343.635000", "110345.135000", "110346.635000", "110348.135000", "110349.635000", "110351.135000", "110352.635000", "110354.135000", "110355.635000", "110357.135000", "110358.635000", "110400.135000", "110401.635000", "110403.135000", "110404.635000", "110406.135000", "110407.635000", "110409.135000", "110410.635000", "110412.135000", "110413.635000", "110415.135000", "110416.635000", "110418.135000", "110419.635000", "110421.135000", "110422.635000", "110424.135000", "110425.635000", "110427.135000", "110428.635000", "110430.135000", "110431.635000", "110433.135000", "110434.635000", "110436.135000", "110437.635000", "110439.135000", "110440.635000", "110442.135000", "110443.635000", "110445.135000", "110446.635000", "110448.135000", "110449.635000", "110451.135000", "110452.635000", "110454.135000", "110455.635000", "110457.135000", "110458.635000", "110500.135000", "110501.635000", "110503.135000", "110504.635000", "110506.135000", "110507.635000", "110509.135000", "110510.635000", "110512.135000", "110513.635000", "110515.135000", "110516.635000", "110518.135000", "110519.635000", "110521.135000", "110522.635000", "110524.135000", "110525.635000", "110527.135000", "110528.635000", "110530.135000", "110531.635000", "110533.135000", "110534.635000", "110536.135000", "110537.635000", "110539.135000", "110540.635000", "110542.135000", "110543.635000", "110545.135000", "110546.635000", "110548.135000", "110549.635000", "110551.135000", "110552.635000", "110554.135000", "110555.635000", "110557.135000", "110558.635000", "110600.135000", "110601.635000", "110603.135000", "110604.635000", "110606.135000", "110607.635000", "110609.135000", "110610.635000", "110612.135000", "110613.635000", "110615.135000", "110616.635000", "110618.135000", "110619.635000", "110621.135000", "110622.635000", "110624.135000", "110625.635000", "110627.135000", "110628.635000", "110630.135000", "110631.635000", "110633.135000", "110634.635000", "110636.135000", "110637.635000", "110639.135000", "110640.635000", "110642.135000", "110643.635000", "110645.135000", "110646.635000", "110648.135000", "110649.635000", "110651.135000", "110652.635000", "110654.135000", "110655.635000", "110657.135000", "110658.635000", "110700.135000"],
      "ContentTime": ["110303.216000", "110303.220000", "110303.223000", "110303.234000", "110303.237000", "110343.211000", "110343.214000", "110343.217000", "110343.227000", "110343.230000", "110343.233000", "110343.236000", "110343.239000", "110343.242000", "110343.245000", "110343.248000", "110343.252000", "110343.255000", "110343.258000", "110343.261000", "110343.264000", "110343.267000", "110343.270000", "110343.273000", "110343.276000", "110343.279000", "110343.282000", "110343.285000", "110343.288000", "110343.291000", "110343.294000", "110343.297000", "110423.212000", "110423.215000", "110423.218000", "110423.221000", "110423.224000", "110423.227000", "110423.230000", "110423.233000", "110423.248000", "110423.251000", "110423.255000", "110423.258000", "110423.261000", "110423.264000", "110423.267000", "110423.270000", "110423.273000", "110423.276000", "110423.279000", "110423.282000", "110423.285000", "110423.288000", "110423.291000", "110423.293000", "110423.296000", "110423.299000", "110503.212000", "110503.215000", "110503.218000", "110503.221000", "110503.224000", "110503.227000", "110503.230000", "110503.233000", "110503.236000", "110503.239000", "110503.242000", "110503.245000", "110503.248000", "110503.252000", "110503.255000", "110503.258000", "110503.261000", "110503.264000", "110503.267000", "110503.270000", "110503.273000", "110503.276000", "110503.279000", "110503.282000", "110503.285000", "110503.288000", "110503.291000", "110543.211000", "110543.214000", "110543.217000", "110543.220000", "110543.223000", "110543.226000", "110543.229000", "110543.232000", "110543.235000", "110543.238000", "110543.241000", "110543.244000", "110543.247000", "110543.250000", "110543.276000", "110543.279000", "110543.282000", "110543.285000", "110543.288000", "110543.291000", "110543.294000", "110543.297000", "110543.300000", "110543.303000", "110543.306000", "110543.309000", "110543.312000", "110623.212000", "110623.215000", "110623.218000", "110623.221000", "110623.224000", "110623.227000", "110623.230000", "110623.233000", "110623.236000", "110623.239000", "110623.242000", "110623.245000", "110623.249000", "110623.252000", "110623.255000", "110623.258000", "110623.261000", "110623.264000", "110623.271000", "110623.274000", "110623.277000", "110623.280000", "110623.283000", "110623.286000", "110623.289000", "110623.292000", "110700.946000", "110700.950000", "110700.953000", "110700.956000", "110700.960000", "110700.963000", "110700.966000", "110700.969000", "110700.972000", "110700.976000", "110700.979000", "110700.982000", "110700.985000", "110700.988000", "110700.991000", "110700.994000", "110700.997000", "110701.001000", "110701.004000", "110701.008000", "110701.011000", "110701.014000", "110701.017000", "110701.021000", "110701.024000", "110701.027000"],
      "InstanceCreationTime": ["110303.216000", "110303.220000", "110303.223000", "110303.234000", "110303.237000", "110343.211000", "110343.214000", "110343.217000", "110343.227000", "110343.230000", "110343.233000", "110343.236000", "110343.239000", "110343.242000", "110343.245000", "110343.248000", "110343.252000", "110343.255000", "110343.258000", "110343.261000", "110343.264000", "110343.267000", "110343.270000", "110343.273000", "110343.276000", "110343.279000", "110343.282000", "110343.285000", "110343.288000", "110343.291000", "110343.294000", "110343.297000", "110423.212000", "110423.215000", "110423.218000", "110423.221000", "110423.224000", "110423.227000", "110423.230000", "110423.233000", "110423.248000", "110423.251000", "110423.255000", "110423.258000", "110423.261000", "110423.264000", "110423.267000", "110423.270000", "110423.273000", "110423.276000", "110423.279000", "110423.282000", "110423.285000", "110423.288000", "110423.291000", "110423.293000", "110423.296000", "110423.299000", "110503.212000", "110503.215000", "110503.218000", "110503.221000", "110503.224000", "110503.227000", "110503.230000", "110503.233000", "110503.236000", "110503.239000", "110503.242000", "110503.245000", "110503.248000", "110503.252000", "110503.255000", "110503.258000", "110503.261000", "110503.264000", "110503.267000", "110503.270000", "110503.273000", "110503.276000", "110503.279000", "110503.282000", "110503.285000", "110503.288000", "110503.291000", "110543.211000", "110543.214000", "110543.217000", "110543.220000", "110543.223000", "110543.226000", "110543.229000", "110543.232000", "110543.235000", "110543.238000", "110543.241000", "110543.244000", "110543.247000", "110543.250000", "110543.276000", "110543.279000", "110543.282000", "110543.285000", "110543.288000", "110543.291000", "110543.294000", "110543.297000", "110543.300000", "110543.303000", "110543.306000", "110543.309000", "110543.312000", "110623.212000", "110623.215000", "110623.218000", "110623.221000", "110623.224000", "110623.227000", "110623.230000", "110623.233000", "110623.236000", "110623.239000", "110623.242000", "110623.245000", "110623.249000", "110623.252000", "110623.255000", "110623.258000", "110623.261000", "110623.264000", "110623.271000", "110623.274000", "110623.277000", "110623.280000", "110623.283000", "110623.286000", "110623.289000", "110623.292000", "110700.946000", "110700.950000", "110700.953000", "110700.956000", "110700.960000", "110700.963000", "110700.966000", "110700.969000", "110700.972000", "110700.976000", "110700.979000", "110700.982000", "110700.985000", "110700.988000", "110700.991000", "110700.994000", "110700.997000", "110701.001000", "110701.004000", "110701.008000", "110701.011000", "110701.014000", "110701.017000", "110701.021000", "110701.024000", "110701.027000"],
      "InstanceNumber": [1, 2, 3, 4, 5, 6, 7, 8, 9, 10, 11, 12, 13, 14, 15, 16, 17, 18, 19, 20, 21, 22, 23, 24, 25, 26, 27, 28, 29, 30, 31, 32, 33, 34, 35, 36, 37, 38, 39, 40, 41, 42, 43, 44, 45, 46, 47, 48, 49, 50, 51, 52, 53, 54, 55, 56, 57, 58, 59, 60, 61, 62, 63, 64, 65, 66, 67, 68, 69, 70, 71, 72, 73, 74, 75, 76, 77, 78, 79, 80, 81, 82, 83, 84, 85, 86, 87, 88, 89, 90, 91, 92, 93, 94, 95, 96, 97, 98, 99, 100, 101, 102, 103, 104, 105, 106, 107, 108, 109, 110, 111, 112, 113, 114, 115, 116, 117, 118, 119, 120, 121, 122, 123, 124, 125, 126, 127, 128, 129, 130, 131, 132, 133, 134, 135, 136, 137, 138, 139, 140, 141, 142, 143, 144, 145, 146, 147, 148, 149, 150, 151, 152, 153, 154, 155, 156, 157, 158, 159, 160, 161, 162, 163, 164],
      "LargestImagePixelValue": [2622, 2442, 2448, 2442, 2437, 2410, 2421, 2421, 2446, 2433, 2431, 2475, 2420, 2462, 2434, 2463, 2403, 2455, 2431, 2411, 2415, 2448, 2451, 2407, 2464, 2417, 2454, 2401, 2488, 2417, 2413, 2468, 2439, 2400, 2454, 2448, 2431, 2416, 2396, 2415, 2402, 2420, 2423, 2496, 2444, 2453, 2396, 2460, 2426, 2441, 2413, 2463, 2392, 2423, 2421, 2394, 2435, 2422, 2431, 2444, 2405, 2426, 2395, 2443, 2403, 2405, 2392, 2430, 2392, 2407, 2386, 2394, 2416, 2396, 2438, 2424, 2406, 2441, 2450, 2416, 2432, 2407, 2445, 2428, 2450, 2457, 2391, 2453, 2482, 2430, 2409, 2409, 2429, 2410, 2398, 2428, 2443, 2402, 2396, 2437, 2455, 2441, 2396, 2456, 2433, 2412, 2402, 2444, 2435, 2438, 2405, 2436, 2431, 2428, 2425, 2433, 2472, 2412, 2436, 2427, 2443, 2428, 2420, 2417, 2420, 2429, 2423, 2495, 2452, 2440, 2420, 2478, 2463, 2444, 2443, 2446, 2467, 2459, 2444, 2436, 2465, 2444, 2436, 2429, 2434, 2581, 2551, 2484, 2460, 2426, 2426, 2395, 2426, 2436, 2419, 2429, 2415, 2445, 2429, 2433, 2433, 2452, 2404, 2432],
      "WindowCenter": [705.0, 706.0, 705.0, 704.0, 703.0, 704.0, 704.0, 706.0, 706.0, 707.0, 707.0, 706.0, 706.0, 706.0, 706.0, 707.0, 707.0, 707.0, 707.0, 706.0, 706.0, 705.0, 705.0, 706.0, 706.0, 706.0, 706.0, 705.0, 705.0, 705.0, 706.0, 706.0, 706.0, 706.0, 706.0, 705.0, 705.0, 705.0, 705.0, 705.0, 706.0, 707.0, 707.0, 706.0, 706.0, 706.0, 706.0, 706.0, 706.0, 706.0, 705.0, 705.0, 705.0, 705.0, 705.0, 705.0, 705.0, 705.0, 705.0, 705.0, 705.0, 705.0, 706.0, 705.0, 705.0, 705.0, 705.0, 705.0, 705.0, 705.0, 705.0, 705.0, 705.0, 705.0, 706.0, 706.0, 705.0, 706.0, 706.0, 707.0, 706.0, 706.0, 707.0, 706.0, 705.0, 706.0, 706.0, 705.0, 704.0, 704.0, 704.0, 705.0, 705.0, 706.0, 706.0, 706.0, 706.0, 705.0, 706.0, 706.0, 706.0, 705.0, 705.0, 705.0, 705.0, 705.0, 705.0, 705.0, 705.0, 705.0, 704.0, 704.0, 705.0, 705.0, 704.0, 704.0, 704.0, 704.0, 705.0, 704.0, 704.0, 704.0, 704.0, 704.0, 704.0, 705.0, 705.0, 706.0, 705.0, 705.0, 706.0, 705.0, 705.0, 705.0, 705.0, 704.0, 704.0, 705.0, 705.0, 704.0, 705.0, 705.0, 706.0, 705.0, 704.0, 705.0, 708.0, 706.0, 705.0, 705.0, 703.0, 702.0, 701.0, 701.0, 702.0, 703.0, 702.0, 702.0, 702.0, 704.0, 704.0, 705.0, 705.0, 706.0],
      "WindowWidth": [1526.0, 1527.0, 1524.0, 1521.0, 1519.0, 1521.0, 1522.0, 1525.0, 1527.0, 1530.0, 1528.0, 1526.0, 1527.0, 1526.0, 1527.0, 1529.0, 1529.0, 1529.0, 1528.0, 1526.0, 1525.0, 1524.0, 1524.0, 1525.0, 1525.0, 1526.0, 1526.0, 1523.0, 1524.0, 1525.0, 1525.0, 1527.0, 1526.0, 1526.0, 1525.0, 1524.0, 1523.0, 1523.0, 1524.0, 1524.0, 1525.0, 1527.0, 1527.0, 1526.0, 1526.0, 1527.0, 1526.0, 1526.0, 1526.0, 1526.0, 1524.0, 1523.0, 1524.0, 1524.0, 1523.0, 1522.0, 1523.0, 1523.0, 1524.0, 1524.0, 1524.0, 1525.0, 1525.0, 1524.0, 1523.0, 1523.0, 1524.0, 1525.0, 1524.0, 1523.0, 1523.0, 1524.0, 1524.0, 1524.0, 1526.0, 1526.0, 1524.0, 1526.0, 1525.0, 1527.0, 1526.0, 1527.0, 1528.0, 1526.0, 1524.0, 1526.0, 1527.0, 1524.0, 1522.0, 1522.0, 1520.0, 1523.0, 1524.0, 1525.0, 1525.0, 1525.0, 1525.0, 1525.0, 1525.0, 1525.0, 1525.0, 1523.0, 1523.0, 1523.0, 1522.0, 1523.0, 1522.0, 1523.0, 1522.0, 1522.0, 1521.0, 1521.0, 1522.0, 1522.0, 1521.0, 1521.0, 1521.0, 1521.0, 1523.0, 1521.0, 1521.0, 1520.0, 1522.0, 1522.0, 1522.0, 1523.0, 1524.0, 1525.0, 1524.0, 1524.0, 1525.0, 1524.0, 1522.0, 1523.0, 1523.0, 1521.0, 1522.0, 1522.0, 1522.0, 1522.0, 1523.0, 1524.0, 1525.0, 1524.0, 1521.0, 1522.0, 1530.0, 1526.0, 1522.0, 1523.0, 1519.0, 1515.0, 1513.0, 1512.0, 1516.0, 1517.0, 1514.0, 1514.0, 1516.0, 1519.0, 1521.0, 1522.0, 1522.0, 1524.0]
    },
    "slices": {}
  }
}