{
  "AcquisitionMatrixPE": 72,
  "AcquisitionNumber": 1,
  "AcquisitionTime": "11:31:30.845000",
  "BandwidthPerPixelPhaseEncode": 17.943,
  "BaseResolution": 96,
  "BodyPartExamined": "BRAIN",
  "CoilCombinationMethod": "Sum of Squares",
  "ConsistencyInfo": "N4_VE11C_LATEST_20160120",
  "ConversionSoftware": "dcm2niix",
  "ConversionSoftwareVersion": "v1.0.20211006",
  "DerivedVendorReportedEchoSpacing": 0.000552897,
  "DeviceSerialNumber": "166011",
  "EchoTime": 0.03,
  "EchoTrainLength": 58,
  "EffectiveEchoSpacing": 0.000580542,
  "FlipAngle": 62,
  "ImageOrientationPatientDICOM": [0.993688, -0.0702486, 0.0874601, 0.0834422, 0.983952, -0.157721],
  "ImageType": [
    "ORIGINAL",
    "PRIMARY",
    "M",
    "ND",
    "MOSAIC"
],
  "ImagingFrequency": 123.259,
  "InPlanePhaseEncodingDirectionDICOM": "COL",
  "InstitutionAddress": "West 130th Street 610,NY,NYC,US,10025",
  "InstitutionName": "MBBI",
  "MRAcquisitionType": "2D",
  "MagneticFieldStrength": 3,
  "Manufacturer": "Siemens",
  "ManufacturersModelName": "Prisma",
  "Modality": "MR",
  "MultibandAccelerationFactor": 3,
  "PartialFourier": 0.75,
  "PatientPosition": "HFS",
  "PercentPhaseFOV": 100,
  "PercentSampling": 75,
  "PhaseEncodingDirection": "j-",
  "PhaseEncodingSteps": 58,
  "PhaseOversampling": 0.05,
  "PhaseResolution": 0.75,
  "PixelBandwidth": 2265,
  "ProcedureStepDescription": "White^Word_recognition",
  "ProtocolName": "func_vwfate_run14",
  "PulseSequenceDetails": "%SiemensSeq%\\ep2d_bold",
  "ReceiveCoilActiveElements": "HC1-7",
  "ReceiveCoilName": "HeadNeck_64",
  "ReconMatrixPE": 96,
  "RefLinesPE": 40,
  "RepetitionTime": 1.5,
  "SAR": 0.0494314,
  "ScanOptions": "PFP\\FS",
  "ScanningSequence": "EP",
  "SequenceName": "*epfid2d1_72",
  "SequenceVariant": "SK\\OSP",
  "SeriesDescription": "func_vwfate_run14",
  "SeriesNumber": 9,
  "ShimSetting": [-1130, -1346, 684, 524, -106, 14, -39, -42],
  "SliceThickness": 2,
  "SliceTiming": [1.075, 0, 0.74, 0.0675, 0.8075, 0.1325, 0.8725, 0.2, 0.94, 0.2675, 1.0075, 0.4025, 1.1425, 0.47, 1.21, 0.5375, 1.2775, 0.605, 1.345, 0.6725, 1.4125, 0.335, 1.075, 0, 0.74, 0.0675, 0.8075, 0.1325, 0.8725, 0.2, 0.94, 0.2675, 1.0075, 0.4025, 1.1425, 0.47, 1.21, 0.5375, 1.2775, 0.605, 1.345, 0.6725, 1.4125, 0.335, 1.075, 0, 0.74, 0.0675, 0.8075, 0.1325, 0.8725, 0.2, 0.94, 0.2675, 1.0075, 0.4025, 1.1425, 0.47, 1.21, 0.5375, 1.2775, 0.605, 1.345, 0.6725, 1.4125, 0.335],
  "SoftwareVersions": "syngo MR E11",
  "SpacingBetweenSlices": 2,
  "StationName": "AWP166011",
  "TaskName": "vwfate",
  "TotalReadoutTime": 0.0551515,
  "TxRefAmp": 232.918,
  "dcmmeta_affine": [
    [-1.9873759746551514, 0.16688449680805206, 0.1499537229537964, 90.57545471191406],
    [0.14049722254276276, 1.967903971672058, -0.3280467391014099, -74.55470275878906],
    [0.1749202162027359, 0.3154420554637909, 1.9672060012817383, -96.70955657958984],
    [0.0, 0.0, 0.0, 1.0]
],
  "dcmmeta_reorient_transform": [
    [0.0, -1.0, 0.0, 95.0],
    [1.0, 0.0, 0.0, 0.0],
    [0.0, 0.0, 1.0, 0.0],
    [0.0, 0.0, 0.0, 1.0]
],
  "dcmmeta_shape": [96, 96, 66, 164],
  "dcmmeta_slice_dim": 2,
  "dcmmeta_version": 0.6,
  "global": {
    "const": {
      "AcquisitionMatrix": [96, 0, 0, 72],
      "AngioFlag": "N",
      "BitsAllocated": 16,
      "BitsStored": 12,
      "BodyPartExamined": "BRAIN",
      "Columns": 864,
      "EchoNumbers": 1,
      "EchoTime": 30.0,
      "EchoTrainLength": 58,
      "FlipAngle": 62.0,
      "HighBit": 11,
      "ImageOrientationPatient": [0.99368801030666, -0.070248613087, 0.08746010823313, 0.08344224595736, 0.98395196407936, -0.1577210321231],
      "ImagePositionPatient": [-933.66551504302, -814.12034596849, -12.782171622356],
      "ImageType": [
        "ORIGINAL",
        "PRIMARY",
        "M",
        "ND",
        "MOSAIC"
],
      "ImagedNucleus": "1H",
      "ImagingFrequency": 123.259498,
      "InPlanePhaseEncodingDirection": "COL",
      "MRAcquisitionType": "2D",
      "MagneticFieldStrength": 3.0,
      "Manufacturer": "SIEMENS",
      "ManufacturerModelName": "Prisma",
      "Modality": "MR",
      "NumberOfAverages": 1.0,
      "NumberOfPhaseEncodingSteps": 58,
      "PercentPhaseFieldOfView": 100.0,
      "PercentSampling": 75.0,
      "PerformedProcedureStepStartTime": "110049.491000",
      "PhotometricInterpretation": "MONOCHROME2",
      "PixelBandwidth": 2265.0,
      "PixelRepresentation": 0,
      "PixelSpacing": [2.0, 2.0],
      "ProtocolName": "func_vwfate_run14",
      "RepetitionTime": 1500.0,
      "Rows": 864,
      "SAR": 0.04943137557172,
      "SamplesPerPixel": 1,
      "ScanOptions": [
        "PFP",
        "FS"
],
      "ScanningSequence": "EP",
      "SequenceName": "*epfid2d1_72",
      "SequenceVariant": [
        "SK",
        "OSP"
],
      "SeriesDescription": "func_vwfate_run14",
      "SeriesNumber": 9,
      "SeriesTime": "113209.283000",
      "SliceLocation": -76.104031815058,
      "SliceThickness": 2.0,
      "SmallestImagePixelValue": 0,
      "SoftwareVersions": "syngo MR E11",
      "SpacingBetweenSlices": 2.0000000387071,
      "SpecificCharacterSet": "ISO_IR 100",
      "StudyID": "3",
      "StudyTime": "110049.424000",
      "TransmitCoilName": "Body",
      "VariableFlipAngleFlag": "N",
      "WindowCenterWidthExplanation": "Algo1",
      "dBdt": 0.0},
    "slices": {}
  },
  "time": {
    "samples": {
      "AcquisitionNumber": [1, 2, 3, 4, 5, 6, 7, 8, 9, 10, 11, 12, 13, 14, 15, 16, 17, 18, 19, 20, 21, 22, 23, 24, 25, 26, 27, 28, 29, 30, 31, 32, 33, 34, 35, 36, 37, 38, 39, 40, 41, 42, 43, 44, 45, 46, 47, 48, 49, 50, 51, 52, 53, 54, 55, 56, 57, 58, 59, 60, 61, 62, 63, 64, 65, 66, 67, 68, 69, 70, 71, 72, 73, 74, 75, 76, 77, 78, 79, 80, 81, 82, 83, 84, 85, 86, 87, 88, 89, 90, 91, 92, 93, 94, 95, 96, 97, 98, 99, 100, 101, 102, 103, 104, 105, 106, 107, 108, 109, 110, 111, 112, 113, 114, 115, 116, 117, 118, 119, 120, 121, 122, 123, 124, 125, 126, 127, 128, 129, 130, 131, 132, 133, 134, 135, 136, 137, 138, 139, 140, 141, 142, 143, 144, 145, 146, 147, 148, 149, 150, 151, 152, 153, 154, 155, 156, 157, 158, 159, 160, 161, 162, 163, 164],
      "AcquisitionTime": ["113130.845000", "113132.345000", "113133.845000", "113135.345000", "113136.845000", "113138.345000", "113139.845000", "113141.345000", "113142.845000", "113144.345000", "113145.845000", "113147.345000", "113148.845000", "113150.345000", "113151.845000", "113153.345000", "113154.845000", "113156.345000", "113157.845000", "113159.345000", "113200.845000", "113202.345000", "113203.845000", "113205.345000", "113206.845000", "113208.345000", "113209.845000", "113211.345000", "113212.845000", "113214.345000", "113215.845000", "113217.345000", "113218.845000", "113220.345000", "113221.845000", "113223.345000", "113224.845000", "113226.345000", "113227.845000", "113229.345000", "113230.845000", "113232.345000", "113233.845000", "113235.345000", "113236.845000", "113238.345000", "113239.845000", "113241.345000", "113242.845000", "113244.345000", "113245.845000", "113247.345000", "113248.845000", "113250.345000", "113251.845000", "113253.345000", "113254.845000", "113256.345000", "113257.845000", "113259.345000", "113300.845000", "113302.345000", "113303.845000", "113305.345000", "113306.845000", "113308.345000", "113309.845000", "113311.345000", "113312.845000", "113314.345000", "113315.845000", "113317.345000", "113318.845000", "113320.345000", "113321.845000", "113323.345000", "113324.845000", "113326.345000", "113327.845000", "113329.345000", "113330.845000", "113332.345000", "113333.845000", "113335.345000", "113336.845000", "113338.345000", "113339.845000", "113341.345000", "113342.845000", "113344.345000", "113345.845000", "113347.345000", "113348.845000", "113350.345000", "113351.845000", "113353.345000", "113354.845000", "113356.345000", "113357.845000", "113359.345000", "113400.845000", "113402.345000", "113403.845000", "113405.345000", "113406.845000", "113408.345000", "113409.845000", "113411.345000", "113412.845000", "113414.345000", "113415.845000", "113417.345000", "113418.845000", "113420.345000", "113421.845000", "113423.345000", "113424.845000", "113426.345000", "113427.845000", "113429.345000", "113430.845000", "113432.345000", "113433.845000", "113435.345000", "113436.845000", "113438.345000", "113439.845000", "113441.345000", "113442.845000", "113444.345000", "113445.845000", "113447.345000", "113448.845000", "113450.345000", "113451.845000", "113453.345000", "113454.845000", "113456.345000", "113457.845000", "113459.345000", "113500.845000", "113502.345000", "113503.845000", "113505.345000", "113506.845000", "113508.345000", "113509.845000", "113511.345000", "113512.845000", "113514.345000", "113515.845000", "113517.345000", "113518.845000", "113520.345000", "113521.845000", "113523.345000", "113524.845000", "113526.345000", "113527.845000", "113529.345000", "113530.845000", "113532.345000", "113533.845000", "113535.345000"],
      "ContentTime": ["113209.287000", "113209.291000", "113209.302000", "113209.309000", "113209.312000", "113209.315000", "113209.318000", "113209.321000", "113209.324000", "113209.327000", "113209.330000", "113209.333000", "113209.337000", "113209.339000", "113209.343000", "113209.346000", "113209.349000", "113209.352000", "113209.355000", "113209.358000", "113209.364000", "113209.367000", "113209.371000", "113209.374000", "113209.377000", "113249.283000", "113249.286000", "113249.289000", "113249.293000", "113249.296000", "113249.298000", "113249.302000", "113249.305000", "113249.308000", "113249.311000", "113249.314000", "113249.317000", "113249.320000", "113249.323000", "113249.326000", "113249.329000", "113249.332000", "113249.335000", "113249.338000", "113249.341000", "113249.344000", "113249.347000", "113249.350000", "113249.361000", "113249.385000", "113249.388000", "113249.391000", "113329.284000", "113329.289000", "113329.292000", "113329.295000", "113329.298000", "113329.301000", "113329.304000", "113329.307000", "113329.310000", "113329.314000", "113329.317000", "113329.320000", "113329.323000", "113329.326000", "113329.329000", "113329.332000", "113329.335000", "113329.338000", "113329.341000", "113329.344000", "113329.347000", "113329.351000", "113329.363000", "113329.366000", "113329.369000", "113329.372000", "113409.282000", "113409.285000", "113409.288000", "113409.292000", "113409.295000", "113409.298000", "113409.301000", "113409.304000", "113409.307000", "113409.310000", "113409.313000", "113409.316000", "113409.319000", "113409.322000", "113409.325000", "113409.328000", "113409.331000", "113409.334000", "113409.337000", "113409.341000", "113409.344000", "113409.347000", "113409.350000", "113409.353000", "113409.356000", "113409.359000", "113409.362000", "113449.282000", "113449.285000", "113449.288000", "113449.291000", "113449.294000", "113449.298000", "113449.301000", "113449.304000", "113449.307000", "113449.310000", "113449.313000", "113449.316000", "113449.319000", "113449.322000", "113449.325000", "113449.328000", "113449.331000", "113449.334000", "113449.337000", "113449.341000", "113449.344000", "113449.347000", "113449.350000", "113449.353000", "113449.356000", "113449.359000", "113449.362000", "113529.283000", "113529.286000", "113529.289000", "113529.292000", "113529.295000", "113529.299000", "113529.302000", "113529.305000", "113529.308000", "113529.311000", "113529.314000", "113529.317000", "113529.320000", "113529.324000", "113529.327000", "113529.330000", "113529.333000", "113529.336000", "113529.339000", "113529.342000", "113529.345000", "113529.348000", "113529.351000", "113529.354000", "113529.357000", "113529.361000", "113536.787000", "113536.790000", "113536.794000", "113536.797000", "113536.800000", "113536.803000"],
      "InstanceCreationTime": ["113209.287000", "113209.291000", "113209.302000", "113209.309000", "113209.312000", "113209.315000", "113209.318000", "113209.321000", "113209.324000", "113209.327000", "113209.330000", "113209.333000", "113209.337000", "113209.339000", "113209.343000", "113209.346000", "113209.349000", "113209.352000", "113209.355000", "113209.358000", "113209.364000", "113209.367000", "113209.371000", "113209.374000", "113209.377000", "113249.283000", "113249.286000", "113249.289000", "113249.293000", "113249.296000", "113249.298000", "113249.302000", "113249.305000", "113249.308000", "113249.311000", "113249.314000", "113249.317000", "113249.320000", "113249.323000", "113249.326000", "113249.329000", "113249.332000", "113249.335000", "113249.338000", "113249.341000", "113249.344000", "113249.347000", "113249.350000", "113249.361000", "113249.385000", "113249.388000", "113249.391000", "113329.284000", "113329.289000", "113329.292000", "113329.295000", "113329.298000", "113329.301000", "113329.304000", "113329.307000", "113329.310000", "113329.314000", "113329.317000", "113329.320000", "113329.323000", "113329.326000", "113329.329000", "113329.332000", "113329.335000", "113329.338000", "113329.341000", "113329.344000", "113329.347000", "113329.351000", "113329.363000", "113329.366000", "113329.369000", "113329.372000", "113409.282000", "113409.285000", "113409.288000", "113409.292000", "113409.295000", "113409.298000", "113409.301000", "113409.304000", "113409.307000", "113409.310000", "113409.313000", "113409.316000", "113409.319000", "113409.322000", "113409.325000", "113409.328000", "113409.331000", "113409.334000", "113409.337000", "113409.341000", "113409.344000", "113409.347000", "113409.350000", "113409.353000", "113409.356000", "113409.359000", "113409.362000", "113449.282000", "113449.285000", "113449.288000", "113449.291000", "113449.294000", "113449.298000", "113449.301000", "113449.304000", "113449.307000", "113449.310000", "113449.313000", "113449.316000", "113449.319000", "113449.322000", "113449.325000", "113449.328000", "113449.331000", "113449.334000", "113449.337000", "113449.341000", "113449.344000", "113449.347000", "113449.350000", "113449.353000", "113449.356000", "113449.359000", "113449.362000", "113529.283000", "113529.286000", "113529.289000", "113529.292000", "113529.295000", "113529.299000", "113529.302000", "113529.305000", "113529.308000", "113529.311000", "113529.314000", "113529.317000", "113529.320000", "113529.324000", "113529.327000", "113529.330000", "113529.333000", "113529.336000", "113529.339000", "113529.342000", "113529.345000", "113529.348000", "113529.351000", "113529.354000", "113529.357000", "113529.361000", "113536.787000", "113536.790000", "113536.794000", "113536.797000", "113536.800000", "113536.803000"],
      "InstanceNumber": [1, 2, 3, 4, 5, 6, 7, 8, 9, 10, 11, 12, 13, 14, 15, 16, 17, 18, 19, 20, 21, 22, 23, 24, 25, 26, 27, 28, 29, 30, 31, 32, 33, 34, 35, 36, 37, 38, 39, 40, 41, 42, 43, 44, 45, 46, 47, 48, 49, 50, 51, 52, 53, 54, 55, 56, 57, 58, 59, 60, 61, 62, 63, 64, 65, 66, 67, 68, 69, 70, 71, 72, 73, 74, 75, 76, 77, 78, 79, 80, 81, 82, 83, 84, 85, 86, 87, 88, 89, 90, 91, 92, 93, 94, 95, 96, 97, 98, 99, 100, 101, 102, 103, 104, 105, 106, 107, 108, 109, 110, 111, 112, 113, 114, 115, 116, 117, 118, 119, 120, 121, 122, 123, 124, 125, 126, 127, 128, 129, 130, 131, 132, 133, 134, 135, 136, 137, 138, 139, 140, 141, 142, 143, 144, 145, 146, 147, 148, 149, 150, 151, 152, 153, 154, 155, 156, 157, 158, 159, 160, 161, 162, 163, 164],
      "LargestImagePixelValue": [2194, 2190, 2173, 2111, 2108, 2098, 2085, 2082, 2100, 2089, 2100, 2089, 2085, 2116, 2095, 2117, 2106, 2117, 2116, 2119, 2105, 2104, 2102, 2121, 2167, 2170, 2166, 2182, 2142, 2148, 2120, 2118, 2074, 2130, 2125, 2110, 2117, 2120, 2143, 2135, 2090, 2118, 2070, 2165, 2122, 2131, 2118, 2132, 2130, 2135, 2133, 2120, 2161, 2120, 2140, 2115, 2135, 2147, 2146, 2128, 2138, 2146, 2173, 2171, 2127, 2143, 2099, 2140, 2085, 2114, 2086, 2105, 2078, 2130, 2120, 2128, 2099, 2158, 2096, 2151, 2079, 2127, 2127, 2147, 2104, 2140, 2115, 2097, 2123, 2107, 2130, 2113, 2136, 2128, 2164, 2157, 2171, 2108, 2144, 2125, 2099, 2134, 2114, 2148, 2083, 2145, 2102, 2140, 2084, 2119, 2106, 2144, 2107, 2107, 2121, 2106, 2135, 2100, 2166, 2115, 2150, 2127, 2138, 2094, 2117, 2130, 2112, 2133, 2109, 2116, 2124, 2128, 2162, 2157, 2124, 2164, 2117, 2152, 2121, 2113, 2086, 2143, 2102, 2152, 2122, 2164, 2091, 2139, 2106, 2102, 2115, 2112, 2131, 2109, 2135, 2113, 2143, 2089, 2095, 2128, 2110, 2112, 2132, 2113],
      "WindowCenter": [727.0, 725.0, 724.0, 723.0, 723.0, 722.0, 722.0, 724.0, 724.0, 725.0, 724.0, 724.0, 724.0, 724.0, 724.0, 725.0, 725.0, 725.0, 725.0, 725.0, 725.0, 725.0, 725.0, 726.0, 727.0, 729.0, 729.0, 729.0, 727.0, 726.0, 725.0, 724.0, 724.0, 725.0, 725.0, 725.0, 725.0, 725.0, 724.0, 724.0, 722.0, 722.0, 723.0, 725.0, 725.0, 725.0, 725.0, 725.0, 724.0, 724.0, 725.0, 725.0, 725.0, 725.0, 725.0, 724.0, 725.0, 726.0, 727.0, 726.0, 726.0, 726.0, 726.0, 726.0, 725.0, 725.0, 724.0, 724.0, 723.0, 723.0, 723.0, 723.0, 723.0, 724.0, 724.0, 724.0, 725.0, 726.0, 726.0, 725.0, 724.0, 725.0, 725.0, 726.0, 726.0, 725.0, 725.0, 725.0, 726.0, 725.0, 725.0, 724.0, 725.0, 725.0, 726.0, 727.0, 726.0, 725.0, 725.0, 726.0, 725.0, 725.0, 725.0, 726.0, 726.0, 726.0, 725.0, 724.0, 723.0, 724.0, 724.0, 726.0, 726.0, 726.0, 726.0, 726.0, 727.0, 726.0, 726.0, 726.0, 726.0, 726.0, 726.0, 725.0, 725.0, 725.0, 725.0, 726.0, 726.0, 726.0, 726.0, 726.0, 726.0, 726.0, 726.0, 726.0, 725.0, 725.0, 725.0, 725.0, 724.0, 725.0, 724.0, 725.0, 725.0, 726.0, 725.0, 725.0, 724.0, 724.0, 723.0, 724.0, 724.0, 725.0, 725.0, 726.0, 726.0, 725.0, 724.0, 724.0, 724.0, 724.0, 724.0, 725.0],
      "WindowWidth": [1568.0, 1565.0, 1562.0, 1559.0, 1557.0, 1556.0, 1557.0, 1561.0, 1561.0, 1562.0, 1561.0, 1560.0, 1561.0, 1561.0, 1560.0, 1563.0, 1562.0, 1564.0, 1564.0, 1565.0, 1564.0, 1564.0, 1564.0, 1567.0, 1569.0, 1574.0, 1575.0, 1572.0, 1569.0, 1564.0, 1561.0, 1561.0, 1560.0, 1563.0, 1564.0, 1563.0, 1563.0, 1563.0, 1562.0, 1560.0, 1557.0, 1556.0, 1558.0, 1563.0, 1562.0, 1562.0, 1562.0, 1562.0, 1561.0, 1561.0, 1562.0, 1563.0, 1564.0, 1563.0, 1562.0, 1561.0, 1562.0, 1565.0, 1567.0, 1566.0, 1567.0, 1565.0, 1566.0, 1566.0, 1563.0, 1562.0, 1561.0, 1561.0, 1559.0, 1559.0, 1558.0, 1559.0, 1558.0, 1561.0, 1561.0, 1562.0, 1562.0, 1566.0, 1565.0, 1564.0, 1562.0, 1563.0, 1564.0, 1566.0, 1565.0, 1564.0, 1563.0, 1563.0, 1565.0, 1564.0, 1564.0, 1561.0, 1563.0, 1564.0, 1567.0, 1567.0, 1567.0, 1563.0, 1564.0, 1565.0, 1564.0, 1564.0, 1564.0, 1565.0, 1565.0, 1564.0, 1562.0, 1561.0, 1558.0, 1560.0, 1562.0, 1566.0, 1566.0, 1566.0, 1566.0, 1566.0, 1567.0, 1564.0, 1566.0, 1566.0, 1565.0, 1565.0, 1565.0, 1563.0, 1563.0, 1563.0, 1564.0, 1567.0, 1566.0, 1566.0, 1567.0, 1566.0, 1567.0, 1566.0, 1565.0, 1565.0, 1563.0, 1564.0, 1565.0, 1563.0, 1561.0, 1563.0, 1562.0, 1564.0, 1564.0, 1566.0, 1564.0, 1563.0, 1561.0, 1559.0, 1559.0, 1560.0, 1561.0, 1563.0, 1565.0, 1566.0, 1565.0, 1562.0, 1562.0, 1561.0, 1561.0, 1560.0, 1561.0, 1562.0]
    },
    "slices": {}
  }
}