{
  "AcquisitionMatrixPE": 72,
  "AcquisitionNumber": 1,
  "AcquisitionTime": "11:57:2.992500",
  "BandwidthPerPixelPhaseEncode": 17.943,
  "BaseResolution": 96,
  "BodyPartExamined": "BRAIN",
  "CoilCombinationMethod": "Sum of Squares",
  "ConsistencyInfo": "N4_VE11C_LATEST_20160120",
  "ConversionSoftware": "dcm2niix",
  "ConversionSoftwareVersion": "v1.0.20211006",
  "DerivedVendorReportedEchoSpacing": 0.000552897,
  "DeviceSerialNumber": "166011",
  "EchoTime": 0.03,
  "EchoTrainLength": 58,
  "EffectiveEchoSpacing": 0.000580542,
  "FlipAngle": 62,
  "ImageOrientationPatientDICOM": [0.993688, -0.0702486, 0.0874601, 0.0834422, 0.983952, -0.157721],
  "ImageType": [
    "ORIGINAL",
    "PRIMARY",
    "M",
    "ND",
    "MOSAIC"
],
  "ImagingFrequency": 123.26,
  "InPlanePhaseEncodingDirectionDICOM": "COL",
  "InstitutionAddress": "West 130th Street 610,NY,NYC,US,10025",
  "InstitutionName": "MBBI",
  "MRAcquisitionType": "2D",
  "MagneticFieldStrength": 3,
  "Manufacturer": "Siemens",
  "ManufacturersModelName": "Prisma",
  "Modality": "MR",
  "MultibandAccelerationFactor": 3,
  "PartialFourier": 0.75,
  "PatientPosition": "HFS",
  "PercentPhaseFOV": 100,
  "PercentSampling": 75,
  "PhaseEncodingDirection": "j-",
  "PhaseEncodingSteps": 58,
  "PhaseOversampling": 0.05,
  "PhaseResolution": 0.75,
  "PixelBandwidth": 2265,
  "ProcedureStepDescription": "White^Word_recognition",
  "ProtocolName": "func_language_run3",
  "PulseSequenceDetails": "%SiemensSeq%\\ep2d_bold",
  "ReceiveCoilActiveElements": "HC1-7",
  "ReceiveCoilName": "HeadNeck_64",
  "ReconMatrixPE": 96,
  "RefLinesPE": 40,
  "RepetitionTime": 1.5,
  "SAR": 0.0496398,
  "ScanOptions": "PFP\\FS",
  "ScanningSequence": "EP",
  "SequenceName": "*epfid2d1_72",
  "SequenceVariant": "SK\\OSP",
  "SeriesDescription": "func_language_run3",
  "SeriesNumber": 13,
  "ShimSetting": [-1130, -1346, 684, 524, -106, 14, -39, -42],
  "SliceThickness": 2,
  "SliceTiming": [1.0775, 0, 0.74, 0.0675, 0.8075, 0.135, 0.875, 0.2025, 0.9425, 0.27, 1.01, 0.405, 1.145, 0.47, 1.21, 0.5375, 1.2775, 0.605, 1.345, 0.6725, 1.4125, 0.3375, 1.0775, 0, 0.74, 0.0675, 0.8075, 0.135, 0.875, 0.2025, 0.9425, 0.27, 1.01, 0.405, 1.145, 0.47, 1.21, 0.5375, 1.2775, 0.605, 1.345, 0.6725, 1.4125, 0.3375, 1.0775, 0, 0.74, 0.0675, 0.8075, 0.135, 0.875, 0.2025, 0.9425, 0.27, 1.01, 0.405, 1.145, 0.47, 1.21, 0.5375, 1.2775, 0.605, 1.345, 0.6725, 1.4125, 0.3375],
  "SoftwareVersions": "syngo MR E11",
  "SpacingBetweenSlices": 2,
  "StationName": "AWP166011",
  "TaskName": "langLoc",
  "TotalReadoutTime": 0.0551515,
  "TxRefAmp": 232.918,
  "dcmmeta_affine": [
    [-1.9873759746551514, 0.16688449680805206, 0.1499537229537964, 90.57545471191406],
    [0.14049722254276276, 1.967903971672058, -0.3280467391014099, -74.55470275878906],
    [0.1749202162027359, 0.3154420554637909, 1.9672060012817383, -96.70955657958984],
    [0.0, 0.0, 0.0, 1.0]
],
  "dcmmeta_reorient_transform": [
    [0.0, -1.0, 0.0, 95.0],
    [1.0, 0.0, 0.0, 0.0],
    [0.0, 0.0, 1.0, 0.0],
    [0.0, 0.0, 0.0, 1.0]
],
  "dcmmeta_shape": [96, 96, 66, 239],
  "dcmmeta_slice_dim": 2,
  "dcmmeta_version": 0.6,
  "global": {
    "const": {
      "AcquisitionMatrix": [96, 0, 0, 72],
      "AngioFlag": "N",
      "BitsAllocated": 16,
      "BitsStored": 12,
      "BodyPartExamined": "BRAIN",
      "Columns": 864,
      "EchoNumbers": 1,
      "EchoTime": 30.0,
      "EchoTrainLength": 58,
      "FlipAngle": 62.0,
      "HighBit": 11,
      "ImageOrientationPatient": [0.99368801030666, -0.070248613087, 0.08746010823313, 0.08344224595736, 0.98395196407936, -0.1577210321231],
      "ImagePositionPatient": [-933.66551504302, -814.12034596849, -12.782171622356],
      "ImageType": [
        "ORIGINAL",
        "PRIMARY",
        "M",
        "ND",
        "MOSAIC"
],
      "ImagedNucleus": "1H",
      "ImagingFrequency": 123.259518,
      "InPlanePhaseEncodingDirection": "COL",
      "MRAcquisitionType": "2D",
      "MagneticFieldStrength": 3.0,
      "Manufacturer": "SIEMENS",
      "ManufacturerModelName": "Prisma",
      "Modality": "MR",
      "NumberOfAverages": 1.0,
      "NumberOfPhaseEncodingSteps": 58,
      "PercentPhaseFieldOfView": 100.0,
      "PercentSampling": 75.0,
      "PerformedProcedureStepStartTime": "110049.491000",
      "PhotometricInterpretation": "MONOCHROME2",
      "PixelBandwidth": 2265.0,
      "PixelRepresentation": 0,
      "PixelSpacing": [2.0, 2.0],
      "ProtocolName": "func_language_run3",
      "RepetitionTime": 1500.0,
      "Rows": 864,
      "SAR": 0.04963983247844,
      "SamplesPerPixel": 1,
      "ScanOptions": [
        "PFP",
        "FS"
],
      "ScanningSequence": "EP",
      "SequenceName": "*epfid2d1_72",
      "SequenceVariant": [
        "SK",
        "OSP"
],
      "SeriesDescription": "func_language_run3",
      "SeriesNumber": 13,
      "SeriesTime": "115749.671000",
      "SliceLocation": -76.104031815058,
      "SliceThickness": 2.0,
      "SmallestImagePixelValue": 0,
      "SoftwareVersions": "syngo MR E11",
      "SpacingBetweenSlices": 2.0000000387071,
      "SpecificCharacterSet": "ISO_IR 100",
      "StudyID": "3",
      "StudyTime": "110049.424000",
      "TransmitCoilName": "Body",
      "VariableFlipAngleFlag": "N",
      "WindowCenterWidthExplanation": "Algo1",
      "dBdt": 0.0},
    "slices": {}
  },
  "time": {
    "samples": {
      "AcquisitionNumber": [1, 2, 3, 4, 5, 6, 7, 8, 9, 10, 11, 12, 13, 14, 15, 16, 17, 18, 19, 20, 21, 22, 23, 24, 25, 26, 27, 28, 29, 30, 31, 32, 33, 34, 35, 36, 37, 38, 39, 40, 41, 42, 43, 44, 45, 46, 47, 48, 49, 50, 51, 52, 53, 54, 55, 56, 57, 58, 59, 60, 61, 62, 63, 64, 65, 66, 67, 68, 69, 70, 71, 72, 73, 74, 75, 76, 77, 78, 79, 80, 81, 82, 83, 84, 85, 86, 87, 88, 89, 90, 91, 92, 93, 94, 95, 96, 97, 98, 99, 100, 101, 102, 103, 104, 105, 106, 107, 108, 109, 110, 111, 112, 113, 114, 115, 116, 117, 118, 119, 120, 121, 122, 123, 124, 125, 126, 127, 128, 129, 130, 131, 132, 133, 134, 135, 136, 137, 138, 139, 140, 141, 142, 143, 144, 145, 146, 147, 148, 149, 150, 151, 152, 153, 154, 155, 156, 157, 158, 159, 160, 161, 162, 163, 164, 165, 166, 167, 168, 169, 170, 171, 172, 173, 174, 175, 176, 177, 178, 179, 180, 181, 182, 183, 184, 185, 186, 187, 188, 189, 190, 191, 192, 193, 194, 195, 196, 197, 198, 199, 200, 201, 202, 203, 204, 205, 206, 207, 208, 209, 210, 211, 212, 213, 214, 215, 216, 217, 218, 219, 220, 221, 222, 223, 224, 225, 226, 227, 228, 229, 230, 231, 232, 233, 234, 235, 236, 237, 238, 239],
      "AcquisitionTime": ["115702.992500", "115704.492500", "115705.992500", "115707.492500", "115708.992500", "115710.492500", "115711.992500", "115713.492500", "115714.992500", "115716.492500", "115717.992500", "115719.492500", "115720.992500", "115722.492500", "115723.992500", "115725.492500", "115726.992500", "115728.492500", "115729.992500", "115731.492500", "115732.992500", "115734.492500", "115735.992500", "115737.492500", "115738.992500", "115740.492500", "115741.992500", "115743.492500", "115744.992500", "115746.492500", "115747.992500", "115749.492500", "115750.992500", "115752.492500", "115753.992500", "115755.492500", "115756.992500", "115758.492500", "115759.992500", "115801.492500", "115802.992500", "115804.492500", "115805.992500", "115807.492500", "115808.992500", "115810.492500", "115811.992500", "115813.492500", "115814.992500", "115816.492500", "115817.992500", "115819.492500", "115820.992500", "115822.492500", "115823.992500", "115825.492500", "115826.992500", "115828.492500", "115829.992500", "115831.492500", "115832.992500", "115834.492500", "115835.992500", "115837.492500", "115838.992500", "115840.492500", "115841.992500", "115843.492500", "115844.992500", "115846.492500", "115847.992500", "115849.492500", "115850.992500", "115852.492500", "115853.992500", "115855.492500", "115856.992500", "115858.492500", "115859.992500", "115901.492500", "115902.992500", "115904.492500", "115905.992500", "115907.492500", "115908.992500", "115910.492500", "115911.992500", "115913.492500", "115914.992500", "115916.492500", "115917.992500", "115919.492500", "115920.992500", "115922.492500", "115923.992500", "115925.492500", "115926.992500", "115928.492500", "115929.992500", "115931.492500", "115932.992500", "115934.492500", "115935.992500", "115937.492500", "115938.992500", "115940.492500", "115941.992500", "115943.492500", "115944.992500", "115946.492500", "115947.992500", "115949.492500", "115950.992500", "115952.492500", "115953.992500", "115955.492500", "115956.992500", "115958.492500", "115959.992500", "120001.492500", "120002.992500", "120004.492500", "120005.992500", "120007.492500", "120008.992500", "120010.492500", "120011.992500", "120013.492500", "120014.992500", "120016.492500", "120017.992500", "120019.492500", "120020.992500", "120022.492500", "120023.992500", "120025.492500", "120026.992500", "120028.492500", "120029.992500", "120031.492500", "120032.992500", "120034.492500", "120035.992500", "120037.492500", "120038.992500", "120040.492500", "120041.992500", "120043.492500", "120044.992500", "120046.492500", "120047.992500", "120049.492500", "120050.992500", "120052.492500", "120053.992500", "120055.492500", "120056.992500", "120058.492500", "120059.992500", "120101.492500", "120102.992500", "120104.492500", "120105.992500", "120107.492500", "120108.992500", "120110.492500", "120111.992500", "120113.492500", "120114.992500", "120116.492500", "120117.992500", "120119.492500", "120120.992500", "120122.492500", "120123.992500", "120125.492500", "120126.992500", "120128.492500", "120129.992500", "120131.492500", "120132.992500", "120134.492500", "120135.992500", "120137.492500", "120138.992500", "120140.492500", "120141.992500", "120143.492500", "120144.992500", "120146.492500", "120147.992500", "120149.492500", "120150.992500", "120152.492500", "120153.992500", "120155.492500", "120156.992500", "120158.492500", "120159.992500", "120201.492500", "120202.992500", "120204.492500", "120205.992500", "120207.492500", "120208.992500", "120210.492500", "120211.992500", "120213.492500", "120214.992500", "120216.492500", "120217.992500", "120219.492500", "120220.992500", "120222.492500", "120223.992500", "120225.492500", "120226.992500", "120228.492500", "120229.992500", "120231.492500", "120232.992500", "120234.492500", "120235.992500", "120237.492500", "120238.992500", "120240.492500", "120241.992500", "120243.492500", "120244.992500", "120246.492500", "120247.992500", "120249.492500", "120250.992500", "120252.492500", "120253.992500", "120255.492500", "120256.992500", "120258.492500", "120259.992500"],
      "ContentTime": ["115749.675000", "115749.679000", "115749.682000", "115749.685000", "115749.688000", "115749.699000", "115749.702000", "115749.705000", "115749.708000", "115749.711000", "115749.714000", "115749.717000", "115749.720000", "115749.723000", "115749.727000", "115749.730000", "115749.733000", "115749.736000", "115749.745000", "115749.748000", "115749.751000", "115749.754000", "115749.757000", "115749.760000", "115749.763000", "115749.766000", "115749.769000", "115749.772000", "115749.776000", "115749.779000", "115749.782000", "115829.671000", "115829.674000", "115829.677000", "115829.680000", "115829.683000", "115829.687000", "115829.703000", "115829.706000", "115829.709000", "115829.712000", "115829.715000", "115829.718000", "115829.721000", "115829.727000", "115829.730000", "115829.733000", "115829.736000", "115829.739000", "115829.742000", "115829.745000", "115829.748000", "115829.751000", "115829.754000", "115829.757000", "115829.761000", "115829.764000", "115909.671000", "115909.674000", "115909.677000", "115909.680000", "115909.683000", "115909.687000", "115909.690000", "115909.693000", "115909.696000", "115909.699000", "115909.702000", "115909.705000", "115909.708000", "115909.711000", "115909.714000", "115909.718000", "115909.721000", "115909.724000", "115909.727000", "115909.730000", "115909.733000", "115909.736000", "115909.739000", "115909.742000", "115909.746000", "115909.749000", "115909.752000", "115949.670000", "115949.673000", "115949.676000", "115949.679000", "115949.682000", "115949.685000", "115949.688000", "115949.692000", "115949.695000", "115949.698000", "115949.701000", "115949.704000", "115949.707000", "115949.710000", "115949.713000", "115949.716000", "115949.719000", "115949.722000", "115949.725000", "115949.728000", "115949.731000", "115949.734000", "115949.737000", "115949.740000", "115949.743000", "115949.747000", "115949.750000", "120029.671000", "120029.674000", "120029.677000", "120029.680000", "120029.684000", "120029.687000", "120029.689000", "120029.693000", "120029.696000", "120029.699000", "120029.702000", "120029.705000", "120029.708000", "120029.711000", "120029.714000", "120029.717000", "120029.720000", "120029.723000", "120029.726000", "120029.729000", "120029.732000", "120029.735000", "120029.757000", "120029.760000", "120029.763000", "120029.766000", "120109.671000", "120109.674000", "120109.677000", "120109.681000", "120109.684000", "120109.687000", "120109.690000", "120109.693000", "120109.696000", "120109.699000", "120109.702000", "120109.705000", "120109.709000", "120109.712000", "120109.715000", "120109.717000", "120109.721000", "120109.724000", "120109.727000", "120109.730000", "120109.733000", "120109.736000", "120109.739000", "120109.742000", "120109.745000", "120109.748000", "120109.751000", "120149.670000", "120149.673000", "120149.676000", "120149.680000", "120149.683000", "120149.686000", "120149.689000", "120149.692000", "120149.695000", "120149.698000", "120149.701000", "120149.704000", "120149.708000", "120149.711000", "120149.714000", "120149.717000", "120149.720000", "120149.723000", "120149.726000", "120149.729000", "120149.732000", "120149.735000", "120149.738000", "120149.742000", "120149.745000", "120149.748000", "120149.751000", "120229.670000", "120229.673000", "120229.676000", "120229.679000", "120229.683000", "120229.686000", "120229.689000", "120229.692000", "120229.695000", "120229.698000", "120229.701000", "120229.704000", "120229.707000", "120229.710000", "120229.713000", "120229.717000", "120229.720000", "120229.723000", "120229.726000", "120229.729000", "120229.732000", "120229.735000", "120229.738000", "120229.741000", "120229.744000", "120229.747000", "120301.536000", "120301.539000", "120301.542000", "120301.545000", "120301.558000", "120301.561000", "120301.564000", "120301.595000", "120301.598000", "120301.601000", "120301.607000", "120301.610000", "120301.613000", "120301.616000", "120301.619000", "120301.622000", "120301.633000", "120301.636000", "120301.640000", "120301.643000", "120301.646000", "120301.649000"],
      "InstanceCreationTime": ["115749.675000", "115749.679000", "115749.682000", "115749.685000", "115749.688000", "115749.699000", "115749.702000", "115749.705000", "115749.708000", "115749.711000", "115749.714000", "115749.717000", "115749.720000", "115749.723000", "115749.727000", "115749.730000", "115749.733000", "115749.736000", "115749.745000", "115749.748000", "115749.751000", "115749.754000", "115749.757000", "115749.760000", "115749.763000", "115749.766000", "115749.769000", "115749.772000", "115749.776000", "115749.779000", "115749.782000", "115829.671000", "115829.674000", "115829.677000", "115829.680000", "115829.683000", "115829.687000", "115829.703000", "115829.706000", "115829.709000", "115829.712000", "115829.715000", "115829.718000", "115829.721000", "115829.727000", "115829.730000", "115829.733000", "115829.736000", "115829.739000", "115829.742000", "115829.745000", "115829.748000", "115829.751000", "115829.754000", "115829.757000", "115829.761000", "115829.764000", "115909.671000", "115909.674000", "115909.677000", "115909.680000", "115909.683000", "115909.687000", "115909.690000", "115909.693000", "115909.696000", "115909.699000", "115909.702000", "115909.705000", "115909.708000", "115909.711000", "115909.714000", "115909.718000", "115909.721000", "115909.724000", "115909.727000", "115909.730000", "115909.733000", "115909.736000", "115909.739000", "115909.742000", "115909.746000", "115909.749000", "115909.752000", "115949.670000", "115949.673000", "115949.676000", "115949.679000", "115949.682000", "115949.685000", "115949.688000", "115949.692000", "115949.695000", "115949.698000", "115949.701000", "115949.704000", "115949.707000", "115949.710000", "115949.713000", "115949.716000", "115949.719000", "115949.722000", "115949.725000", "115949.728000", "115949.731000", "115949.734000", "115949.737000", "115949.740000", "115949.743000", "115949.747000", "115949.750000", "120029.671000", "120029.674000", "120029.677000", "120029.680000", "120029.684000", "120029.687000", "120029.689000", "120029.693000", "120029.696000", "120029.699000", "120029.702000", "120029.705000", "120029.708000", "120029.711000", "120029.714000", "120029.717000", "120029.720000", "120029.723000", "120029.726000", "120029.729000", "120029.732000", "120029.735000", "120029.757000", "120029.760000", "120029.763000", "120029.766000", "120109.671000", "120109.674000", "120109.677000", "120109.681000", "120109.684000", "120109.687000", "120109.690000", "120109.693000", "120109.696000", "120109.699000", "120109.702000", "120109.705000", "120109.709000", "120109.712000", "120109.715000", "120109.717000", "120109.721000", "120109.724000", "120109.727000", "120109.730000", "120109.733000", "120109.736000", "120109.739000", "120109.742000", "120109.745000", "120109.748000", "120109.751000", "120149.670000", "120149.673000", "120149.676000", "120149.680000", "120149.683000", "120149.686000", "120149.689000", "120149.692000", "120149.695000", "120149.698000", "120149.701000", "120149.704000", "120149.708000", "120149.711000", "120149.714000", "120149.717000", "120149.720000", "120149.723000", "120149.726000", "120149.729000", "120149.732000", "120149.735000", "120149.738000", "120149.742000", "120149.745000", "120149.748000", "120149.751000", "120229.670000", "120229.673000", "120229.676000", "120229.679000", "120229.683000", "120229.686000", "120229.689000", "120229.692000", "120229.695000", "120229.698000", "120229.701000", "120229.704000", "120229.707000", "120229.710000", "120229.713000", "120229.717000", "120229.720000", "120229.723000", "120229.726000", "120229.729000", "120229.732000", "120229.735000", "120229.738000", "120229.741000", "120229.744000", "120229.747000", "120301.536000", "120301.539000", "120301.542000", "120301.545000", "120301.558000", "120301.561000", "120301.564000", "120301.595000", "120301.598000", "120301.601000", "120301.607000", "120301.610000", "120301.613000", "120301.616000", "120301.619000", "120301.622000", "120301.633000", "120301.636000", "120301.640000", "120301.643000", "120301.646000", "120301.649000"],
      "InstanceNumber": [1, 2, 3, 4, 5, 6, 7, 8, 9, 10, 11, 12, 13, 14, 15, 16, 17, 18, 19, 20, 21, 22, 23, 24, 25, 26, 27, 28, 29, 30, 31, 32, 33, 34, 35, 36, 37, 38, 39, 40, 41, 42, 43, 44, 45, 46, 47, 48, 49, 50, 51, 52, 53, 54, 55, 56, 57, 58, 59, 60, 61, 62, 63, 64, 65, 66, 67, 68, 69, 70, 71, 72, 73, 74, 75, 76, 77, 78, 79, 80, 81, 82, 83, 84, 85, 86, 87, 88, 89, 90, 91, 92, 93, 94, 95, 96, 97, 98, 99, 100, 101, 102, 103, 104, 105, 106, 107, 108, 109, 110, 111, 112, 113, 114, 115, 116, 117, 118, 119, 120, 121, 122, 123, 124, 125, 126, 127, 128, 129, 130, 131, 132, 133, 134, 135, 136, 137, 138, 139, 140, 141, 142, 143, 144, 145, 146, 147, 148, 149, 150, 151, 152, 153, 154, 155, 156, 157, 158, 159, 160, 161, 162, 163, 164, 165, 166, 167, 168, 169, 170, 171, 172, 173, 174, 175, 176, 177, 178, 179, 180, 181, 182, 183, 184, 185, 186, 187, 188, 189, 190, 191, 192, 193, 194, 195, 196, 197, 198, 199, 200, 201, 202, 203, 204, 205, 206, 207, 208, 209, 210, 211, 212, 213, 214, 215, 216, 217, 218, 219, 220, 221, 222, 223, 224, 225, 226, 227, 228, 229, 230, 231, 232, 233, 234, 235, 236, 237, 238, 239],
      "LargestImagePixelValue": [2090, 2038, 1989, 1963, 1942, 1970, 1959, 1953, 1940, 1950, 1960, 1969, 1949, 1969, 1979, 1979, 1971, 1960, 1973, 1976, 1999, 1981, 1984, 1954, 1957, 1969, 1929, 1972, 1949, 1991, 1975, 1981, 1991, 1969, 1991, 1977, 1994, 1982, 1976, 1981, 1973, 1992, 1980, 2012, 2008, 1984, 1995, 1996, 1982, 1978, 1978, 1992, 2008, 1986, 1993, 1977, 1984, 1970, 1984, 1962, 1979, 1980, 2001, 2002, 2000, 1966, 1944, 1961, 1953, 1955, 1976, 1972, 1989, 1992, 1979, 1973, 1983, 1986, 1976, 2186, 2100, 1965, 1981, 1964, 1979, 1981, 1976, 1968, 1959, 1965, 1964, 1968, 1972, 1961, 1969, 1956, 2006, 2248, 2153, 2293, 2206, 2221, 2177, 2139, 2248, 2264, 2294, 1928, 1938, 1949, 1962, 1956, 1945, 1958, 1941, 1920, 1941, 1962, 1966, 1953, 1930, 1938, 1935, 1961, 1953, 1956, 1973, 1946, 1962, 1941, 1945, 1960, 1941, 1942, 1967, 1952, 1946, 1936, 1950, 1960, 1941, 1950, 1952, 1991, 2015, 1993, 1981, 1968, 1979, 2001, 2005, 2015, 1988, 1993, 1974, 1970, 1980, 1975, 1962, 1949, 1935, 1960, 1984, 1990, 1966, 1979, 1949, 1966, 1955, 2016, 1996, 2007, 2008, 2012, 2012, 2060, 2006, 1981, 1978, 1930, 1958, 1955, 1945, 1906, 1906, 1911, 1904, 1927, 1930, 1933, 1912, 1903, 1944, 1953, 1979, 1987, 1970, 1966, 1963, 1970, 1960, 1946, 1939, 1964, 1990, 2010, 1996, 2017, 2023, 1967, 1970, 1969, 1985, 1996, 1940, 2193, 2002, 1961, 1985, 1987, 1990, 1955, 1946, 1972, 1971, 1947, 1940, 1970, 1967, 1979, 1945, 1936, 1937, 1939, 1926, 1955, 1955, 1932, 1950],
      "WindowCenter": [711.0, 708.0, 706.0, 706.0, 707.0, 707.0, 706.0, 706.0, 705.0, 705.0, 705.0, 706.0, 707.0, 708.0, 709.0, 709.0, 710.0, 710.0, 710.0, 711.0, 710.0, 709.0, 709.0, 708.0, 708.0, 707.0, 707.0, 709.0, 709.0, 710.0, 710.0, 710.0, 710.0, 710.0, 710.0, 710.0, 711.0, 710.0, 709.0, 709.0, 709.0, 709.0, 710.0, 712.0, 711.0, 710.0, 708.0, 708.0, 708.0, 708.0, 708.0, 711.0, 712.0, 711.0, 711.0, 710.0, 709.0, 709.0, 708.0, 708.0, 709.0, 710.0, 710.0, 709.0, 708.0, 707.0, 707.0, 708.0, 708.0, 709.0, 709.0, 709.0, 710.0, 711.0, 711.0, 710.0, 711.0, 710.0, 709.0, 710.0, 710.0, 709.0, 710.0, 710.0, 710.0, 710.0, 709.0, 707.0, 707.0, 707.0, 706.0, 708.0, 710.0, 710.0, 709.0, 708.0, 707.0, 710.0, 709.0, 711.0, 710.0, 711.0, 711.0, 710.0, 711.0, 712.0, 712.0, 707.0, 707.0, 708.0, 710.0, 710.0, 710.0, 710.0, 709.0, 709.0, 709.0, 709.0, 710.0, 709.0, 708.0, 708.0, 708.0, 708.0, 709.0, 709.0, 710.0, 710.0, 709.0, 708.0, 709.0, 709.0, 709.0, 709.0, 709.0, 709.0, 708.0, 708.0, 709.0, 708.0, 708.0, 708.0, 709.0, 710.0, 710.0, 710.0, 709.0, 708.0, 708.0, 709.0, 710.0, 709.0, 708.0, 708.0, 708.0, 708.0, 707.0, 707.0, 708.0, 707.0, 708.0, 708.0, 709.0, 709.0, 708.0, 708.0, 708.0, 708.0, 708.0, 709.0, 709.0, 709.0, 710.0, 710.0, 710.0, 712.0, 711.0, 710.0, 708.0, 707.0, 707.0, 706.0, 706.0, 705.0, 705.0, 705.0, 703.0, 703.0, 704.0, 704.0, 702.0, 702.0, 704.0, 705.0, 706.0, 707.0, 709.0, 708.0, 708.0, 707.0, 706.0, 706.0, 706.0, 708.0, 709.0, 710.0, 710.0, 710.0, 710.0, 709.0, 710.0, 711.0, 712.0, 711.0, 711.0, 713.0, 710.0, 707.0, 707.0, 708.0, 709.0, 708.0, 709.0, 710.0, 709.0, 708.0, 708.0, 709.0, 711.0, 710.0, 708.0, 707.0, 706.0, 706.0, 705.0, 704.0, 705.0, 704.0, 704.0],
      "WindowWidth": [1528.0, 1520.0, 1517.0, 1516.0, 1518.0, 1519.0, 1517.0, 1515.0, 1514.0, 1514.0, 1514.0, 1517.0, 1520.0, 1522.0, 1523.0, 1524.0, 1526.0, 1526.0, 1527.0, 1528.0, 1527.0, 1525.0, 1523.0, 1522.0, 1521.0, 1519.0, 1518.0, 1522.0, 1524.0, 1526.0, 1526.0, 1527.0, 1526.0, 1525.0, 1526.0, 1528.0, 1529.0, 1527.0, 1524.0, 1523.0, 1523.0, 1525.0, 1526.0, 1531.0, 1529.0, 1525.0, 1521.0, 1521.0, 1521.0, 1521.0, 1522.0, 1528.0, 1531.0, 1528.0, 1528.0, 1525.0, 1523.0, 1522.0, 1522.0, 1522.0, 1524.0, 1526.0, 1526.0, 1524.0, 1522.0, 1519.0, 1518.0, 1520.0, 1521.0, 1523.0, 1522.0, 1524.0, 1527.0, 1530.0, 1528.0, 1527.0, 1529.0, 1527.0, 1524.0, 1526.0, 1526.0, 1523.0, 1525.0, 1525.0, 1527.0, 1525.0, 1523.0, 1518.0, 1517.0, 1518.0, 1517.0, 1520.0, 1525.0, 1527.0, 1525.0, 1520.0, 1519.0, 1524.0, 1524.0, 1528.0, 1527.0, 1528.0, 1528.0, 1526.0, 1529.0, 1530.0, 1530.0, 1519.0, 1519.0, 1521.0, 1525.0, 1526.0, 1527.0, 1527.0, 1525.0, 1523.0, 1523.0, 1524.0, 1525.0, 1524.0, 1521.0, 1520.0, 1520.0, 1521.0, 1522.0, 1524.0, 1526.0, 1525.0, 1524.0, 1522.0, 1523.0, 1523.0, 1522.0, 1523.0, 1523.0, 1522.0, 1520.0, 1520.0, 1522.0, 1522.0, 1521.0, 1521.0, 1523.0, 1526.0, 1527.0, 1525.0, 1523.0, 1520.0, 1520.0, 1523.0, 1526.0, 1524.0, 1521.0, 1521.0, 1522.0, 1522.0, 1519.0, 1519.0, 1520.0, 1520.0, 1520.0, 1522.0, 1525.0, 1523.0, 1522.0, 1521.0, 1520.0, 1520.0, 1520.0, 1524.0, 1525.0, 1524.0, 1525.0, 1527.0, 1527.0, 1531.0, 1529.0, 1525.0, 1522.0, 1518.0, 1518.0, 1515.0, 1515.0, 1514.0, 1515.0, 1513.0, 1508.0, 1507.0, 1510.0, 1510.0, 1507.0, 1507.0, 1511.0, 1513.0, 1516.0, 1519.0, 1524.0, 1522.0, 1520.0, 1519.0, 1517.0, 1515.0, 1516.0, 1520.0, 1523.0, 1525.0, 1526.0, 1528.0, 1527.0, 1524.0, 1526.0, 1530.0, 1531.0, 1528.0, 1528.0, 1535.0, 1526.0, 1519.0, 1518.0, 1521.0, 1522.0, 1522.0, 1523.0, 1526.0, 1524.0, 1521.0, 1521.0, 1525.0, 1528.0, 1527.0, 1522.0, 1518.0, 1515.0, 1514.0, 1512.0, 1511.0, 1512.0, 1511.0, 1511.0]
    },
    "slices": {}
  }
}