{
  "AcquisitionMatrixPE": 72,
  "AcquisitionNumber": 1,
  "AcquisitionTime": "11:42:30.612500",
  "BandwidthPerPixelPhaseEncode": 17.943,
  "BaseResolution": 96,
  "BodyPartExamined": "BRAIN",
  "CoilCombinationMethod": "Sum of Squares",
  "ConsistencyInfo": "N4_VE11C_LATEST_20160120",
  "ConversionSoftware": "dcm2niix",
  "ConversionSoftwareVersion": "v1.0.20211006",
  "DerivedVendorReportedEchoSpacing": 0.000552897,
  "DeviceSerialNumber": "166011",
  "EchoTime": 0.03,
  "EchoTrainLength": 58,
  "EffectiveEchoSpacing": 0.000580542,
  "FlipAngle": 62,
  "ImageOrientationPatientDICOM": [0.993688, -0.0702486, 0.0874601, 0.0834422, 0.983952, -0.157721],
  "ImageType": [
    "ORIGINAL",
    "PRIMARY",
    "M",
    "ND",
    "MOSAIC"
],
  "ImagingFrequency": 123.26,
  "InPlanePhaseEncodingDirectionDICOM": "COL",
  "InstitutionAddress": "West 130th Street 610,NY,NYC,US,10025",
  "InstitutionName": "MBBI",
  "MRAcquisitionType": "2D",
  "MagneticFieldStrength": 3,
  "Manufacturer": "Siemens",
  "ManufacturersModelName": "Prisma",
  "Modality": "MR",
  "MultibandAccelerationFactor": 3,
  "PartialFourier": 0.75,
  "PatientPosition": "HFS",
  "PercentPhaseFOV": 100,
  "PercentSampling": 75,
  "PhaseEncodingDirection": "j-",
  "PhaseEncodingSteps": 58,
  "PhaseOversampling": 0.05,
  "PhaseResolution": 0.75,
  "PixelBandwidth": 2265,
  "ProcedureStepDescription": "White^Word_recognition",
  "ProtocolName": "func_language_run1",
  "PulseSequenceDetails": "%SiemensSeq%\\ep2d_bold",
  "ReceiveCoilActiveElements": "HC1-7",
  "ReceiveCoilName": "HeadNeck_64",
  "ReconMatrixPE": 96,
  "RefLinesPE": 40,
  "RepetitionTime": 1.5,
  "SAR": 0.0496398,
  "ScanOptions": "PFP\\FS",
  "ScanningSequence": "EP",
  "SequenceName": "*epfid2d1_72",
  "SequenceVariant": "SK\\OSP",
  "SeriesDescription": "func_language_run1",
  "SeriesNumber": 11,
  "ShimSetting": [-1130, -1346, 684, 524, -106, 14, -39, -42],
  "SliceThickness": 2,
  "SliceTiming": [1.0775, 0, 0.74, 0.0675, 0.8075, 0.135, 0.875, 0.2025, 0.9425, 0.27, 1.01, 0.405, 1.145, 0.4725, 1.2125, 0.54, 1.28, 0.605, 1.345, 0.6725, 1.4125, 0.3375, 1.0775, 0, 0.74, 0.0675, 0.8075, 0.135, 0.875, 0.2025, 0.9425, 0.27, 1.01, 0.405, 1.145, 0.4725, 1.2125, 0.54, 1.28, 0.605, 1.345, 0.6725, 1.4125, 0.3375, 1.0775, 0, 0.74, 0.0675, 0.8075, 0.135, 0.875, 0.2025, 0.9425, 0.27, 1.01, 0.405, 1.145, 0.4725, 1.2125, 0.54, 1.28, 0.605, 1.345, 0.6725, 1.4125, 0.3375],
  "SoftwareVersions": "syngo MR E11",
  "SpacingBetweenSlices": 2,
  "StationName": "AWP166011",
  "TaskName": "langLoc",
  "TotalReadoutTime": 0.0551515,
  "TxRefAmp": 232.918,
  "dcmmeta_affine": [
    [-1.9873759746551514, 0.16688449680805206, 0.1499537229537964, 90.57545471191406],
    [0.14049722254276276, 1.967903971672058, -0.3280467391014099, -74.55470275878906],
    [0.1749202162027359, 0.3154420554637909, 1.9672060012817383, -96.70955657958984],
    [0.0, 0.0, 0.0, 1.0]
],
  "dcmmeta_reorient_transform": [
    [0.0, -1.0, 0.0, 95.0],
    [1.0, 0.0, 0.0, 0.0],
    [0.0, 0.0, 1.0, 0.0],
    [0.0, 0.0, 0.0, 1.0]
],
  "dcmmeta_shape": [96, 96, 66, 239],
  "dcmmeta_slice_dim": 2,
  "dcmmeta_version": 0.6,
  "global": {
    "const": {
      "AcquisitionMatrix": [96, 0, 0, 72],
      "AngioFlag": "N",
      "BitsAllocated": 16,
      "BitsStored": 12,
      "BodyPartExamined": "BRAIN",
      "Columns": 864,
      "EchoNumbers": 1,
      "EchoTime": 30.0,
      "EchoTrainLength": 58,
      "FlipAngle": 62.0,
      "HighBit": 11,
      "ImageOrientationPatient": [0.99368801030666, -0.070248613087, 0.08746010823313, 0.08344224595736, 0.98395196407936, -0.1577210321231],
      "ImagePositionPatient": [-933.66551504302, -814.12034596849, -12.782171622356],
      "ImageType": [
        "ORIGINAL",
        "PRIMARY",
        "M",
        "ND",
        "MOSAIC"
],
      "ImagedNucleus": "1H",
      "ImagingFrequency": 123.259506,
      "InPlanePhaseEncodingDirection": "COL",
      "MRAcquisitionType": "2D",
      "MagneticFieldStrength": 3.0,
      "Manufacturer": "SIEMENS",
      "ManufacturerModelName": "Prisma",
      "Modality": "MR",
      "NumberOfAverages": 1.0,
      "NumberOfPhaseEncodingSteps": 58,
      "PercentPhaseFieldOfView": 100.0,
      "PercentSampling": 75.0,
      "PerformedProcedureStepStartTime": "110049.491000",
      "PhotometricInterpretation": "MONOCHROME2",
      "PixelBandwidth": 2265.0,
      "PixelRepresentation": 0,
      "PixelSpacing": [2.0, 2.0],
      "ProtocolName": "func_language_run1",
      "RepetitionTime": 1500.0,
      "Rows": 864,
      "SAR": 0.04963983247844,
      "SamplesPerPixel": 1,
      "ScanOptions": [
        "PFP",
        "FS"
],
      "ScanningSequence": "EP",
      "SequenceName": "*epfid2d1_72",
      "SequenceVariant": [
        "SK",
        "OSP"
],
      "SeriesDescription": "func_language_run1",
      "SeriesNumber": 11,
      "SeriesTime": "114249.178000",
      "SliceLocation": -76.104031815058,
      "SliceThickness": 2.0,
      "SmallestImagePixelValue": 0,
      "SoftwareVersions": "syngo MR E11",
      "SpacingBetweenSlices": 2.0000000387071,
      "SpecificCharacterSet": "ISO_IR 100",
      "StudyID": "3",
      "StudyTime": "110049.424000",
      "TransmitCoilName": "Body",
      "VariableFlipAngleFlag": "N",
      "WindowCenterWidthExplanation": "Algo1",
      "dBdt": 0.0},
    "slices": {}
  },
  "time": {
    "samples": {
      "AcquisitionNumber": [1, 2, 3, 4, 5, 6, 7, 8, 9, 10, 11, 12, 13, 14, 15, 16, 17, 18, 19, 20, 21, 22, 23, 24, 25, 26, 27, 28, 29, 30, 31, 32, 33, 34, 35, 36, 37, 38, 39, 40, 41, 42, 43, 44, 45, 46, 47, 48, 49, 50, 51, 52, 53, 54, 55, 56, 57, 58, 59, 60, 61, 62, 63, 64, 65, 66, 67, 68, 69, 70, 71, 72, 73, 74, 75, 76, 77, 78, 79, 80, 81, 82, 83, 84, 85, 86, 87, 88, 89, 90, 91, 92, 93, 94, 95, 96, 97, 98, 99, 100, 101, 102, 103, 104, 105, 106, 107, 108, 109, 110, 111, 112, 113, 114, 115, 116, 117, 118, 119, 120, 121, 122, 123, 124, 125, 126, 127, 128, 129, 130, 131, 132, 133, 134, 135, 136, 137, 138, 139, 140, 141, 142, 143, 144, 145, 146, 147, 148, 149, 150, 151, 152, 153, 154, 155, 156, 157, 158, 159, 160, 161, 162, 163, 164, 165, 166, 167, 168, 169, 170, 171, 172, 173, 174, 175, 176, 177, 178, 179, 180, 181, 182, 183, 184, 185, 186, 187, 188, 189, 190, 191, 192, 193, 194, 195, 196, 197, 198, 199, 200, 201, 202, 203, 204, 205, 206, 207, 208, 209, 210, 211, 212, 213, 214, 215, 216, 217, 218, 219, 220, 221, 222, 223, 224, 225, 226, 227, 228, 229, 230, 231, 232, 233, 234, 235, 236, 237, 238, 239],
      "AcquisitionTime": ["114230.612500", "114232.112500", "114233.612500", "114235.112500", "114236.612500", "114238.112500", "114239.612500", "114241.112500", "114242.612500", "114244.112500", "114245.612500", "114247.112500", "114248.612500", "114250.112500", "114251.612500", "114253.112500", "114254.612500", "114256.112500", "114257.612500", "114259.112500", "114300.612500", "114302.112500", "114303.612500", "114305.112500", "114306.612500", "114308.112500", "114309.612500", "114311.112500", "114312.612500", "114314.112500", "114315.612500", "114317.112500", "114318.612500", "114320.112500", "114321.612500", "114323.112500", "114324.612500", "114326.112500", "114327.612500", "114329.112500", "114330.612500", "114332.112500", "114333.612500", "114335.112500", "114336.612500", "114338.112500", "114339.612500", "114341.112500", "114342.612500", "114344.112500", "114345.612500", "114347.112500", "114348.612500", "114350.112500", "114351.612500", "114353.112500", "114354.612500", "114356.112500", "114357.612500", "114359.112500", "114400.612500", "114402.112500", "114403.612500", "114405.112500", "114406.612500", "114408.112500", "114409.612500", "114411.112500", "114412.612500", "114414.112500", "114415.612500", "114417.112500", "114418.612500", "114420.112500", "114421.612500", "114423.112500", "114424.612500", "114426.112500", "114427.612500", "114429.112500", "114430.612500", "114432.112500", "114433.612500", "114435.112500", "114436.612500", "114438.112500", "114439.612500", "114441.112500", "114442.612500", "114444.112500", "114445.612500", "114447.112500", "114448.612500", "114450.112500", "114451.612500", "114453.112500", "114454.612500", "114456.112500", "114457.612500", "114459.112500", "114500.612500", "114502.112500", "114503.612500", "114505.112500", "114506.612500", "114508.112500", "114509.612500", "114511.112500", "114512.612500", "114514.112500", "114515.612500", "114517.112500", "114518.612500", "114520.112500", "114521.612500", "114523.112500", "114524.612500", "114526.112500", "114527.612500", "114529.112500", "114530.612500", "114532.112500", "114533.612500", "114535.112500", "114536.612500", "114538.112500", "114539.612500", "114541.112500", "114542.612500", "114544.112500", "114545.612500", "114547.112500", "114548.612500", "114550.112500", "114551.612500", "114553.112500", "114554.612500", "114556.112500", "114557.612500", "114559.112500", "114600.612500", "114602.112500", "114603.612500", "114605.112500", "114606.612500", "114608.112500", "114609.612500", "114611.112500", "114612.612500", "114614.112500", "114615.612500", "114617.112500", "114618.612500", "114620.112500", "114621.612500", "114623.112500", "114624.612500", "114626.112500", "114627.612500", "114629.112500", "114630.612500", "114632.112500", "114633.612500", "114635.112500", "114636.612500", "114638.112500", "114639.612500", "114641.112500", "114642.612500", "114644.112500", "114645.612500", "114647.112500", "114648.612500", "114650.112500", "114651.612500", "114653.112500", "114654.612500", "114656.112500", "114657.612500", "114659.112500", "114700.612500", "114702.112500", "114703.612500", "114705.112500", "114706.612500", "114708.112500", "114709.612500", "114711.112500", "114712.612500", "114714.112500", "114715.612500", "114717.112500", "114718.612500", "114720.112500", "114721.612500", "114723.112500", "114724.612500", "114726.112500", "114727.612500", "114729.112500", "114730.612500", "114732.112500", "114733.612500", "114735.112500", "114736.612500", "114738.112500", "114739.612500", "114741.112500", "114742.612500", "114744.112500", "114745.612500", "114747.112500", "114748.612500", "114750.112500", "114751.612500", "114753.112500", "114754.612500", "114756.112500", "114757.612500", "114759.112500", "114800.612500", "114802.112500", "114803.612500", "114805.112500", "114806.612500", "114808.112500", "114809.612500", "114811.112500", "114812.612500", "114814.112500", "114815.612500", "114817.112500", "114818.612500", "114820.112500", "114821.612500", "114823.112500", "114824.612500", "114826.112500", "114827.612500"],
      "ContentTime": ["114249.182000", "114249.196000", "114249.199000", "114249.211000", "114249.215000", "114249.218000", "114249.221000", "114249.223000", "114249.227000", "114249.230000", "114249.233000", "114249.236000", "114329.176000", "114329.180000", "114329.183000", "114329.186000", "114329.189000", "114329.192000", "114329.195000", "114329.199000", "114329.202000", "114329.205000", "114329.208000", "114329.211000", "114329.214000", "114329.217000", "114329.220000", "114329.223000", "114329.227000", "114329.230000", "114329.233000", "114329.236000", "114329.239000", "114329.242000", "114329.245000", "114329.248000", "114329.257000", "114329.260000", "114329.263000", "114409.176000", "114409.179000", "114409.183000", "114409.186000", "114409.189000", "114409.202000", "114409.206000", "114409.209000", "114409.212000", "114409.215000", "114409.218000", "114409.221000", "114409.224000", "114409.227000", "114409.230000", "114409.234000", "114409.237000", "114409.240000", "114409.244000", "114409.247000", "114409.250000", "114409.253000", "114409.256000", "114409.259000", "114409.262000", "114409.265000", "114449.177000", "114449.180000", "114449.183000", "114449.187000", "114449.190000", "114449.193000", "114449.196000", "114449.199000", "114449.202000", "114449.205000", "114449.208000", "114449.211000", "114449.214000", "114449.217000", "114449.220000", "114449.223000", "114449.226000", "114449.229000", "114449.232000", "114449.235000", "114449.238000", "114449.241000", "114449.245000", "114449.248000", "114449.251000", "114449.254000", "114449.257000", "114529.177000", "114529.180000", "114529.183000", "114529.186000", "114529.189000", "114529.192000", "114529.195000", "114529.199000", "114529.202000", "114529.205000", "114529.208000", "114529.211000", "114529.214000", "114529.217000", "114529.220000", "114529.223000", "114529.226000", "114529.235000", "114529.240000", "114529.243000", "114529.261000", "114529.264000", "114529.267000", "114529.270000", "114529.274000", "114529.277000", "114529.280000", "114609.176000", "114609.179000", "114609.183000", "114609.186000", "114609.189000", "114609.192000", "114609.195000", "114609.198000", "114609.201000", "114609.204000", "114609.207000", "114609.210000", "114609.213000", "114609.216000", "114609.219000", "114609.222000", "114609.225000", "114609.228000", "114609.232000", "114609.235000", "114609.238000", "114609.241000", "114609.245000", "114609.248000", "114609.251000", "114609.254000", "114649.177000", "114649.180000", "114649.184000", "114649.187000", "114649.190000", "114649.193000", "114649.196000", "114649.199000", "114649.202000", "114649.205000", "114649.208000", "114649.211000", "114649.214000", "114649.217000", "114649.220000", "114649.223000", "114649.227000", "114649.230000", "114649.233000", "114649.236000", "114649.239000", "114649.242000", "114649.245000", "114649.248000", "114649.251000", "114649.254000", "114649.257000", "114729.177000", "114729.180000", "114729.184000", "114729.187000", "114729.190000", "114729.193000", "114729.196000", "114729.199000", "114729.202000", "114729.205000", "114729.208000", "114729.211000", "114729.214000", "114729.217000", "114729.220000", "114729.223000", "114729.226000", "114729.230000", "114729.233000", "114729.236000", "114729.239000", "114729.242000", "114729.245000", "114729.248000", "114729.251000", "114729.254000", "114729.257000", "114809.176000", "114809.179000", "114809.183000", "114809.186000", "114809.189000", "114809.192000", "114809.195000", "114809.198000", "114809.201000", "114809.204000", "114809.207000", "114809.210000", "114809.213000", "114809.216000", "114809.219000", "114809.231000", "114809.234000", "114809.237000", "114809.241000", "114809.244000", "114809.247000", "114809.249000", "114809.253000", "114809.256000", "114809.259000", "114809.262000", "114829.003000", "114829.007000", "114829.010000", "114829.013000", "114829.017000", "114829.020000", "114829.023000", "114829.026000", "114829.030000", "114829.033000", "114829.036000", "114829.040000", "114829.043000", "114829.047000"],
      "InstanceCreationTime": ["114249.182000", "114249.196000", "114249.199000", "114249.211000", "114249.215000", "114249.218000", "114249.221000", "114249.223000", "114249.227000", "114249.230000", "114249.233000", "114249.236000", "114329.176000", "114329.180000", "114329.183000", "114329.186000", "114329.189000", "114329.192000", "114329.195000", "114329.199000", "114329.202000", "114329.205000", "114329.208000", "114329.211000", "114329.214000", "114329.217000", "114329.220000", "114329.223000", "114329.227000", "114329.230000", "114329.233000", "114329.236000", "114329.239000", "114329.242000", "114329.245000", "114329.248000", "114329.257000", "114329.260000", "114329.263000", "114409.176000", "114409.179000", "114409.183000", "114409.186000", "114409.189000", "114409.202000", "114409.206000", "114409.209000", "114409.212000", "114409.215000", "114409.218000", "114409.221000", "114409.224000", "114409.227000", "114409.230000", "114409.234000", "114409.237000", "114409.240000", "114409.244000", "114409.247000", "114409.250000", "114409.253000", "114409.256000", "114409.259000", "114409.262000", "114409.265000", "114449.177000", "114449.180000", "114449.183000", "114449.187000", "114449.190000", "114449.193000", "114449.196000", "114449.199000", "114449.202000", "114449.205000", "114449.208000", "114449.211000", "114449.214000", "114449.217000", "114449.220000", "114449.223000", "114449.226000", "114449.229000", "114449.232000", "114449.235000", "114449.238000", "114449.241000", "114449.245000", "114449.248000", "114449.251000", "114449.254000", "114449.257000", "114529.177000", "114529.180000", "114529.183000", "114529.186000", "114529.189000", "114529.192000", "114529.195000", "114529.199000", "114529.202000", "114529.205000", "114529.208000", "114529.211000", "114529.214000", "114529.217000", "114529.220000", "114529.223000", "114529.226000", "114529.235000", "114529.240000", "114529.243000", "114529.261000", "114529.264000", "114529.267000", "114529.270000", "114529.274000", "114529.277000", "114529.280000", "114609.176000", "114609.179000", "114609.183000", "114609.186000", "114609.189000", "114609.192000", "114609.195000", "114609.198000", "114609.201000", "114609.204000", "114609.207000", "114609.210000", "114609.213000", "114609.216000", "114609.219000", "114609.222000", "114609.225000", "114609.228000", "114609.232000", "114609.235000", "114609.238000", "114609.241000", "114609.245000", "114609.248000", "114609.251000", "114609.254000", "114649.177000", "114649.180000", "114649.184000", "114649.187000", "114649.190000", "114649.193000", "114649.196000", "114649.199000", "114649.202000", "114649.205000", "114649.208000", "114649.211000", "114649.214000", "114649.217000", "114649.220000", "114649.223000", "114649.227000", "114649.230000", "114649.233000", "114649.236000", "114649.239000", "114649.242000", "114649.245000", "114649.248000", "114649.251000", "114649.254000", "114649.257000", "114729.177000", "114729.180000", "114729.184000", "114729.187000", "114729.190000", "114729.193000", "114729.196000", "114729.199000", "114729.202000", "114729.205000", "114729.208000", "114729.211000", "114729.214000", "114729.217000", "114729.220000", "114729.223000", "114729.226000", "114729.230000", "114729.233000", "114729.236000", "114729.239000", "114729.242000", "114729.245000", "114729.248000", "114729.251000", "114729.254000", "114729.257000", "114809.176000", "114809.179000", "114809.183000", "114809.186000", "114809.189000", "114809.192000", "114809.195000", "114809.198000", "114809.201000", "114809.204000", "114809.207000", "114809.210000", "114809.213000", "114809.216000", "114809.219000", "114809.231000", "114809.234000", "114809.237000", "114809.241000", "114809.244000", "114809.247000", "114809.249000", "114809.253000", "114809.256000", "114809.259000", "114809.262000", "114829.003000", "114829.007000", "114829.010000", "114829.013000", "114829.017000", "114829.020000", "114829.023000", "114829.026000", "114829.030000", "114829.033000", "114829.036000", "114829.040000", "114829.043000", "114829.047000"],
      "InstanceNumber": [1, 2, 3, 4, 5, 6, 7, 8, 9, 10, 11, 12, 13, 14, 15, 16, 17, 18, 19, 20, 21, 22, 23, 24, 25, 26, 27, 28, 29, 30, 31, 32, 33, 34, 35, 36, 37, 38, 39, 40, 41, 42, 43, 44, 45, 46, 47, 48, 49, 50, 51, 52, 53, 54, 55, 56, 57, 58, 59, 60, 61, 62, 63, 64, 65, 66, 67, 68, 69, 70, 71, 72, 73, 74, 75, 76, 77, 78, 79, 80, 81, 82, 83, 84, 85, 86, 87, 88, 89, 90, 91, 92, 93, 94, 95, 96, 97, 98, 99, 100, 101, 102, 103, 104, 105, 106, 107, 108, 109, 110, 111, 112, 113, 114, 115, 116, 117, 118, 119, 120, 121, 122, 123, 124, 125, 126, 127, 128, 129, 130, 131, 132, 133, 134, 135, 136, 137, 138, 139, 140, 141, 142, 143, 144, 145, 146, 147, 148, 149, 150, 151, 152, 153, 154, 155, 156, 157, 158, 159, 160, 161, 162, 163, 164, 165, 166, 167, 168, 169, 170, 171, 172, 173, 174, 175, 176, 177, 178, 179, 180, 181, 182, 183, 184, 185, 186, 187, 188, 189, 190, 191, 192, 193, 194, 195, 196, 197, 198, 199, 200, 201, 202, 203, 204, 205, 206, 207, 208, 209, 210, 211, 212, 213, 214, 215, 216, 217, 218, 219, 220, 221, 222, 223, 224, 225, 226, 227, 228, 229, 230, 231, 232, 233, 234, 235, 236, 237, 238, 239],
      "LargestImagePixelValue": [2045, 2019, 2028, 1996, 2041, 1995, 2020, 2061, 1973, 2018, 2007, 2024, 2042, 2018, 2021, 2013, 2029, 2014, 2032, 2049, 2053, 2036, 2016, 2019, 2029, 2021, 2022, 2038, 2024, 2019, 2018, 2046, 2025, 2010, 2016, 2009, 2037, 2026, 2025, 2019, 2041, 2037, 2026, 2021, 2008, 2028, 2012, 2019, 2035, 2039, 2023, 2030, 2048, 2016, 2012, 2016, 2047, 2015, 2026, 2044, 2006, 2011, 2037, 1991, 2016, 2010, 2017, 2015, 2007, 2011, 2023, 2002, 2026, 2008, 2032, 2024, 2030, 2017, 2021, 1998, 2015, 2009, 2027, 2020, 1999, 2006, 2013, 2016, 2013, 2013, 2016, 2001, 2026, 2019, 1996, 1992, 2010, 2013, 2015, 2002, 2010, 2036, 2015, 2014, 2022, 2015, 2003, 2006, 2020, 2003, 2010, 2015, 2029, 2020, 2010, 1979, 2000, 2003, 2024, 1978, 2015, 1975, 2017, 2025, 2015, 2014, 1988, 2021, 2035, 1984, 2022, 2005, 2006, 1995, 2000, 1980, 1971, 2024, 2003, 2048, 2010, 2030, 1989, 1999, 2005, 2022, 2020, 2000, 2022, 2011, 1996, 2001, 2022, 1992, 2035, 1982, 2016, 2014, 2003, 2013, 1979, 2012, 1996, 2027, 2028, 1998, 1997, 1965, 2006, 1975, 2006, 1995, 1979, 2028, 1990, 2011, 2006, 2010, 1977, 2011, 2033, 1988, 2021, 1965, 2016, 1959, 1995, 2026, 2018, 2038, 1974, 2023, 1974, 2014, 1995, 1998, 2032, 1994, 2006, 1962, 1985, 2015, 1960, 2007, 1989, 2001, 2034, 1992, 2072, 1970, 2024, 2010, 2031, 1989, 2015, 2042, 2039, 1979, 2035, 1975, 2038, 1978, 2030, 2003, 2040, 2053, 2282, 1974, 2012, 1982, 1963, 2017, 1970, 2024, 1968, 2033, 2007, 1982, 2018],
      "WindowCenter": [719.0, 716.0, 715.0, 715.0, 716.0, 716.0, 716.0, 715.0, 714.0, 715.0, 716.0, 717.0, 718.0, 718.0, 718.0, 718.0, 717.0, 717.0, 716.0, 717.0, 718.0, 717.0, 717.0, 716.0, 717.0, 717.0, 717.0, 718.0, 717.0, 717.0, 717.0, 717.0, 718.0, 718.0, 718.0, 717.0, 717.0, 718.0, 718.0, 719.0, 718.0, 718.0, 718.0, 718.0, 717.0, 717.0, 717.0, 717.0, 718.0, 718.0, 717.0, 717.0, 717.0, 718.0, 718.0, 718.0, 719.0, 718.0, 717.0, 717.0, 716.0, 717.0, 717.0, 717.0, 716.0, 716.0, 716.0, 716.0, 716.0, 717.0, 717.0, 718.0, 718.0, 718.0, 718.0, 717.0, 718.0, 717.0, 717.0, 716.0, 716.0, 717.0, 717.0, 717.0, 717.0, 717.0, 716.0, 716.0, 717.0, 717.0, 716.0, 716.0, 717.0, 717.0, 717.0, 716.0, 716.0, 716.0, 716.0, 716.0, 716.0, 717.0, 717.0, 716.0, 717.0, 717.0, 716.0, 716.0, 717.0, 718.0, 717.0, 717.0, 717.0, 716.0, 716.0, 715.0, 715.0, 716.0, 716.0, 715.0, 715.0, 715.0, 716.0, 716.0, 716.0, 717.0, 716.0, 717.0, 717.0, 716.0, 717.0, 717.0, 717.0, 716.0, 715.0, 715.0, 715.0, 715.0, 716.0, 717.0, 716.0, 716.0, 716.0, 716.0, 716.0, 716.0, 717.0, 716.0, 716.0, 716.0, 716.0, 715.0, 716.0, 717.0, 718.0, 716.0, 716.0, 716.0, 717.0, 717.0, 717.0, 717.0, 717.0, 718.0, 717.0, 716.0, 715.0, 713.0, 713.0, 713.0, 714.0, 714.0, 715.0, 715.0, 716.0, 716.0, 715.0, 715.0, 715.0, 716.0, 716.0, 715.0, 715.0, 714.0, 715.0, 715.0, 715.0, 716.0, 716.0, 716.0, 716.0, 717.0, 717.0, 717.0, 717.0, 716.0, 716.0, 716.0, 715.0, 716.0, 717.0, 717.0, 716.0, 716.0, 715.0, 715.0, 716.0, 716.0, 717.0, 716.0, 716.0, 716.0, 716.0, 716.0, 716.0, 716.0, 716.0, 715.0, 715.0, 714.0, 715.0, 714.0, 715.0, 715.0, 716.0, 716.0, 715.0, 714.0, 718.0, 715.0, 714.0, 714.0, 713.0, 713.0, 711.0, 711.0, 710.0, 710.0, 712.0],
      "WindowWidth": [1549.0, 1541.0, 1539.0, 1539.0, 1541.0, 1541.0, 1541.0, 1540.0, 1537.0, 1539.0, 1542.0, 1544.0, 1546.0, 1547.0, 1546.0, 1545.0, 1545.0, 1544.0, 1543.0, 1544.0, 1546.0, 1545.0, 1543.0, 1542.0, 1543.0, 1545.0, 1544.0, 1545.0, 1545.0, 1545.0, 1543.0, 1545.0, 1546.0, 1547.0, 1546.0, 1544.0, 1545.0, 1546.0, 1546.0, 1548.0, 1547.0, 1548.0, 1546.0, 1546.0, 1544.0, 1545.0, 1545.0, 1545.0, 1546.0, 1545.0, 1543.0, 1544.0, 1545.0, 1546.0, 1546.0, 1548.0, 1549.0, 1546.0, 1545.0, 1544.0, 1542.0, 1544.0, 1544.0, 1542.0, 1541.0, 1541.0, 1540.0, 1541.0, 1542.0, 1544.0, 1545.0, 1545.0, 1547.0, 1547.0, 1546.0, 1544.0, 1545.0, 1545.0, 1544.0, 1541.0, 1542.0, 1543.0, 1544.0, 1544.0, 1544.0, 1544.0, 1542.0, 1541.0, 1543.0, 1543.0, 1542.0, 1542.0, 1544.0, 1545.0, 1544.0, 1541.0, 1541.0, 1540.0, 1540.0, 1541.0, 1542.0, 1543.0, 1543.0, 1542.0, 1543.0, 1543.0, 1541.0, 1541.0, 1544.0, 1545.0, 1543.0, 1543.0, 1542.0, 1542.0, 1542.0, 1540.0, 1540.0, 1540.0, 1542.0, 1539.0, 1539.0, 1538.0, 1540.0, 1542.0, 1542.0, 1543.0, 1542.0, 1543.0, 1543.0, 1541.0, 1543.0, 1543.0, 1543.0, 1540.0, 1539.0, 1538.0, 1538.0, 1539.0, 1541.0, 1543.0, 1541.0, 1541.0, 1540.0, 1540.0, 1542.0, 1542.0, 1543.0, 1540.0, 1541.0, 1540.0, 1540.0, 1540.0, 1541.0, 1543.0, 1546.0, 1542.0, 1542.0, 1542.0, 1543.0, 1544.0, 1543.0, 1543.0, 1544.0, 1545.0, 1544.0, 1540.0, 1537.0, 1533.0, 1533.0, 1533.0, 1536.0, 1537.0, 1537.0, 1539.0, 1541.0, 1541.0, 1539.0, 1539.0, 1538.0, 1540.0, 1540.0, 1538.0, 1538.0, 1537.0, 1538.0, 1537.0, 1538.0, 1540.0, 1541.0, 1542.0, 1540.0, 1543.0, 1544.0, 1544.0, 1542.0, 1542.0, 1541.0, 1540.0, 1539.0, 1541.0, 1543.0, 1543.0, 1540.0, 1541.0, 1539.0, 1538.0, 1540.0, 1541.0, 1544.0, 1541.0, 1541.0, 1541.0, 1542.0, 1540.0, 1540.0, 1540.0, 1542.0, 1538.0, 1539.0, 1537.0, 1537.0, 1535.0, 1537.0, 1539.0, 1540.0, 1540.0, 1538.0, 1537.0, 1545.0, 1539.0, 1536.0, 1534.0, 1532.0, 1531.0, 1527.0, 1527.0, 1526.0, 1526.0, 1529.0]
    },
    "slices": {}
  }
}