{
  "AcquisitionMatrixPE": 70,
  "AcquisitionNumber": 1,
  "AcquisitionTime": "15:59:2.800000",
  "BaseResolution": 70,
  "BodyPartExamined": "BRAIN",
  "CoilCombinationMethod": "Sum of Squares",
  "ConsistencyInfo": "N4_VE11C_LATEST_20160120",
  "ConversionSoftware": "dcm2niix",
  "ConversionSoftwareVersion": "v1.0.20211006",
  "DeviceSerialNumber": "166011",
  "EchoNumber": 2,
  "EchoTime": 0.00738,
  "EchoTime1": 0.00492,
  "EchoTime2": 0.00738,
  "FlipAngle": 60,
  "ImageOrientationPatientDICOM": [
    0.999943,
    -0.0024469,
    0.0104159,
    0.00261785,
    0.999862,
    -0.0164309
  ],
  "ImageType": [
    "ORIGINAL",
    "PRIMARY",
    "P",
    "ND",
    "PHASE"
  ],
  "ImagingFrequency": 123.259,
  "InPlanePhaseEncodingDirectionDICOM": "ROW",
  "InstitutionAddress": "West 130th Street 610,NY,NYC,US,10025",
  "InstitutionName": "MBBI",
  "IntendedFor": [
    "ses-1/func/sub-161_ses-1_task-catLoc_run-01_bold.nii.gz",
    "ses-1/func/sub-161_ses-1_task-catLoc_run-02_bold.nii.gz",
    "ses-1/func/sub-161_ses-1_task-vwfate_run-01_bold.nii.gz",
    "ses-1/func/sub-161_ses-1_task-vwfate_run-02_bold.nii.gz",
    "ses-1/func/sub-161_ses-1_task-vwfate_run-03_bold.nii.gz",
    "ses-1/func/sub-161_ses-1_task-vwfate_run-04_bold.nii.gz",
    "ses-1/func/sub-161_ses-1_task-vwfate_run-05_bold.nii.gz",
    "ses-1/func/sub-161_ses-1_task-vwfate_run-06_bold.nii.gz"
  ],
  "MRAcquisitionType": "2D",
  "MagneticFieldStrength": 3,
  "Manufacturer": "Siemens",
  "ManufacturersModelName": "Prisma",
  "MatrixCoilMode": "SENSE",
  "Modality": "MR",
  "MultibandAccelerationFactor": 2,
  "PartialFourier": 1,
  "PatientPosition": "HFS",
  "PercentPhaseFOV": 100,
  "PercentSampling": 100,
  "PhaseEncodingDirection": "i",
  "PhaseEncodingSteps": 70,
  "PhaseResolution": 1,
  "PixelBandwidth": 595,
  "ProcedureStepDescription": "White^Word_recognition",
  "ProtocolName": "fmap_gre_field_mapping",
  "PulseSequenceDetails": "%SiemensSeq%\\gre_field_mapping",
  "ReceiveCoilActiveElements": "HC1-7",
  "ReceiveCoilName": "HeadNeck_64",
  "ReconMatrixPE": 70,
  "RepetitionTime": 0.52,
  "SAR": 0.0969414,
  "ScanningSequence": "GR",
  "SequenceName": "*fm2d2r",
  "SequenceVariant": "SP",
  "SeriesDescription": "fmap_gre_field_mapping",
  "SeriesNumber": 17,
  "ShimSetting": [
    -1144,
    -1368,
    629,
    513,
    -60,
    -119,
    -37,
    2
  ],
  "SliceThickness": 3,
  "SliceTiming": [
    0.25,
    0,
    0.26562,
    0,
    0.28125,
    0.01562,
    0.29688,
    0.03125,
    0.29688,
    0.04688,
    0.3125,
    0.0625,
    0.32812,
    0.0625,
    0.34375,
    0.07812,
    0.35938,
    0.09375,
    0.35938,
    0.10938,
    0.375,
    0.125,
    0.39062,
    0.125,
    0.40625,
    0.14062,
    0.42188,
    0.15625,
    0.42188,
    0.17188,
    0.4375,
    0.1875,
    0.45312,
    0.1875,
    0.46875,
    0.20312,
    0.48438,
    0.21875,
    0.48438,
    0.23438,
    0.5,
    0.25
  ],
  "SoftwareVersions": "syngo MR E11",
  "SpacingBetweenSlices": 3,
  "StationName": "AWP166011",
  "TxRefAmp": 217.235,
  "dcmmeta_affine": [
    [
      -2.999828338623047,
      0.007853549905121326,
      0.031122684478759766,
      110.19786071777344
    ],
    [
      0.007340689655393362,
      2.999584674835205,
      -0.04937171936035156,
      -81.40740203857422
    ],
    [
      0.03124767169356346,
      0.049292661249637604,
      2.999431610107422,
      -67.61160278320312
    ],
    [
      0.0,
      0.0,
      0.0,
      1.0
    ]
  ],
  "dcmmeta_reorient_transform": [
    [
      0.0,
      -1.0,
      0.0,
      69.0
    ],
    [
      1.0,
      0.0,
      0.0,
      0.0
    ],
    [
      0.0,
      0.0,
      -1.0,
      41.0
    ],
    [
      0.0,
      0.0,
      0.0,
      1.0
    ]
  ],
  "dcmmeta_shape": [
    70,
    70,
    42
  ],
  "dcmmeta_slice_dim": 2,
  "dcmmeta_version": 0.6,
  "global": {
    "const": {
      "AcquisitionMatrix": [
        0,
        70,
        70,
        0
      ],
      "AcquisitionNumber": 1,
      "AngioFlag": "N",
      "BitsAllocated": 16,
      "BitsStored": 12,
      "BodyPartExamined": "BRAIN",
      "Columns": 70,
      "EchoNumbers": 2,
      "EchoTime": 7.38,
      "EchoTrainLength": 0,
      "FlipAngle": 60.0,
      "HighBit": 11,
      "ImageOrientationPatient": [
        0.99994275932012,
        -0.0024468965671,
        0.0104158907667,
        0.00261785002689,
        0.99986157683374,
        -0.0164308865487
      ],
      "ImageType": [
        "ORIGINAL",
        "PRIMARY",
        "P",
        "ND"
      ],
      "ImagedNucleus": "1H",
      "ImagingFrequency": 123.259429,
      "InPlanePhaseEncodingDirection": "ROW",
      "MRAcquisitionType": "2D",
      "MagneticFieldStrength": 3.0,
      "Manufacturer": "SIEMENS",
      "ManufacturerModelName": "Prisma",
      "Modality": "MR",
      "NumberOfAverages": 1.0,
      "NumberOfPhaseEncodingSteps": 70,
      "PercentPhaseFieldOfView": 100.0,
      "PercentSampling": 100.0,
      "PerformedProcedureStepStartTime": "150030.112000",
      "PhotometricInterpretation": "MONOCHROME2",
      "PixelBandwidth": 595.0,
      "PixelRepresentation": 0,
      "PixelSpacing": [
        3.0,
        3.0
      ],
      "ProtocolName": "fmap_gre_field_mapping",
      "RepetitionTime": 520.0,
      "RescaleIntercept": -4096.0,
      "RescaleSlope": 2.0,
      "RescaleType": "US",
      "Rows": 70,
      "SAR": 0.09694142893934,
      "SamplesPerPixel": 1,
      "ScanningSequence": "GR",
      "SequenceName": "*fm2d2r",
      "SequenceVariant": "SP",
      "SeriesDescription": "fmap_gre_field_mapping",
      "SeriesNumber": 17,
      "SeriesTime": "160015.449000",
      "SliceThickness": 3.0,
      "SoftwareVersions": "syngo MR E11",
      "SpacingBetweenSlices": 3.0,
      "SpecificCharacterSet": "ISO_IR 100",
      "StudyID": "1",
      "StudyTime": "150030.048000",
      "TransmitCoilName": "Body",
      "VariableFlipAngleFlag": "N",
      "WindowCenterWidthExplanation": "Algo1",
      "dBdt": 0.0
    },
    "slices": {
      "AcquisitionTime": [
        "155902.800000",
        "155902.540000",
        "155902.812500",
        "155902.552500",
        "155902.825000",
        "155902.565000",
        "155902.837500",
        "155902.577500",
        "155902.850000",
        "155902.590000",
        "155902.862500",
        "155902.602500",
        "155902.875000",
        "155902.615000",
        "155902.887500",
        "155902.627500",
        "155902.900000",
        "155902.640000",
        "155902.912500",
        "155902.652500",
        "155902.925000",
        "155902.665000",
        "155902.937500",
        "155902.677500",
        "155902.950000",
        "155902.690000",
        "155902.962500",
        "155902.702500",
        "155902.975000",
        "155902.715000",
        "155902.987500",
        "155902.727500",
        "155903.000000",
        "155902.740000",
        "155903.012500",
        "155902.752500",
        "155903.025000",
        "155902.765000",
        "155903.037500",
        "155902.777500",
        "155903.050000",
        "155902.790000"
      ],
      "ContentTime": [
        "160015.497000",
        "160015.451000",
        "160015.499000",
        "160015.453000",
        "160015.501000",
        "160015.456000",
        "160015.503000",
        "160015.458000",
        "160015.506000",
        "160015.460000",
        "160015.508000",
        "160015.462000",
        "160015.510000",
        "160015.464000",
        "160015.512000",
        "160015.467000",
        "160015.514000",
        "160015.469000",
        "160015.516000",
        "160015.471000",
        "160015.519000",
        "160015.473000",
        "160015.521000",
        "160015.475000",
        "160015.523000",
        "160015.477000",
        "160015.525000",
        "160015.480000",
        "160015.527000",
        "160015.482000",
        "160015.529000",
        "160015.484000",
        "160015.531000",
        "160015.486000",
        "160015.534000",
        "160015.488000",
        "160015.536000",
        "160015.491000",
        "160015.538000",
        "160015.493000",
        "160015.540000",
        "160015.495000"
      ],
      "CsaImage.ICE_Dims": [
        "X_2_1_1_1_1_1_22_1_1_1_1_185",
        "X_2_1_1_1_1_1_1_1_1_2_1_185",
        "X_2_1_1_1_1_1_23_1_1_3_1_185",
        "X_2_1_1_1_1_1_2_1_1_4_1_185",
        "X_2_1_1_1_1_1_24_1_1_5_1_185",
        "X_2_1_1_1_1_1_3_1_1_6_1_185",
        "X_2_1_1_1_1_1_25_1_1_7_1_185",
        "X_2_1_1_1_1_1_4_1_1_8_1_185",
        "X_2_1_1_1_1_1_26_1_1_9_1_185",
        "X_2_1_1_1_1_1_5_1_1_10_1_185",
        "X_2_1_1_1_1_1_27_1_1_11_1_185",
        "X_2_1_1_1_1_1_6_1_1_12_1_185",
        "X_2_1_1_1_1_1_28_1_1_13_1_185",
        "X_2_1_1_1_1_1_7_1_1_14_1_185",
        "X_2_1_1_1_1_1_29_1_1_15_1_185",
        "X_2_1_1_1_1_1_8_1_1_16_1_185",
        "X_2_1_1_1_1_1_30_1_1_17_1_185",
        "X_2_1_1_1_1_1_9_1_1_18_1_185",
        "X_2_1_1_1_1_1_31_1_1_19_1_185",
        "X_2_1_1_1_1_1_10_1_1_20_1_185",
        "X_2_1_1_1_1_1_32_1_1_21_1_185",
        "X_2_1_1_1_1_1_11_1_1_22_1_185",
        "X_2_1_1_1_1_1_33_1_1_23_1_185",
        "X_2_1_1_1_1_1_12_1_1_24_1_185",
        "X_2_1_1_1_1_1_34_1_1_25_1_185",
        "X_2_1_1_1_1_1_13_1_1_26_1_185",
        "X_2_1_1_1_1_1_35_1_1_27_1_185",
        "X_2_1_1_1_1_1_14_1_1_28_1_185",
        "X_2_1_1_1_1_1_36_1_1_29_1_185",
        "X_2_1_1_1_1_1_15_1_1_30_1_185",
        "X_2_1_1_1_1_1_37_1_1_31_1_185",
        "X_2_1_1_1_1_1_16_1_1_32_1_185",
        "X_2_1_1_1_1_1_38_1_1_33_1_185",
        "X_2_1_1_1_1_1_17_1_1_34_1_185",
        "X_2_1_1_1_1_1_39_1_1_35_1_185",
        "X_2_1_1_1_1_1_18_1_1_36_1_185",
        "X_2_1_1_1_1_1_40_1_1_37_1_185",
        "X_2_1_1_1_1_1_19_1_1_38_1_185",
        "X_2_1_1_1_1_1_41_1_1_39_1_185",
        "X_2_1_1_1_1_1_20_1_1_40_1_185",
        "X_2_1_1_1_1_1_42_1_1_41_1_185",
        "X_2_1_1_1_1_1_21_1_1_42_1_185"
      ],
      "CsaImage.ProtocolSliceNumber": [
        0,
        1,
        2,
        3,
        4,
        5,
        6,
        7,
        8,
        9,
        10,
        11,
        12,
        13,
        14,
        15,
        16,
        17,
        18,
        19,
        20,
        21,
        22,
        23,
        24,
        25,
        26,
        27,
        28,
        29,
        30,
        31,
        32,
        33,
        34,
        35,
        36,
        37,
        38,
        39,
        40,
        41
      ],
      "CsaImage.SlicePosition_PCS": [
        [
          -110.73975498,
          -125.56393724,
          -64.21043594
        ],
        [
          -110.77087766,
          -125.51456552,
          -61.21100433
        ],
        [
          -110.80200035,
          -125.4651938,
          -58.21157272
        ],
        [
          -110.83312303,
          -125.41582208,
          -55.21214111
        ],
        [
          -110.86424572,
          -125.36645036,
          -52.21270569
        ],
        [
          -110.8953684,
          -125.31707864,
          -49.21327408
        ],
        [
          -110.92649156,
          -125.26770692,
          -46.21384247
        ],
        [
          -110.95761425,
          -125.21833521,
          -43.21441086
        ],
        [
          -110.98873693,
          -125.16896539,
          -40.21497925
        ],
        [
          -111.01985962,
          -125.11959367,
          -37.21554764
        ],
        [
          -111.0509823,
          -125.07022195,
          -34.21611221
        ],
        [
          -111.08210499,
          -125.02085024,
          -31.2166806
        ],
        [
          -111.11322767,
          -124.97147852,
          -28.21724899
        ],
        [
          -111.14435036,
          -124.9221068,
          -25.21781738
        ],
        [
          -111.17547304,
          -124.87273508,
          -22.21838386
        ],
        [
          -111.20659572,
          -124.82336336,
          -19.21895225
        ],
        [
          -111.23771889,
          -124.77399164,
          -16.21952064
        ],
        [
          -111.26884157,
          -124.72461992,
          -13.22008808
        ],
        [
          -111.29996425,
          -124.6752482,
          -10.22065551
        ],
        [
          -111.33108694,
          -124.62587648,
          -7.22122343
        ],
        [
          -111.36220962,
          -124.57650476,
          -4.22179134
        ],
        [
          -111.39333231,
          -124.52713304,
          -1.2223589
        ],
        [
          -111.42445499,
          -124.47776132,
          1.77707343
        ],
        [
          -111.45557768,
          -124.4283896,
          4.7765054
        ],
        [
          -111.48670036,
          -124.37901788,
          7.77593796
        ],
        [
          -111.51782305,
          -124.32964616,
          10.77537052
        ],
        [
          -111.54894621,
          -124.28027444,
          13.77480213
        ],
        [
          -111.58006889,
          -124.23090273,
          16.7742347
        ],
        [
          -111.61119158,
          -124.18153101,
          19.77366631
        ],
        [
          -111.64231426,
          -124.13215929,
          22.77309983
        ],
        [
          -111.67343695,
          -124.08278757,
          25.77253144
        ],
        [
          -111.70455963,
          -124.03341585,
          28.77196305
        ],
        [
          -111.73568231,
          -123.98404604,
          31.77139656
        ],
        [
          -111.766805,
          -123.93467432,
          34.77082627
        ],
        [
          -111.79792768,
          -123.8853026,
          37.77026169
        ],
        [
          -111.82905084,
          -123.83593088,
          40.7696933
        ],
        [
          -111.86017353,
          -123.78655916,
          43.76912491
        ],
        [
          -111.89129621,
          -123.73718744,
          46.76855652
        ],
        [
          -111.9224189,
          -123.68781572,
          49.76798813
        ],
        [
          -111.95354158,
          -123.638444,
          52.76741974
        ],
        [
          -111.98466427,
          -123.58907228,
          55.76685517
        ],
        [
          -112.01578695,
          -123.53970056,
          58.76628678
        ]
      ],
      "CsaImage.TimeAfterStart": [
        0.78,
        0.52,
        0.7925,
        0.5325,
        0.805,
        0.545,
        0.8175,
        0.5575,
        0.83,
        0.57,
        0.8425,
        0.5825,
        0.855,
        0.595,
        0.8675,
        0.6075,
        0.88,
        0.62,
        0.8925,
        0.6325,
        0.905,
        0.645,
        0.9175,
        0.6575,
        0.93,
        0.67,
        0.9425,
        0.6825,
        0.955,
        0.695,
        0.9675,
        0.7075,
        0.98,
        0.72,
        0.9925,
        0.7325,
        1.005,
        0.745,
        1.0175,
        0.7575,
        1.03,
        0.77
      ],
      "ImagePositionPatient": [
        [
          -110.73975498028,
          -125.56393724099,
          -64.210435940937
        ],
        [
          -110.77087766476,
          -125.51456552163,
          -61.21100433083
        ],
        [
          -110.80200034923,
          -125.46519380227,
          -58.211572720722
        ],
        [
          -110.83312303371,
          -125.41582208291,
          -55.212141110615
        ],
        [
          -110.86424571819,
          -125.36645036355,
          -52.21270568581
        ],
        [
          -110.89536840267,
          -125.31707864419,
          -49.213274075703
        ],
        [
          -110.92649156399,
          -125.26770692483,
          -46.213842465595
        ],
        [
          -110.95761424847,
          -125.21833520547,
          -43.214410855488
        ],
        [
          -110.98873693294,
          -125.16896539346,
          -40.21497924538
        ],
        [
          -111.01985961742,
          -125.1195936741,
          -37.215547635273
        ],
        [
          -111.0509823019,
          -125.07022195474,
          -34.216112210468
        ],
        [
          -111.08210498638,
          -125.02085023537,
          -31.216680600361
        ],
        [
          -111.11322767086,
          -124.97147851601,
          -28.217248990253
        ],
        [
          -111.14435035534,
          -124.92210679665,
          -25.217817380146
        ],
        [
          -111.17547303982,
          -124.87273507729,
          -22.21838386269
        ],
        [
          -111.2065957243,
          -124.82336335793,
          -19.218952252582
        ],
        [
          -111.23771888561,
          -124.77399163857,
          -16.219520642475
        ],
        [
          -111.26884157009,
          -124.72461991921,
          -13.220088078693
        ],
        [
          -111.29996425457,
          -124.67524819985,
          -10.220655514912
        ],
        [
          -111.33108693905,
          -124.62587648049,
          -7.221223427967
        ],
        [
          -111.36220962353,
          -124.57650476113,
          -4.2217913410224
        ],
        [
          -111.393332308,
          -124.52713304177,
          -1.22235889645
        ],
        [
          -111.42445499248,
          -124.47776132241,
          1.7770734289132
        ],
        [
          -111.45557767696,
          -124.42838960305,
          4.7765053966485
        ],
        [
          -111.48670036144,
          -124.37901788369,
          7.7759379604302
        ],
        [
          -111.51782304592,
          -124.32964616433,
          10.775370524212
        ],
        [
          -111.54894620724,
          -124.28027444497,
          13.774802134319
        ],
        [
          -111.58006889171,
          -124.23090272561,
          16.774234698101
        ],
        [
          -111.61119157619,
          -124.18153100625,
          19.773666308209
        ],
        [
          -111.64231426067,
          -124.13215928689,
          22.773099825665
        ],
        [
          -111.67343694515,
          -124.08278756753,
          25.772531435772
        ],
        [
          -111.70455962963,
          -124.03341584817,
          28.771963045879
        ],
        [
          -111.73568231411,
          -123.98404603616,
          31.771396563335
        ],
        [
          -111.76680499859,
          -123.9346743168,
          34.770826266094
        ],
        [
          -111.79792768307,
          -123.88530259744,
          37.770261690899
        ],
        [
          -111.82905084438,
          -123.83593087807,
          40.769693301006
        ],
        [
          -111.86017352886,
          -123.78655915871,
          43.769124911114
        ],
        [
          -111.89129621334,
          -123.73718743935,
          46.768556521221
        ],
        [
          -111.92241889782,
          -123.68781571999,
          49.767988131329
        ],
        [
          -111.9535415823,
          -123.63844400063,
          52.767419741436
        ],
        [
          -111.98466426678,
          -123.58907228127,
          55.766855166241
        ],
        [
          -112.01578695125,
          -123.53970056191,
          58.766286776348
        ]
      ],
      "InstanceCreationTime": [
        "160015.497000",
        "160015.451000",
        "160015.499000",
        "160015.453000",
        "160015.501000",
        "160015.456000",
        "160015.503000",
        "160015.458000",
        "160015.506000",
        "160015.460000",
        "160015.508000",
        "160015.462000",
        "160015.510000",
        "160015.464000",
        "160015.512000",
        "160015.467000",
        "160015.514000",
        "160015.469000",
        "160015.516000",
        "160015.471000",
        "160015.519000",
        "160015.473000",
        "160015.521000",
        "160015.475000",
        "160015.523000",
        "160015.477000",
        "160015.525000",
        "160015.480000",
        "160015.527000",
        "160015.482000",
        "160015.529000",
        "160015.484000",
        "160015.531000",
        "160015.486000",
        "160015.534000",
        "160015.488000",
        "160015.536000",
        "160015.491000",
        "160015.538000",
        "160015.493000",
        "160015.540000",
        "160015.495000"
      ],
      "InstanceNumber": [
        1,
        2,
        3,
        4,
        5,
        6,
        7,
        8,
        9,
        10,
        11,
        12,
        13,
        14,
        15,
        16,
        17,
        18,
        19,
        20,
        21,
        22,
        23,
        24,
        25,
        26,
        27,
        28,
        29,
        30,
        31,
        32,
        33,
        34,
        35,
        36,
        37,
        38,
        39,
        40,
        41,
        42
      ],
      "LargestImagePixelValue": [
        4086,
        4084,
        4088,
        4094,
        4094,
        4092,
        4094,
        4092,
        4088,
        4090,
        4089,
        4093,
        4087,
        4093,
        4092,
        4091,
        4077,
        4080,
        4040,
        4092,
        4074,
        4092,
        4074,
        4076,
        4066,
        4086,
        4091,
        4047,
        4032,
        4093,
        4094,
        4061,
        4088,
        4085,
        4065,
        4086,
        4090,
        4090,
        4093,
        4094,
        4093,
        4095
      ],
      "SliceLocation": [
        -65.115875320017,
        -62.115875958038,
        -59.115876596059,
        -56.11587723408,
        -53.115874058126,
        -50.115874696147,
        -47.115875329222,
        -44.115875967243,
        -41.115876636654,
        -38.115877274675,
        -35.115874098721,
        -32.115874736742,
        -29.115875374763,
        -26.115876012784,
        -23.115874743818,
        -20.115875381839,
        -17.115876014913,
        -14.115875699441,
        -11.115875383968,
        -8.1158755452422,
        -5.1158757065165,
        -2.1158755102306,
        0.88412456686865,
        3.8841242864077,
        6.8841246018803,
        9.884124917353,
        12.884124284279,
        15.884124599751,
        18.88412396173,
        21.884125230697,
        24.884124592675,
        27.884123954654,
        30.884125192231,
        33.884122647222,
        36.884125823176,
        39.884125190102,
        42.884124552081,
        45.88412391406,
        48.884123276039,
        51.884122638017,
        54.884125813972,
        57.88412517595
      ],
      "SmallestImagePixelValue": [
        5,
        2,
        11,
        0,
        0,
        0,
        0,
        7,
        0,
        1,
        3,
        7,
        5,
        4,
        5,
        1,
        6,
        24,
        18,
        10,
        32,
        18,
        50,
        27,
        10,
        3,
        2,
        14,
        46,
        8,
        3,
        14,
        0,
        2,
        0,
        15,
        0,
        0,
        8,
        8,
        3,
        2
      ],
      "WindowCenter": [
        -406.0,
        -300.0,
        -242.0,
        -222.0,
        -194.0,
        -36.0,
        -94.0,
        -160.0,
        -220.0,
        -248.0,
        -422.0,
        -338.0,
        -86.0,
        -36.0,
        -44.0,
        -64.0,
        -76.0,
        -60.0,
        -72.0,
        -72.0,
        -58.0,
        -198.0,
        -198.0,
        -178.0,
        -170.0,
        -176.0,
        -172.0,
        -160.0,
        -166.0,
        -154.0,
        -126.0,
        -134.0,
        -132.0,
        -146.0,
        -140.0,
        -150.0,
        -176.0,
        -78.0,
        -198.0,
        -246.0,
        -256.0,
        -134.0
      ],
      "WindowWidth": [
        6246.0,
        6200.0,
        6004.0,
        6016.0,
        6002.0,
        6060.0,
        5990.0,
        5850.0,
        5812.0,
        5684.0,
        4770.0,
        4698.0,
        5376.0,
        5528.0,
        5478.0,
        5464.0,
        5376.0,
        5430.0,
        5246.0,
        5224.0,
        5190.0,
        4532.0,
        4524.0,
        4508.0,
        4496.0,
        4504.0,
        4502.0,
        4482.0,
        4500.0,
        4500.0,
        4490.0,
        4502.0,
        4502.0,
        4528.0,
        4530.0,
        4546.0,
        4574.0,
        5166.0,
        4626.0,
        4690.0,
        4720.0,
        5400.0
      ]
    }
  }
}