{
  "AcquisitionMatrixPE": 72,
  "AcquisitionNumber": 1,
  "AcquisitionTime": "15:50:50.617500",
  "BandwidthPerPixelPhaseEncode": 17.943,
  "BaseResolution": 96,
  "BodyPartExamined": "BRAIN",
  "CoilCombinationMethod": "Sum of Squares",
  "ConsistencyInfo": "N4_VE11C_LATEST_20160120",
  "ConversionSoftware": "dcm2niix",
  "ConversionSoftwareVersion": "v1.0.20211006",
  "DerivedVendorReportedEchoSpacing": 0.000552897,
  "DeviceSerialNumber": "166011",
  "EchoTime": 0.03,
  "EchoTrainLength": 58,
  "EffectiveEchoSpacing": 0.000580542,
  "FlipAngle": 62,
  "ImageOrientationPatientDICOM": [0.999341, -0.0255233, 0.0257902, 0.0268668, 0.998224, -0.053162],
  "ImageType": [
    "ORIGINAL",
    "PRIMARY",
    "M",
    "ND",
    "MOSAIC"
],
  "ImagingFrequency": 123.259,
  "InPlanePhaseEncodingDirectionDICOM": "COL",
  "InstitutionAddress": "West 130th Street 610,NY,NYC,US,10025",
  "InstitutionName": "MBBI",
  "MRAcquisitionType": "2D",
  "MagneticFieldStrength": 3,
  "Manufacturer": "Siemens",
  "ManufacturersModelName": "Prisma",
  "Modality": "MR",
  "MultibandAccelerationFactor": 3,
  "PartialFourier": 0.75,
  "PatientPosition": "HFS",
  "PercentPhaseFOV": 100,
  "PercentSampling": 75,
  "PhaseEncodingDirection": "j-",
  "PhaseEncodingSteps": 58,
  "PhaseOversampling": 0.05,
  "PhaseResolution": 0.75,
  "PixelBandwidth": 2265,
  "ProcedureStepDescription": "White^Word_recognition",
  "ProtocolName": "func_vwfate_run4",
  "PulseSequenceDetails": "%SiemensSeq%\\ep2d_bold",
  "ReceiveCoilActiveElements": "HC1-6",
  "ReceiveCoilName": "HeadNeck_64",
  "ReconMatrixPE": 96,
  "RefLinesPE": 40,
  "RepetitionTime": 1.5,
  "SAR": 0.0438037,
  "ScanOptions": "PFP\\FS",
  "ScanningSequence": "EP",
  "SequenceName": "*epfid2d1_72",
  "SequenceVariant": "SK\\OSP",
  "SeriesDescription": "func_vwfate_run4",
  "SeriesNumber": 12,
  "ShimSetting": [-1142, -1370, 674, 508, -82, -63, 112, 9],
  "SliceThickness": 2,
  "SliceTiming": [1.075, 0, 0.7375, 0.065, 0.805, 0.1325, 0.8725, 0.2, 0.94, 0.2675, 1.0075, 0.4025, 1.1425, 0.47, 1.21, 0.5375, 1.2775, 0.605, 1.345, 0.6725, 1.4125, 0.335, 1.075, 0, 0.7375, 0.065, 0.805, 0.1325, 0.8725, 0.2, 0.94, 0.2675, 1.0075, 0.4025, 1.1425, 0.47, 1.21, 0.5375, 1.2775, 0.605, 1.345, 0.6725, 1.4125, 0.335, 1.075, 0, 0.7375, 0.065, 0.805, 0.1325, 0.8725, 0.2, 0.94, 0.2675, 1.0075, 0.4025, 1.1425, 0.47, 1.21, 0.5375, 1.2775, 0.605, 1.345, 0.6725, 1.4125, 0.335],
  "SoftwareVersions": "syngo MR E11",
  "SpacingBetweenSlices": 2,
  "StationName": "AWP166011",
  "TaskName": "vwfate",
  "TotalReadoutTime": 0.0551515,
  "TxRefAmp": 228.68,
  "dcmmeta_affine": [
    [-1.998682975769043, 0.05373355746269226, 0.048775024712085724, 96.5903091430664],
    [0.051046695560216904, 1.9964488744735718, -0.10763974487781525, -65.59278869628906],
    [0.05158035457134247, 0.1063239648938179, 1.996505618095398, -66.28260803222656],
    [0.0, 0.0, 0.0, 1.0]
],
  "dcmmeta_reorient_transform": [
    [0.0, -1.0, 0.0, 95.0],
    [1.0, 0.0, 0.0, 0.0],
    [0.0, 0.0, 1.0, 0.0],
    [0.0, 0.0, 0.0, 1.0]
],
  "dcmmeta_shape": [96, 96, 66, 164],
  "dcmmeta_slice_dim": 2,
  "dcmmeta_version": 0.6,
  "global": {
    "const": {
      "AcquisitionMatrix": [96, 0, 0, 72],
      "AngioFlag": "N",
      "BitsAllocated": 16,
      "BitsStored": 12,
      "BodyPartExamined": "BRAIN",
      "Columns": 864,
      "EchoNumbers": 1,
      "EchoTime": 30.0,
      "EchoTrainLength": 58,
      "FlipAngle": 62.0,
      "HighBit": 11,
      "ImageOrientationPatient": [0.99934149592179, -0.0255233483292, 0.02579017679017, 0.02686677819489, 0.9982244136426, -0.0531619811268],
      "ImagePositionPatient": [-889.82295136024, -871.10426646655, -35.160289404001],
      "ImageType": [
        "ORIGINAL",
        "PRIMARY",
        "M",
        "ND",
        "MOSAIC"
],
      "ImagedNucleus": "1H",
      "ImagingFrequency": 123.25949,
      "InPlanePhaseEncodingDirection": "COL",
      "MRAcquisitionType": "2D",
      "MagneticFieldStrength": 3.0,
      "Manufacturer": "SIEMENS",
      "ManufacturerModelName": "Prisma",
      "Modality": "MR",
      "NumberOfAverages": 1.0,
      "NumberOfPhaseEncodingSteps": 58,
      "PercentPhaseFieldOfView": 100.0,
      "PercentSampling": 75.0,
      "PerformedProcedureStepStartTime": "150624.384000",
      "PhotometricInterpretation": "MONOCHROME2",
      "PixelBandwidth": 2265.0,
      "PixelRepresentation": 0,
      "PixelSpacing": [2.0, 2.0],
      "ProtocolName": "func_vwfate_run4",
      "RepetitionTime": 1500.0,
      "Rows": 864,
      "SAR": 0.04380369379235,
      "SamplesPerPixel": 1,
      "ScanOptions": [
        "PFP",
        "FS"
],
      "ScanningSequence": "EP",
      "SequenceName": "*epfid2d1_72",
      "SequenceVariant": [
        "SK",
        "OSP"
],
      "SeriesDescription": "func_vwfate_run4",
      "SeriesNumber": 12,
      "SeriesTime": "155129.671000",
      "SliceLocation": -60.281010185887,
      "SliceThickness": 2.0,
      "SmallestImagePixelValue": 0,
      "SoftwareVersions": "syngo MR E11",
      "SpacingBetweenSlices": 1.999999942094,
      "SpecificCharacterSet": "ISO_IR 100",
      "StudyID": "1",
      "StudyTime": "150624.300000",
      "TransmitCoilName": "Body",
      "VariableFlipAngleFlag": "N",
      "WindowCenterWidthExplanation": "Algo1",
      "dBdt": 0.0},
    "slices": {}
  },
  "time": {
    "samples": {
      "AcquisitionNumber": [1, 2, 3, 4, 5, 6, 7, 8, 9, 10, 11, 12, 13, 14, 15, 16, 17, 18, 19, 20, 21, 22, 23, 24, 25, 26, 27, 28, 29, 30, 31, 32, 33, 34, 35, 36, 37, 38, 39, 40, 41, 42, 43, 44, 45, 46, 47, 48, 49, 50, 51, 52, 53, 54, 55, 56, 57, 58, 59, 60, 61, 62, 63, 64, 65, 66, 67, 68, 69, 70, 71, 72, 73, 74, 75, 76, 77, 78, 79, 80, 81, 82, 83, 84, 85, 86, 87, 88, 89, 90, 91, 92, 93, 94, 95, 96, 97, 98, 99, 100, 101, 102, 103, 104, 105, 106, 107, 108, 109, 110, 111, 112, 113, 114, 115, 116, 117, 118, 119, 120, 121, 122, 123, 124, 125, 126, 127, 128, 129, 130, 131, 132, 133, 134, 135, 136, 137, 138, 139, 140, 141, 142, 143, 144, 145, 146, 147, 148, 149, 150, 151, 152, 153, 154, 155, 156, 157, 158, 159, 160, 161, 162, 163, 164],
      "AcquisitionTime": ["155050.617500", "155052.117500", "155053.617500", "155055.117500", "155056.617500", "155058.117500", "155059.617500", "155101.117500", "155102.617500", "155104.117500", "155105.617500", "155107.117500", "155108.617500", "155110.117500", "155111.617500", "155113.117500", "155114.617500", "155116.117500", "155117.617500", "155119.117500", "155120.617500", "155122.117500", "155123.617500", "155125.117500", "155126.617500", "155128.117500", "155129.617500", "155131.117500", "155132.617500", "155134.117500", "155135.617500", "155137.117500", "155138.617500", "155140.117500", "155141.617500", "155143.117500", "155144.617500", "155146.117500", "155147.617500", "155149.117500", "155150.617500", "155152.117500", "155153.617500", "155155.117500", "155156.617500", "155158.117500", "155159.617500", "155201.117500", "155202.617500", "155204.117500", "155205.617500", "155207.117500", "155208.617500", "155210.117500", "155211.617500", "155213.117500", "155214.617500", "155216.117500", "155217.617500", "155219.117500", "155220.617500", "155222.117500", "155223.617500", "155225.117500", "155226.617500", "155228.117500", "155229.617500", "155231.117500", "155232.617500", "155234.117500", "155235.617500", "155237.117500", "155238.617500", "155240.117500", "155241.617500", "155243.117500", "155244.617500", "155246.117500", "155247.617500", "155249.117500", "155250.617500", "155252.117500", "155253.617500", "155255.117500", "155256.617500", "155258.117500", "155259.617500", "155301.117500", "155302.617500", "155304.117500", "155305.617500", "155307.117500", "155308.617500", "155310.117500", "155311.617500", "155313.117500", "155314.617500", "155316.117500", "155317.617500", "155319.117500", "155320.617500", "155322.117500", "155323.617500", "155325.117500", "155326.617500", "155328.117500", "155329.617500", "155331.117500", "155332.617500", "155334.117500", "155335.617500", "155337.117500", "155338.617500", "155340.117500", "155341.617500", "155343.117500", "155344.617500", "155346.117500", "155347.617500", "155349.117500", "155350.617500", "155352.117500", "155353.617500", "155355.117500", "155356.617500", "155358.117500", "155359.617500", "155401.117500", "155402.617500", "155404.117500", "155405.617500", "155407.117500", "155408.617500", "155410.117500", "155411.617500", "155413.117500", "155414.617500", "155416.117500", "155417.617500", "155419.117500", "155420.617500", "155422.117500", "155423.617500", "155425.117500", "155426.617500", "155428.117500", "155429.617500", "155431.117500", "155432.617500", "155434.117500", "155435.617500", "155437.117500", "155438.617500", "155440.117500", "155441.617500", "155443.117500", "155444.617500", "155446.117500", "155447.617500", "155449.117500", "155450.617500", "155452.117500", "155453.617500", "155455.117500"],
      "ContentTime": ["155129.675000", "155129.679000", "155129.682000", "155129.685000", "155129.688000", "155129.691000", "155129.694000", "155129.698000", "155129.701000", "155129.704000", "155129.707000", "155129.710000", "155129.713000", "155129.716000", "155129.719000", "155129.728000", "155129.731000", "155129.734000", "155129.737000", "155129.740000", "155129.749000", "155129.753000", "155129.756000", "155129.759000", "155129.762000", "155129.765000", "155149.670000", "155149.673000", "155149.677000", "155149.680000", "155149.683000", "155149.685000", "155149.689000", "155149.692000", "155149.695000", "155149.710000", "155149.714000", "155149.717000", "155149.720000", "155229.671000", "155229.674000", "155229.677000", "155229.681000", "155229.684000", "155229.687000", "155229.690000", "155229.693000", "155229.696000", "155229.699000", "155229.702000", "155229.705000", "155229.708000", "155229.711000", "155229.714000", "155229.717000", "155229.720000", "155229.732000", "155229.735000", "155229.738000", "155229.741000", "155229.744000", "155229.747000", "155229.750000", "155229.753000", "155229.756000", "155229.759000", "155309.670000", "155309.673000", "155309.677000", "155309.680000", "155309.683000", "155309.686000", "155309.689000", "155309.692000", "155309.696000", "155309.699000", "155309.702000", "155309.705000", "155309.708000", "155309.711000", "155309.714000", "155309.717000", "155309.720000", "155309.723000", "155309.726000", "155309.729000", "155309.732000", "155309.735000", "155309.738000", "155309.741000", "155309.744000", "155309.747000", "155309.751000", "155349.670000", "155349.673000", "155349.676000", "155349.680000", "155349.683000", "155349.686000", "155349.689000", "155349.692000", "155349.695000", "155349.698000", "155349.701000", "155349.704000", "155349.707000", "155349.710000", "155349.713000", "155349.716000", "155349.719000", "155349.722000", "155349.725000", "155349.729000", "155349.732000", "155349.735000", "155349.738000", "155349.741000", "155349.744000", "155349.747000", "155429.671000", "155429.674000", "155429.677000", "155429.681000", "155429.684000", "155429.687000", "155429.690000", "155429.693000", "155429.696000", "155429.699000", "155429.702000", "155429.705000", "155429.708000", "155429.711000", "155429.714000", "155429.717000", "155429.720000", "155429.723000", "155429.726000", "155429.730000", "155429.733000", "155429.736000", "155429.739000", "155429.742000", "155429.745000", "155429.748000", "155429.751000", "155455.858000", "155455.862000", "155455.865000", "155455.868000", "155455.871000", "155455.874000", "155455.878000", "155455.881000", "155455.884000", "155455.887000", "155455.890000", "155455.894000", "155455.897000", "155455.900000", "155455.904000", "155455.907000", "155455.911000", "155455.914000"],
      "InstanceCreationTime": ["155129.675000", "155129.679000", "155129.682000", "155129.685000", "155129.688000", "155129.691000", "155129.694000", "155129.698000", "155129.701000", "155129.704000", "155129.707000", "155129.710000", "155129.713000", "155129.716000", "155129.719000", "155129.728000", "155129.731000", "155129.734000", "155129.737000", "155129.740000", "155129.749000", "155129.753000", "155129.756000", "155129.759000", "155129.762000", "155129.765000", "155149.670000", "155149.673000", "155149.677000", "155149.680000", "155149.683000", "155149.685000", "155149.689000", "155149.692000", "155149.695000", "155149.710000", "155149.714000", "155149.717000", "155149.720000", "155229.671000", "155229.674000", "155229.677000", "155229.681000", "155229.684000", "155229.687000", "155229.690000", "155229.693000", "155229.696000", "155229.699000", "155229.702000", "155229.705000", "155229.708000", "155229.711000", "155229.714000", "155229.717000", "155229.720000", "155229.732000", "155229.735000", "155229.738000", "155229.741000", "155229.744000", "155229.747000", "155229.750000", "155229.753000", "155229.756000", "155229.759000", "155309.670000", "155309.673000", "155309.677000", "155309.680000", "155309.683000", "155309.686000", "155309.689000", "155309.692000", "155309.696000", "155309.699000", "155309.702000", "155309.705000", "155309.708000", "155309.711000", "155309.714000", "155309.717000", "155309.720000", "155309.723000", "155309.726000", "155309.729000", "155309.732000", "155309.735000", "155309.738000", "155309.741000", "155309.744000", "155309.747000", "155309.751000", "155349.670000", "155349.673000", "155349.676000", "155349.680000", "155349.683000", "155349.686000", "155349.689000", "155349.692000", "155349.695000", "155349.698000", "155349.701000", "155349.704000", "155349.707000", "155349.710000", "155349.713000", "155349.716000", "155349.719000", "155349.722000", "155349.725000", "155349.729000", "155349.732000", "155349.735000", "155349.738000", "155349.741000", "155349.744000", "155349.747000", "155429.671000", "155429.674000", "155429.677000", "155429.681000", "155429.684000", "155429.687000", "155429.690000", "155429.693000", "155429.696000", "155429.699000", "155429.702000", "155429.705000", "155429.708000", "155429.711000", "155429.714000", "155429.717000", "155429.720000", "155429.723000", "155429.726000", "155429.730000", "155429.733000", "155429.736000", "155429.739000", "155429.742000", "155429.745000", "155429.748000", "155429.751000", "155455.858000", "155455.862000", "155455.865000", "155455.868000", "155455.871000", "155455.874000", "155455.878000", "155455.881000", "155455.884000", "155455.887000", "155455.890000", "155455.894000", "155455.897000", "155455.900000", "155455.904000", "155455.907000", "155455.911000", "155455.914000"],
      "InstanceNumber": [1, 2, 3, 4, 5, 6, 7, 8, 9, 10, 11, 12, 13, 14, 15, 16, 17, 18, 19, 20, 21, 22, 23, 24, 25, 26, 27, 28, 29, 30, 31, 32, 33, 34, 35, 36, 37, 38, 39, 40, 41, 42, 43, 44, 45, 46, 47, 48, 49, 50, 51, 52, 53, 54, 55, 56, 57, 58, 59, 60, 61, 62, 63, 64, 65, 66, 67, 68, 69, 70, 71, 72, 73, 74, 75, 76, 77, 78, 79, 80, 81, 82, 83, 84, 85, 86, 87, 88, 89, 90, 91, 92, 93, 94, 95, 96, 97, 98, 99, 100, 101, 102, 103, 104, 105, 106, 107, 108, 109, 110, 111, 112, 113, 114, 115, 116, 117, 118, 119, 120, 121, 122, 123, 124, 125, 126, 127, 128, 129, 130, 131, 132, 133, 134, 135, 136, 137, 138, 139, 140, 141, 142, 143, 144, 145, 146, 147, 148, 149, 150, 151, 152, 153, 154, 155, 156, 157, 158, 159, 160, 161, 162, 163, 164],
      "LargestImagePixelValue": [2952, 2936, 2937, 2889, 2842, 2857, 2862, 2897, 2850, 2869, 2855, 2832, 2839, 2789, 2816, 2771, 2775, 2775, 2790, 2800, 2794, 2805, 2839, 2830, 2872, 2833, 2865, 2884, 2899, 2853, 2803, 2834, 2887, 2844, 2800, 2820, 2794, 2787, 2818, 2777, 2778, 2767, 2831, 2802, 2775, 2802, 2786, 2833, 2817, 2824, 2830, 2817, 2922, 2858, 2867, 2834, 2821, 2807, 2850, 2848, 2843, 2861, 2820, 2863, 2838, 2841, 2807, 2828, 2814, 2860, 2842, 2865, 2839, 2801, 2823, 2809, 2866, 2831, 2875, 2882, 2841, 2845, 2886, 2894, 2867, 2896, 2872, 2888, 2915, 2874, 2876, 2838, 2812, 2832, 2846, 2859, 2834, 2849, 2818, 2857, 2865, 2822, 2806, 2823, 2850, 2851, 2833, 2862, 2809, 2800, 2832, 2789, 2793, 2804, 2825, 2823, 2829, 2882, 2844, 2836, 2828, 2867, 2837, 2846, 2800, 2857, 2851, 2860, 2884, 2867, 2882, 2889, 2831, 2861, 2899, 2868, 2893, 2902, 2876, 2935, 2953, 2980, 2920, 2942, 2929, 2895, 2949, 2929, 2912, 2914, 2897, 2936, 2890, 2949, 2915, 2799, 2939, 2835, 2840, 2895, 2902, 2866, 2924, 2905],
      "WindowCenter": [733.0, 732.0, 731.0, 731.0, 730.0, 730.0, 731.0, 732.0, 731.0, 731.0, 731.0, 729.0, 729.0, 728.0, 728.0, 727.0, 727.0, 726.0, 725.0, 725.0, 724.0, 724.0, 725.0, 725.0, 726.0, 727.0, 728.0, 728.0, 728.0, 726.0, 726.0, 726.0, 727.0, 727.0, 727.0, 727.0, 726.0, 726.0, 725.0, 725.0, 725.0, 726.0, 726.0, 726.0, 726.0, 726.0, 726.0, 727.0, 726.0, 726.0, 727.0, 728.0, 729.0, 729.0, 729.0, 728.0, 728.0, 727.0, 727.0, 727.0, 727.0, 727.0, 727.0, 727.0, 727.0, 727.0, 726.0, 727.0, 727.0, 728.0, 727.0, 727.0, 727.0, 726.0, 727.0, 727.0, 728.0, 729.0, 727.0, 727.0, 727.0, 728.0, 729.0, 729.0, 729.0, 729.0, 728.0, 727.0, 728.0, 728.0, 730.0, 729.0, 728.0, 728.0, 727.0, 727.0, 728.0, 727.0, 728.0, 728.0, 728.0, 727.0, 726.0, 726.0, 726.0, 726.0, 726.0, 726.0, 725.0, 725.0, 727.0, 727.0, 727.0, 725.0, 726.0, 725.0, 726.0, 727.0, 727.0, 727.0, 727.0, 728.0, 728.0, 726.0, 726.0, 726.0, 727.0, 727.0, 727.0, 726.0, 726.0, 726.0, 726.0, 726.0, 727.0, 726.0, 727.0, 727.0, 726.0, 726.0, 726.0, 727.0, 727.0, 728.0, 728.0, 728.0, 729.0, 728.0, 728.0, 726.0, 727.0, 727.0, 727.0, 728.0, 728.0, 727.0, 728.0, 726.0, 727.0, 728.0, 728.0, 728.0, 729.0, 728.0],
      "WindowWidth": [1599.0, 1594.0, 1590.0, 1591.0, 1590.0, 1590.0, 1592.0, 1593.0, 1592.0, 1592.0, 1591.0, 1587.0, 1585.0, 1582.0, 1582.0, 1581.0, 1580.0, 1577.0, 1576.0, 1574.0, 1573.0, 1574.0, 1574.0, 1576.0, 1579.0, 1582.0, 1584.0, 1582.0, 1582.0, 1579.0, 1577.0, 1578.0, 1580.0, 1580.0, 1581.0, 1580.0, 1577.0, 1577.0, 1576.0, 1575.0, 1576.0, 1576.0, 1579.0, 1577.0, 1578.0, 1579.0, 1578.0, 1580.0, 1578.0, 1579.0, 1580.0, 1584.0, 1587.0, 1586.0, 1586.0, 1584.0, 1582.0, 1580.0, 1580.0, 1579.0, 1579.0, 1581.0, 1581.0, 1582.0, 1581.0, 1579.0, 1578.0, 1580.0, 1581.0, 1582.0, 1582.0, 1581.0, 1579.0, 1578.0, 1580.0, 1581.0, 1583.0, 1584.0, 1582.0, 1581.0, 1581.0, 1582.0, 1585.0, 1586.0, 1586.0, 1587.0, 1584.0, 1582.0, 1583.0, 1585.0, 1588.0, 1586.0, 1584.0, 1583.0, 1580.0, 1580.0, 1583.0, 1581.0, 1582.0, 1582.0, 1582.0, 1579.0, 1578.0, 1579.0, 1578.0, 1578.0, 1577.0, 1578.0, 1575.0, 1576.0, 1579.0, 1580.0, 1579.0, 1576.0, 1577.0, 1575.0, 1577.0, 1581.0, 1582.0, 1581.0, 1581.0, 1584.0, 1583.0, 1579.0, 1577.0, 1578.0, 1580.0, 1580.0, 1581.0, 1579.0, 1578.0, 1577.0, 1577.0, 1579.0, 1580.0, 1579.0, 1580.0, 1580.0, 1578.0, 1579.0, 1579.0, 1581.0, 1582.0, 1585.0, 1584.0, 1584.0, 1586.0, 1584.0, 1582.0, 1579.0, 1581.0, 1580.0, 1581.0, 1585.0, 1584.0, 1580.0, 1582.0, 1578.0, 1580.0, 1584.0, 1585.0, 1584.0, 1586.0, 1582.0]
    },
    "slices": {}
  }
}