{
  "AcquisitionMatrixPE": 70,
  "AcquisitionNumber": 1,
  "AcquisitionTime": "09:10:48.800000",
  "BaseResolution": 70,
  "BodyPartExamined": "BRAIN",
  "CoilCombinationMethod": "Sum of Squares",
  "ConsistencyInfo": "N4_VE11C_LATEST_20160120",
  "ConversionSoftware": "dcm2niix",
  "ConversionSoftwareVersion": "v1.0.20211006",
  "DeviceSerialNumber": "166011",
  "DwellTime": 1.2e-05,
  "EchoNumber": 2,
  "EchoTime": 0.00738,
  "EchoTime1": 0.00492,
  "EchoTime2": 0.00738,
  "FlipAngle": 60,
  "ImageOrientationPatientDICOM": [
    0.999973,
    -0.00620207,
    0.0038434,
    0.00680671,
    0.982671,
    -0.185236
  ],
  "ImageOrientationText": "Tra>Cor(-10.7)>Sag(0.2)",
  "ImageType": [
    "ORIGINAL",
    "PRIMARY",
    "P",
    "ND",
    "PHASE"
  ],
  "ImagingFrequency": 123.26,
  "InPlanePhaseEncodingDirectionDICOM": "ROW",
  "InstitutionAddress": "West 130th Street 610,NY,NYC,US,10025",
  "InstitutionName": "MBBI",
  "InstitutionalDepartmentName": "Department",
  "IntendedFor": [
    "ses-2/func/sub-147_ses-2_task-catLoc_run-01_bold.nii.gz",
    "ses-2/func/sub-147_ses-2_task-catLoc_run-02_bold.nii.gz",
    "ses-2/func/sub-147_ses-2_task-vwfate_run-01_bold.nii.gz",
    "ses-2/func/sub-147_ses-2_task-vwfate_run-02_bold.nii.gz",
    "ses-2/func/sub-147_ses-2_task-vwfate_run-03_bold.nii.gz",
    "ses-2/func/sub-147_ses-2_task-vwfate_run-04_bold.nii.gz",
    "ses-2/func/sub-147_ses-2_task-vwfate_run-05_bold.nii.gz",
    "ses-2/func/sub-147_ses-2_task-vwfate_run-06_bold.nii.gz"
  ],
  "MRAcquisitionType": "2D",
  "MagneticFieldStrength": 3,
  "Manufacturer": "Siemens",
  "ManufacturersModelName": "Prisma",
  "MatrixCoilMode": "SENSE",
  "Modality": "MR",
  "PartialFourier": 1,
  "PatientPosition": "HFS",
  "PercentPhaseFOV": 100,
  "PercentSampling": 100,
  "PhaseEncodingDirection": "i",
  "PhaseEncodingSteps": 70,
  "PhaseResolution": 1,
  "PixelBandwidth": 595,
  "ProcedureStepDescription": "White^Word_recognition",
  "ProtocolName": "fmap_gre_field_mapping",
  "PulseSequenceDetails": "%SiemensSeq%\\gre_field_mapping",
  "ReceiveCoilActiveElements": "HC1-7",
  "ReceiveCoilName": "HeadNeck_64",
  "ReconMatrixPE": 70,
  "RepetitionTime": 0.52,
  "SAR": 0.0962589,
  "ScanningSequence": "GR",
  "SequenceName": "*fm2d2r",
  "SequenceVariant": "SP",
  "SeriesDescription": "fmap_gre_field_mapping",
  "SeriesNumber": 17,
  "ShimSetting": [
    -1160,
    -1371,
    673,
    478,
    -80,
    20,
    1,
    -7
  ],
  "SliceThickness": 3,
  "SliceTiming": [
    0.25781,
    0,
    0.27344,
    0.01562,
    0.28906,
    0.02344,
    0.29688,
    0.03906,
    0.3125,
    0.05469,
    0.32031,
    0.0625,
    0.33594,
    0.07812,
    0.34375,
    0.08594,
    0.35938,
    0.10156,
    0.36719,
    0.10938,
    0.38281,
    0.125,
    0.39844,
    0.13281,
    0.40625,
    0.14844,
    0.42188,
    0.16406,
    0.42969,
    0.17188,
    0.44531,
    0.1875,
    0.46094,
    0.19531,
    0.46875,
    0.21094,
    0.48438,
    0.22656,
    0.49219,
    0.23438,
    0.50781,
    0.25
  ],
  "SoftwareVersions": "syngo MR E11",
  "SpacingBetweenSlices": 3,
  "StationName": "AWP166011",
  "TxRefAmp": 217.84,
  "dcmmeta_affine": [
    [
      -2.999920129776001,
      0.020420124754309654,
      0.007884025573730469,
      109.13399505615234
    ],
    [
      0.018606213852763176,
      2.948011636734009,
      -0.5557703971862793,
      -72.32992553710938
    ],
    [
      0.011530191637575626,
      0.5557069182395935,
      2.94805908203125,
      -61.252967834472656
    ],
    [
      0.0,
      0.0,
      0.0,
      1.0
    ]
  ],
  "dcmmeta_reorient_transform": [
    [
      0.0,
      -1.0,
      0.0,
      69.0
    ],
    [
      1.0,
      0.0,
      0.0,
      0.0
    ],
    [
      0.0,
      0.0,
      -1.0,
      41.0
    ],
    [
      0.0,
      0.0,
      0.0,
      1.0
    ]
  ],
  "dcmmeta_shape": [
    70,
    70,
    42
  ],
  "dcmmeta_slice_dim": 2,
  "dcmmeta_version": 0.6,
  "global": {
    "const": {
      "AcquisitionMatrix": [
        0,
        70,
        70,
        0
      ],
      "AcquisitionNumber": 1,
      "AngioFlag": "N",
      "BitsAllocated": 16,
      "BitsStored": 12,
      "BodyPartExamined": "BRAIN",
      "Columns": 70,
      "EchoNumbers": 2,
      "EchoTime": 7.38,
      "EchoTrainLength": 0,
      "FlipAngle": 60.0,
      "HighBit": 11,
      "ImageOrientationPatient": [
        0.99997338095142,
        -0.0062020711193,
        0.00384339724975,
        0.00680670800378,
        0.9826705601062,
        -0.1852356310938
      ],
      "ImageType": [
        "ORIGINAL",
        "PRIMARY",
        "P",
        "ND"
      ],
      "ImagedNucleus": "1H",
      "ImagingFrequency": 123.259504,
      "InPlanePhaseEncodingDirection": "ROW",
      "MRAcquisitionType": "2D",
      "MagneticFieldStrength": 3.0,
      "Manufacturer": "SIEMENS",
      "ManufacturerModelName": "Prisma",
      "Modality": "MR",
      "NumberOfAverages": 1.0,
      "NumberOfPhaseEncodingSteps": 70,
      "PercentPhaseFieldOfView": 100.0,
      "PercentSampling": 100.0,
      "PerformedProcedureStepStartTime": "075246.446000",
      "PhotometricInterpretation": "MONOCHROME2",
      "PixelBandwidth": 595.0,
      "PixelRepresentation": 0,
      "PixelSpacing": [
        3.0,
        3.0
      ],
      "ProtocolName": "fmap_gre_field_mapping",
      "RepetitionTime": 520.0,
      "RescaleIntercept": -4096.0,
      "RescaleSlope": 2.0,
      "RescaleType": "US",
      "Rows": 70,
      "SAR": 0.09625892877681,
      "SamplesPerPixel": 1,
      "ScanningSequence": "GR",
      "SequenceName": "*fm2d2r",
      "SequenceVariant": "SP",
      "SeriesDescription": "fmap_gre_field_mapping",
      "SeriesNumber": 17,
      "SeriesTime": "091201.528000",
      "SliceThickness": 3.0,
      "SoftwareVersions": "syngo MR E11",
      "SpacingBetweenSlices": 3.0,
      "SpecificCharacterSet": "ISO_IR 100",
      "StudyID": "2",
      "StudyTime": "075246.375000",
      "TransmitCoilName": "Body",
      "VariableFlipAngleFlag": "N",
      "WindowCenterWidthExplanation": "Algo1",
      "dBdt": 0.0
    },
    "slices": {
      "AcquisitionTime": [
        "091048.800000",
        "091048.540000",
        "091048.812500",
        "091048.552500",
        "091048.825000",
        "091048.565000",
        "091048.837500",
        "091048.577500",
        "091048.850000",
        "091048.590000",
        "091048.862500",
        "091048.602500",
        "091048.875000",
        "091048.615000",
        "091048.885000",
        "091048.625000",
        "091048.897500",
        "091048.637500",
        "091048.910000",
        "091048.650000",
        "091048.922500",
        "091048.662500",
        "091048.935000",
        "091048.675000",
        "091048.947500",
        "091048.687500",
        "091048.960000",
        "091048.700000",
        "091048.972500",
        "091048.712500",
        "091048.985000",
        "091048.725000",
        "091048.997500",
        "091048.737500",
        "091049.010000",
        "091048.750000",
        "091049.022500",
        "091048.762500",
        "091049.035000",
        "091048.775000",
        "091049.047500",
        "091048.787500"
      ],
      "ContentTime": [
        "091201.606000",
        "091201.532000",
        "091201.608000",
        "091201.535000",
        "091201.610000",
        "091201.537000",
        "091201.613000",
        "091201.539000",
        "091201.615000",
        "091201.541000",
        "091201.617000",
        "091201.543000",
        "091201.619000",
        "091201.545000",
        "091201.621000",
        "091201.547000",
        "091201.624000",
        "091201.550000",
        "091201.626000",
        "091201.552000",
        "091201.628000",
        "091201.554000",
        "091201.630000",
        "091201.557000",
        "091201.632000",
        "091201.559000",
        "091201.635000",
        "091201.561000",
        "091201.637000",
        "091201.563000",
        "091201.639000",
        "091201.566000",
        "091201.641000",
        "091201.595000",
        "091201.643000",
        "091201.598000",
        "091201.645000",
        "091201.600000",
        "091201.647000",
        "091201.602000",
        "091201.650000",
        "091201.604000"
      ],
      "CsaImage.ICE_Dims": [
        "X_2_1_1_1_1_1_22_1_1_1_1_183",
        "X_2_1_1_1_1_1_1_1_1_2_1_183",
        "X_2_1_1_1_1_1_23_1_1_3_1_183",
        "X_2_1_1_1_1_1_2_1_1_4_1_183",
        "X_2_1_1_1_1_1_24_1_1_5_1_183",
        "X_2_1_1_1_1_1_3_1_1_6_1_183",
        "X_2_1_1_1_1_1_25_1_1_7_1_183",
        "X_2_1_1_1_1_1_4_1_1_8_1_183",
        "X_2_1_1_1_1_1_26_1_1_9_1_183",
        "X_2_1_1_1_1_1_5_1_1_10_1_183",
        "X_2_1_1_1_1_1_27_1_1_11_1_183",
        "X_2_1_1_1_1_1_6_1_1_12_1_183",
        "X_2_1_1_1_1_1_28_1_1_13_1_183",
        "X_2_1_1_1_1_1_7_1_1_14_1_183",
        "X_2_1_1_1_1_1_29_1_1_15_1_183",
        "X_2_1_1_1_1_1_8_1_1_16_1_183",
        "X_2_1_1_1_1_1_30_1_1_17_1_183",
        "X_2_1_1_1_1_1_9_1_1_18_1_183",
        "X_2_1_1_1_1_1_31_1_1_19_1_183",
        "X_2_1_1_1_1_1_10_1_1_20_1_183",
        "X_2_1_1_1_1_1_32_1_1_21_1_183",
        "X_2_1_1_1_1_1_11_1_1_22_1_183",
        "X_2_1_1_1_1_1_33_1_1_23_1_183",
        "X_2_1_1_1_1_1_12_1_1_24_1_183",
        "X_2_1_1_1_1_1_34_1_1_25_1_183",
        "X_2_1_1_1_1_1_13_1_1_26_1_183",
        "X_2_1_1_1_1_1_35_1_1_27_1_183",
        "X_2_1_1_1_1_1_14_1_1_28_1_183",
        "X_2_1_1_1_1_1_36_1_1_29_1_183",
        "X_2_1_1_1_1_1_15_1_1_30_1_183",
        "X_2_1_1_1_1_1_37_1_1_31_1_183",
        "X_2_1_1_1_1_1_16_1_1_32_1_183",
        "X_2_1_1_1_1_1_38_1_1_33_1_183",
        "X_2_1_1_1_1_1_17_1_1_34_1_183",
        "X_2_1_1_1_1_1_39_1_1_35_1_183",
        "X_2_1_1_1_1_1_18_1_1_36_1_183",
        "X_2_1_1_1_1_1_40_1_1_37_1_183",
        "X_2_1_1_1_1_1_19_1_1_38_1_183",
        "X_2_1_1_1_1_1_41_1_1_39_1_183",
        "X_2_1_1_1_1_1_20_1_1_40_1_183",
        "X_2_1_1_1_1_1_42_1_1_41_1_183",
        "X_2_1_1_1_1_1_21_1_1_42_1_183"
      ],
      "CsaImage.ProtocolSliceNumber": [
        0,
        1,
        2,
        3,
        4,
        5,
        6,
        7,
        8,
        9,
        10,
        11,
        12,
        13,
        14,
        15,
        16,
        17,
        18,
        19,
        20,
        21,
        22,
        23,
        24,
        25,
        26,
        27,
        28,
        29,
        30,
        31,
        32,
        33,
        34,
        35,
        36,
        37,
        38,
        39,
        40,
        41
      ],
      "CsaImage.SlicePosition_PCS": [
        [
          -110.54298882,
          -131.08288511,
          -22.90921782
        ],
        [
          -110.55087285,
          -130.52711424,
          -19.96115874
        ],
        [
          -110.5587564,
          -129.97134337,
          -17.01309966
        ],
        [
          -110.56664042,
          -129.41557249,
          -14.06504057
        ],
        [
          -110.57452445,
          -128.85980353,
          -11.11697959
        ],
        [
          -110.582408,
          -128.30403265,
          -8.1689205
        ],
        [
          -110.59029202,
          -127.74826178,
          -5.22085951
        ],
        [
          -110.59817557,
          -127.1924909,
          -2.27280043
        ],
        [
          -110.6060596,
          -126.63672003,
          0.67526056
        ],
        [
          -110.61394362,
          -126.08094916,
          3.62331964
        ],
        [
          -110.62182717,
          -125.52517828,
          6.57137968
        ],
        [
          -110.6297112,
          -124.96940932,
          9.51943971
        ],
        [
          -110.63759522,
          -124.41363844,
          12.46749927
        ],
        [
          -110.64547877,
          -123.85786757,
          15.41555907
        ],
        [
          -110.6533628,
          -123.30209669,
          18.36361898
        ],
        [
          -110.66124635,
          -122.74632582,
          21.3116789
        ],
        [
          -110.66913037,
          -122.19055495,
          24.25973846
        ],
        [
          -110.6770144,
          -121.63478598,
          27.20779897
        ],
        [
          -110.68489795,
          -121.0790151,
          30.15585805
        ],
        [
          -110.69278197,
          -120.52324423,
          33.10391809
        ],
        [
          -110.700666,
          -119.96747336,
          36.05197717
        ],
        [
          -110.70854955,
          -119.41170248,
          39.00003816
        ],
        [
          -110.71643357,
          -118.85593161,
          41.94809724
        ],
        [
          -110.72431712,
          -118.30016169,
          44.89615823
        ],
        [
          -110.73220115,
          -117.74439081,
          47.84421731
        ],
        [
          -110.74008517,
          -117.18862089,
          50.7922783
        ],
        [
          -110.74796872,
          -116.63285002,
          53.74033739
        ],
        [
          -110.75585275,
          -116.07707915,
          56.68839647
        ],
        [
          -110.76373677,
          -115.52130923,
          59.63645555
        ],
        [
          -110.77162032,
          -114.96553835,
          62.58451845
        ],
        [
          -110.77950435,
          -114.40976748,
          65.53257753
        ],
        [
          -110.78738789,
          -113.8539966,
          68.48063661
        ],
        [
          -110.79527192,
          -113.29822668,
          71.42869569
        ],
        [
          -110.80315595,
          -112.74245581,
          74.37675477
        ],
        [
          -110.81103949,
          -112.18668493,
          77.32481767
        ],
        [
          -110.81892352,
          -111.63091501,
          80.27287675
        ],
        [
          -110.82680755,
          -111.07514414,
          83.22093584
        ],
        [
          -110.83469109,
          -110.51937374,
          86.16899492
        ],
        [
          -110.84257512,
          -109.96360287,
          89.117054
        ],
        [
          -110.85045867,
          -109.40783247,
          92.06511308
        ],
        [
          -110.85834269,
          -108.8520616,
          95.01317216
        ],
        [
          -110.86622672,
          -108.2962912,
          97.96123125
        ]
      ],
      "CsaImage.TimeAfterStart": [
        0.7825,
        0.5225,
        0.795,
        0.535,
        0.8075,
        0.5475,
        0.82,
        0.56,
        0.8325,
        0.5725,
        0.845,
        0.585,
        0.8575,
        0.5975,
        0.8675,
        0.6075,
        0.88,
        0.62,
        0.8925,
        0.6325,
        0.905,
        0.645,
        0.9175,
        0.6575,
        0.93,
        0.67,
        0.9425,
        0.6825,
        0.955,
        0.695,
        0.9675,
        0.7075,
        0.98,
        0.72,
        0.9925,
        0.7325,
        1.005,
        0.745,
        1.0175,
        0.7575,
        1.03,
        0.77
      ],
      "ImagePositionPatient": [
        [
          -110.54298882333,
          -131.08288511499,
          -22.909217820642
        ],
        [
          -110.5508728489,
          -130.52711424097,
          -19.961158738611
        ],
        [
          -110.55875639764,
          -129.97134336694,
          -17.01309965658
        ],
        [
          -110.56664042321,
          -129.41557249292,
          -14.065040574548
        ],
        [
          -110.57452444879,
          -128.85980352624,
          -11.116979585168
        ],
        [
          -110.58240799752,
          -128.30403265222,
          -8.1689205031372
        ],
        [
          -110.5902920231,
          -127.7482617782,
          -5.2208595137574
        ],
        [
          -110.59817557183,
          -127.19249090417,
          -2.2728004317261
        ],
        [
          -110.60605959741,
          -126.63672003015,
          0.67526055765378
        ],
        [
          -110.61394362298,
          -126.08094915613,
          3.623319639685
        ],
        [
          -110.62182717172,
          -125.5251782821,
          6.5713796753906
        ],
        [
          -110.62971119729,
          -124.96940931543,
          9.5194397110962
        ],
        [
          -110.63759522286,
          -124.41363844141,
          12.467499269965
        ],
        [
          -110.6454787716,
          -123.85786756738,
          15.415559067252
        ],
        [
          -110.65336279717,
          -123.30209669336,
          18.363618983748
        ],
        [
          -110.66124634591,
          -122.74632581934,
          21.311678900244
        ],
        [
          -110.66913037149,
          -122.19055494531,
          24.259738459113
        ],
        [
          -110.67701439706,
          -121.63478597864,
          27.207798971655
        ],
        [
          -110.6848979458,
          -121.07901510461,
          30.155858053686
        ],
        [
          -110.69278197137,
          -120.52324423059,
          33.103918089392
        ],
        [
          -110.70066599694,
          -119.96747335657,
          36.051977171423
        ],
        [
          -110.70854954568,
          -119.41170248254,
          39.000038160803
        ],
        [
          -110.71643357125,
          -118.85593160852,
          41.948097242834
        ],
        [
          -110.72431711999,
          -118.30016168817,
          44.896158232214
        ],
        [
          -110.73220114556,
          -117.74439081415,
          47.844217314246
        ],
        [
          -110.74008517114,
          -117.1886208938,
          50.792278303625
        ],
        [
          -110.74796871987,
          -116.63285001978,
          53.740337385657
        ],
        [
          -110.75585274545,
          -116.07707914575,
          56.688396467688
        ],
        [
          -110.76373677102,
          -115.5213092254,
          59.636455549719
        ],
        [
          -110.77162031976,
          -114.96553835138,
          62.584518446448
        ],
        [
          -110.77950434533,
          -114.40976747736,
          65.532577528479
        ],
        [
          -110.78738789407,
          -113.85399660333,
          68.48063661051
        ],
        [
          -110.79527191964,
          -113.29822668298,
          71.428695692541
        ],
        [
          -110.80315594522,
          -112.74245580896,
          74.376754774573
        ],
        [
          -110.81103949395,
          -112.18668493494,
          77.324817671301
        ],
        [
          -110.81892351953,
          -111.63091501459,
          80.272876753332
        ],
        [
          -110.8268075451,
          -111.07514414056,
          83.220935835364
        ],
        [
          -110.83469109384,
          -110.51937374338,
          86.168994917395
        ],
        [
          -110.84257511941,
          -109.96360286935,
          89.117053999426
        ],
        [
          -110.85045866815,
          -109.40783247217,
          92.065113081457
        ],
        [
          -110.85834269372,
          -108.85206159814,
          95.013172163489
        ],
        [
          -110.86622671929,
          -108.29629120096,
          97.96123124552
        ]
      ],
      "InstanceCreationTime": [
        "091201.606000",
        "091201.532000",
        "091201.608000",
        "091201.535000",
        "091201.610000",
        "091201.537000",
        "091201.613000",
        "091201.539000",
        "091201.615000",
        "091201.541000",
        "091201.617000",
        "091201.543000",
        "091201.619000",
        "091201.545000",
        "091201.621000",
        "091201.547000",
        "091201.624000",
        "091201.550000",
        "091201.626000",
        "091201.552000",
        "091201.628000",
        "091201.554000",
        "091201.630000",
        "091201.557000",
        "091201.632000",
        "091201.559000",
        "091201.635000",
        "091201.561000",
        "091201.637000",
        "091201.563000",
        "091201.639000",
        "091201.566000",
        "091201.641000",
        "091201.595000",
        "091201.643000",
        "091201.598000",
        "091201.645000",
        "091201.600000",
        "091201.647000",
        "091201.602000",
        "091201.650000",
        "091201.604000"
      ],
      "InstanceNumber": [
        1,
        2,
        3,
        4,
        5,
        6,
        7,
        8,
        9,
        10,
        11,
        12,
        13,
        14,
        15,
        16,
        17,
        18,
        19,
        20,
        21,
        22,
        23,
        24,
        25,
        26,
        27,
        28,
        29,
        30,
        31,
        32,
        33,
        34,
        35,
        36,
        37,
        38,
        39,
        40,
        41,
        42
      ],
      "LargestImagePixelValue": [
        4094,
        4094,
        4094,
        4094,
        4089,
        4091,
        4095,
        4084,
        4089,
        4090,
        4091,
        4088,
        4094,
        4087,
        4090,
        4092,
        4084,
        4088,
        4090,
        4093,
        4093,
        4070,
        4087,
        4076,
        4083,
        4092,
        4093,
        4093,
        4093,
        4089,
        4065,
        4090,
        4094,
        4094,
        4082,
        4093,
        4089,
        4090,
        4091,
        4095,
        4078,
        4085
      ],
      "SliceLocation": [
        -46.506084321392,
        -43.506085025822,
        -40.506085731505,
        -37.506086435936,
        -34.506085619389,
        -31.506086325073,
        -28.506085155177,
        -25.50608586086,
        -22.506084690965,
        -19.506085395395,
        -16.506085163915,
        -13.506085284532,
        -10.506085520381,
        -7.5060855231921,
        -4.5060854076048,
        -1.5060852932705,
        1.4939144708807,
        4.4939148188454,
        7.493914113162,
        10.493914345895,
        13.493913641464,
        16.493914810107,
        19.493914105677,
        22.493915097645,
        25.493914393214,
        28.493915386435,
        31.493914680752,
        34.493913976322,
        37.493913095217,
        40.493916138185,
        43.493915433755,
        46.493914728071,
        49.493913846966,
        52.493913142536,
        55.493916185505,
        58.4939153044,
        61.493914599969,
        64.493913805949,
        67.493913101518,
        70.493912307498,
        73.493911603067,
        76.4939108103
      ],
      "SmallestImagePixelValue": [
        0,
        0,
        3,
        3,
        5,
        7,
        17,
        0,
        1,
        4,
        12,
        6,
        4,
        2,
        25,
        2,
        6,
        2,
        29,
        7,
        10,
        8,
        0,
        5,
        5,
        51,
        18,
        4,
        0,
        25,
        2,
        12,
        15,
        7,
        5,
        25,
        5,
        0,
        0,
        3,
        4,
        1
      ],
      "WindowCenter": [
        -272.0,
        -286.0,
        -280.0,
        -238.0,
        -212.0,
        -302.0,
        -360.0,
        -334.0,
        -262.0,
        -214.0,
        -180.0,
        -136.0,
        -128.0,
        -126.0,
        -126.0,
        -106.0,
        -114.0,
        -84.0,
        -248.0,
        -130.0,
        -256.0,
        -92.0,
        -72.0,
        -42.0,
        -14.0,
        -30.0,
        -144.0,
        -154.0,
        -156.0,
        -170.0,
        -202.0,
        -248.0,
        -260.0,
        -240.0,
        -280.0,
        -134.0,
        -150.0,
        -194.0,
        -138.0,
        -128.0,
        -100.0,
        -140.0
      ],
      "WindowWidth": [
        6134.0,
        6166.0,
        6154.0,
        6182.0,
        6234.0,
        6086.0,
        5874.0,
        5756.0,
        5732.0,
        5630.0,
        5488.0,
        5582.0,
        5482.0,
        5364.0,
        5222.0,
        5286.0,
        5206.0,
        5350.0,
        4600.0,
        5208.0,
        4596.0,
        5286.0,
        5234.0,
        5242.0,
        5150.0,
        5012.0,
        4490.0,
        4486.0,
        4482.0,
        4482.0,
        4512.0,
        4542.0,
        4564.0,
        4576.0,
        4624.0,
        5358.0,
        5346.0,
        5260.0,
        5504.0,
        5708.0,
        5852.0,
        5888.0
      ]
    }
  }
}