{
  "AcquisitionMatrixPE": 72,
  "AcquisitionNumber": 1,
  "AcquisitionTime": "09:38:14.982500",
  "BandwidthPerPixelPhaseEncode": 17.943,
  "BaseResolution": 96,
  "BodyPartExamined": "BRAIN",
  "CoilCombinationMethod": "Sum of Squares",
  "ConsistencyInfo": "N4_VE11C_LATEST_20160120",
  "ConversionSoftware": "dcm2niix",
  "ConversionSoftwareVersion": "v1.0.20211006",
  "DerivedVendorReportedEchoSpacing": 0.000552897,
  "DeviceSerialNumber": "166011",
  "EchoTime": 0.03,
  "EchoTrainLength": 58,
  "EffectiveEchoSpacing": 0.000580542,
  "FlipAngle": 62,
  "ImageOrientationPatientDICOM": [0.99906, 0.00746458, -0.0427011, -0.0142992, 0.986675, -0.162072],
  "ImageType": [
    "ORIGINAL",
    "PRIMARY",
    "M",
    "ND",
    "MOSAIC"
],
  "ImagingFrequency": 123.26,
  "InPlanePhaseEncodingDirectionDICOM": "COL",
  "InstitutionAddress": "West 130th Street 610,NY,NYC,US,10025",
  "InstitutionName": "MBBI",
  "MRAcquisitionType": "2D",
  "MagneticFieldStrength": 3,
  "Manufacturer": "Siemens",
  "ManufacturersModelName": "Prisma",
  "Modality": "MR",
  "MultibandAccelerationFactor": 3,
  "PartialFourier": 0.75,
  "PatientPosition": "HFS",
  "PercentPhaseFOV": 100,
  "PercentSampling": 75,
  "PhaseEncodingDirection": "j-",
  "PhaseEncodingSteps": 58,
  "PhaseOversampling": 0.05,
  "PhaseResolution": 0.75,
  "PixelBandwidth": 2265,
  "ProcedureStepDescription": "White^Word_recognition",
  "ProtocolName": "func_language_run2",
  "PulseSequenceDetails": "%SiemensSeq%\\ep2d_bold",
  "ReceiveCoilActiveElements": "HC1-7",
  "ReceiveCoilName": "HeadNeck_64",
  "ReconMatrixPE": 96,
  "RefLinesPE": 40,
  "RepetitionTime": 1.5,
  "SAR": 0.0507473,
  "ScanOptions": "PFP\\FS",
  "ScanningSequence": "EP",
  "SequenceName": "*epfid2d1_72",
  "SequenceVariant": "SK\\OSP",
  "SeriesDescription": "func_language_run2",
  "SeriesNumber": 17,
  "ShimSetting": [-1143, -1357, 642, 586, -34, 74, -154, -24],
  "SliceThickness": 2,
  "SliceTiming": [1.0775, 0, 0.74, 0.0675, 0.8075, 0.135, 0.875, 0.2025, 0.9425, 0.27, 1.01, 0.405, 1.145, 0.4725, 1.2125, 0.54, 1.28, 0.6075, 1.3475, 0.675, 1.415, 0.3375, 1.0775, 0, 0.74, 0.0675, 0.8075, 0.135, 0.875, 0.2025, 0.9425, 0.27, 1.01, 0.405, 1.145, 0.4725, 1.2125, 0.54, 1.28, 0.6075, 1.3475, 0.675, 1.415, 0.3375, 1.0775, 0, 0.74, 0.0675, 0.8075, 0.135, 0.875, 0.2025, 0.9425, 0.27, 1.01, 0.405, 1.145, 0.4725, 1.2125, 0.54, 1.28, 0.6075, 1.3475, 0.675, 1.415, 0.3375],
  "SoftwareVersions": "syngo MR E11",
  "SpacingBetweenSlices": 2,
  "StationName": "AWP166011",
  "TaskName": "langLoc",
  "TotalReadoutTime": 0.0551515,
  "TxRefAmp": 214.135,
  "dcmmeta_affine": [
    [-1.9981200695037842, -0.02859845757484436, -0.08184467256069183, 99.83363342285156],
    [-0.014929153025150299, 1.9733505249023438, -0.3250613808631897, -63.88169479370117],
    [-0.0854022353887558, 0.3241448700428009, 1.971709132194519, -84.21875762939453],
    [0.0, 0.0, 0.0, 1.0]
],
  "dcmmeta_reorient_transform": [
    [0.0, -1.0, 0.0, 95.0],
    [1.0, 0.0, 0.0, 0.0],
    [0.0, 0.0, 1.0, 0.0],
    [0.0, 0.0, 0.0, 1.0]
],
  "dcmmeta_shape": [96, 96, 66, 239],
  "dcmmeta_slice_dim": 2,
  "dcmmeta_version": 0.6,
  "global": {
    "const": {
      "AcquisitionMatrix": [96, 0, 0, 72],
      "AngioFlag": "N",
      "BitsAllocated": 16,
      "BitsStored": 12,
      "BodyPartExamined": "BRAIN",
      "Columns": 864,
      "EchoNumbers": 1,
      "EchoTime": 30.0,
      "EchoTrainLength": 58,
      "FlipAngle": 62.0,
      "HighBit": 11,
      "ImageOrientationPatient": [0.99906000544785, 0.00746457672229, -0.0427011195275, -0.0142992288219, 0.98667525424211, -0.1620724366491],
      "ImagePositionPatient": [-853.41305510536, -887.08599531921, 103.84109295405],
      "ImageType": [
        "ORIGINAL",
        "PRIMARY",
        "M",
        "ND",
        "MOSAIC"
],
      "ImagedNucleus": "1H",
      "ImagingFrequency": 123.259562,
      "InPlanePhaseEncodingDirection": "COL",
      "MRAcquisitionType": "2D",
      "MagneticFieldStrength": 3.0,
      "Manufacturer": "SIEMENS",
      "ManufacturerModelName": "Prisma",
      "Modality": "MR",
      "NumberOfAverages": 1.0,
      "NumberOfPhaseEncodingSteps": 58,
      "PercentPhaseFieldOfView": 100.0,
      "PercentSampling": 75.0,
      "PerformedProcedureStepStartTime": "081455.466000",
      "PhotometricInterpretation": "MONOCHROME2",
      "PixelBandwidth": 2265.0,
      "PixelRepresentation": 0,
      "PixelSpacing": [2.0, 2.0],
      "ProtocolName": "func_language_run2",
      "RepetitionTime": 1500.0,
      "Rows": 864,
      "SAR": 0.05074728267956,
      "SamplesPerPixel": 1,
      "ScanOptions": [
        "PFP",
        "FS"
],
      "ScanningSequence": "EP",
      "SequenceName": "*epfid2d1_72",
      "SequenceVariant": [
        "SK",
        "OSP"
],
      "SeriesDescription": "func_language_run2",
      "SeriesNumber": 17,
      "SeriesTime": "093851.234000",
      "SliceLocation": -76.730136797753,
      "SliceThickness": 2.0,
      "SmallestImagePixelValue": 0,
      "SoftwareVersions": "syngo MR E11",
      "SpacingBetweenSlices": 2.0000000443993,
      "SpecificCharacterSet": "ISO_IR 100",
      "StudyID": "5",
      "StudyTime": "081454.914000",
      "TransmitCoilName": "Body",
      "VariableFlipAngleFlag": "N",
      "WindowCenterWidthExplanation": "Algo1",
      "dBdt": 0.0},
    "slices": {}
  },
  "time": {
    "samples": {
      "AcquisitionNumber": [1, 2, 3, 4, 5, 6, 7, 8, 9, 10, 11, 12, 13, 14, 15, 16, 17, 18, 19, 20, 21, 22, 23, 24, 25, 26, 27, 28, 29, 30, 31, 32, 33, 34, 35, 36, 37, 38, 39, 40, 41, 42, 43, 44, 45, 46, 47, 48, 49, 50, 51, 52, 53, 54, 55, 56, 57, 58, 59, 60, 61, 62, 63, 64, 65, 66, 67, 68, 69, 70, 71, 72, 73, 74, 75, 76, 77, 78, 79, 80, 81, 82, 83, 84, 85, 86, 87, 88, 89, 90, 91, 92, 93, 94, 95, 96, 97, 98, 99, 100, 101, 102, 103, 104, 105, 106, 107, 108, 109, 110, 111, 112, 113, 114, 115, 116, 117, 118, 119, 120, 121, 122, 123, 124, 125, 126, 127, 128, 129, 130, 131, 132, 133, 134, 135, 136, 137, 138, 139, 140, 141, 142, 143, 144, 145, 146, 147, 148, 149, 150, 151, 152, 153, 154, 155, 156, 157, 158, 159, 160, 161, 162, 163, 164, 165, 166, 167, 168, 169, 170, 171, 172, 173, 174, 175, 176, 177, 178, 179, 180, 181, 182, 183, 184, 185, 186, 187, 188, 189, 190, 191, 192, 193, 194, 195, 196, 197, 198, 199, 200, 201, 202, 203, 204, 205, 206, 207, 208, 209, 210, 211, 212, 213, 214, 215, 216, 217, 218, 219, 220, 221, 222, 223, 224, 225, 226, 227, 228, 229, 230, 231, 232, 233, 234, 235, 236, 237, 238, 239],
      "AcquisitionTime": ["093814.982500", "093816.482500", "093817.982500", "093819.482500", "093820.982500", "093822.482500", "093823.982500", "093825.482500", "093826.982500", "093828.482500", "093829.982500", "093831.482500", "093832.982500", "093834.482500", "093835.982500", "093837.482500", "093838.982500", "093840.482500", "093841.982500", "093843.482500", "093844.982500", "093846.482500", "093847.982500", "093849.482500", "093850.982500", "093852.482500", "093853.982500", "093855.482500", "093856.982500", "093858.482500", "093859.982500", "093901.482500", "093902.982500", "093904.482500", "093905.982500", "093907.482500", "093908.982500", "093910.482500", "093911.982500", "093913.482500", "093914.982500", "093916.482500", "093917.982500", "093919.482500", "093920.982500", "093922.482500", "093923.982500", "093925.482500", "093926.982500", "093928.482500", "093929.982500", "093931.482500", "093932.982500", "093934.482500", "093935.982500", "093937.482500", "093938.982500", "093940.482500", "093941.982500", "093943.482500", "093944.982500", "093946.482500", "093947.982500", "093949.482500", "093950.982500", "093952.482500", "093953.982500", "093955.482500", "093956.982500", "093958.482500", "093959.982500", "094001.482500", "094002.982500", "094004.482500", "094005.982500", "094007.482500", "094008.982500", "094010.482500", "094011.982500", "094013.482500", "094014.982500", "094016.482500", "094017.982500", "094019.482500", "094020.982500", "094022.482500", "094023.982500", "094025.482500", "094026.982500", "094028.482500", "094029.982500", "094031.482500", "094032.982500", "094034.482500", "094035.982500", "094037.482500", "094038.982500", "094040.482500", "094041.982500", "094043.482500", "094044.982500", "094046.482500", "094047.982500", "094049.482500", "094050.982500", "094052.482500", "094053.982500", "094055.482500", "094056.982500", "094058.482500", "094059.982500", "094101.482500", "094102.982500", "094104.482500", "094105.982500", "094107.482500", "094108.982500", "094110.482500", "094111.982500", "094113.482500", "094114.982500", "094116.482500", "094117.982500", "094119.482500", "094120.982500", "094122.482500", "094123.982500", "094125.482500", "094126.982500", "094128.482500", "094129.982500", "094131.482500", "094132.982500", "094134.482500", "094135.982500", "094137.482500", "094138.982500", "094140.482500", "094141.982500", "094143.482500", "094144.982500", "094146.482500", "094147.982500", "094149.482500", "094150.982500", "094152.482500", "094153.982500", "094155.482500", "094156.982500", "094158.482500", "094159.982500", "094201.482500", "094202.982500", "094204.482500", "094205.982500", "094207.482500", "094208.982500", "094210.482500", "094211.982500", "094213.482500", "094214.982500", "094216.482500", "094217.982500", "094219.482500", "094220.982500", "094222.482500", "094223.982500", "094225.482500", "094226.982500", "094228.482500", "094229.982500", "094231.482500", "094232.982500", "094234.482500", "094235.982500", "094237.482500", "094238.982500", "094240.482500", "094241.982500", "094243.482500", "094244.982500", "094246.482500", "094247.982500", "094249.482500", "094250.982500", "094252.482500", "094253.982500", "094255.482500", "094256.982500", "094258.482500", "094259.982500", "094301.482500", "094302.982500", "094304.482500", "094305.982500", "094307.482500", "094308.982500", "094310.482500", "094311.982500", "094313.482500", "094314.982500", "094316.482500", "094317.982500", "094319.482500", "094320.982500", "094322.482500", "094323.982500", "094325.482500", "094326.982500", "094328.482500", "094329.982500", "094331.482500", "094332.982500", "094334.482500", "094335.982500", "094337.482500", "094338.982500", "094340.482500", "094341.982500", "094343.482500", "094344.982500", "094346.482500", "094347.982500", "094349.482500", "094350.982500", "094352.482500", "094353.982500", "094355.482500", "094356.982500", "094358.482500", "094359.982500", "094401.482500", "094402.982500", "094404.482500", "094405.982500", "094407.482500", "094408.982500", "094410.482500", "094411.982500"],
      "ContentTime": ["093851.238000", "093851.242000", "093851.245000", "093851.248000", "093851.251000", "093851.255000", "093851.258000", "093851.261000", "093851.264000", "093851.267000", "093851.270000", "093851.273000", "093851.276000", "093851.279000", "093851.282000", "093851.285000", "093851.288000", "093851.291000", "093851.294000", "093851.305000", "093851.308000", "093851.311000", "093851.314000", "093851.317000", "093931.233000", "093931.236000", "093931.239000", "093931.243000", "093931.246000", "093931.249000", "093931.252000", "093931.255000", "093931.258000", "093931.262000", "093931.265000", "093931.268000", "093931.271000", "093931.274000", "093931.277000", "093931.280000", "093931.283000", "093931.286000", "093931.289000", "093931.292000", "093931.295000", "093931.298000", "093931.301000", "093931.304000", "093931.307000", "093931.310000", "093931.313000", "094011.232000", "094011.235000", "094011.238000", "094011.241000", "094011.244000", "094011.247000", "094011.250000", "094011.253000", "094011.257000", "094011.260000", "094011.262000", "094011.265000", "094011.269000", "094011.272000", "094011.275000", "094011.278000", "094011.281000", "094011.284000", "094011.287000", "094011.290000", "094011.293000", "094011.296000", "094011.300000", "094011.303000", "094011.306000", "094011.309000", "094031.232000", "094031.235000", "094031.239000", "094031.242000", "094031.245000", "094031.248000", "094031.251000", "094031.254000", "094031.257000", "094031.260000", "094031.263000", "094031.266000", "094031.269000", "094031.272000", "094111.233000", "094111.236000", "094111.239000", "094111.242000", "094111.246000", "094111.248000", "094111.260000", "094111.263000", "094111.266000", "094111.269000", "094111.272000", "094111.275000", "094111.279000", "094111.282000", "094111.285000", "094111.288000", "094111.291000", "094111.294000", "094111.297000", "094111.300000", "094111.303000", "094111.306000", "094111.309000", "094111.312000", "094111.315000", "094111.318000", "094151.233000", "094151.236000", "094151.239000", "094151.242000", "094151.255000", "094151.258000", "094151.261000", "094151.264000", "094151.267000", "094151.270000", "094151.273000", "094151.276000", "094151.279000", "094151.282000", "094151.285000", "094151.288000", "094151.292000", "094151.295000", "094151.298000", "094151.301000", "094151.304000", "094151.307000", "094151.310000", "094151.313000", "094151.316000", "094151.319000", "094151.322000", "094231.232000", "094231.235000", "094231.238000", "094231.241000", "094231.244000", "094231.247000", "094231.250000", "094231.254000", "094231.257000", "094231.260000", "094231.263000", "094231.266000", "094231.269000", "094231.272000", "094231.284000", "094231.287000", "094231.290000", "094231.293000", "094231.296000", "094231.299000", "094231.302000", "094231.305000", "094231.308000", "094231.312000", "094231.315000", "094231.317000", "094231.320000", "094311.232000", "094311.235000", "094311.239000", "094311.242000", "094311.245000", "094311.248000", "094311.251000", "094311.254000", "094311.257000", "094311.260000", "094311.263000", "094311.266000", "094311.269000", "094311.272000", "094311.275000", "094311.278000", "094311.281000", "094311.284000", "094311.287000", "094311.290000", "094311.293000", "094311.296000", "094311.299000", "094311.302000", "094311.306000", "094311.309000", "094351.233000", "094351.236000", "094351.239000", "094351.242000", "094351.246000", "094351.249000", "094351.252000", "094351.255000", "094351.258000", "094351.261000", "094351.264000", "094351.267000", "094351.270000", "094351.273000", "094351.276000", "094351.287000", "094351.290000", "094351.293000", "094351.296000", "094351.299000", "094351.302000", "094351.305000", "094351.308000", "094351.311000", "094351.315000", "094351.318000", "094351.320000", "094412.943000", "094412.946000", "094412.950000", "094412.953000", "094412.957000", "094412.961000", "094412.964000", "094412.968000", "094412.971000", "094412.974000", "094412.977000", "094412.980000", "094412.984000", "094412.987000", "094412.990000"],
      "InstanceCreationTime": ["093851.238000", "093851.242000", "093851.245000", "093851.248000", "093851.251000", "093851.255000", "093851.258000", "093851.261000", "093851.264000", "093851.267000", "093851.270000", "093851.273000", "093851.276000", "093851.279000", "093851.282000", "093851.285000", "093851.288000", "093851.291000", "093851.294000", "093851.305000", "093851.308000", "093851.311000", "093851.314000", "093851.317000", "093931.233000", "093931.236000", "093931.239000", "093931.243000", "093931.246000", "093931.249000", "093931.252000", "093931.255000", "093931.258000", "093931.262000", "093931.265000", "093931.268000", "093931.271000", "093931.274000", "093931.277000", "093931.280000", "093931.283000", "093931.286000", "093931.289000", "093931.292000", "093931.295000", "093931.298000", "093931.301000", "093931.304000", "093931.307000", "093931.310000", "093931.313000", "094011.232000", "094011.235000", "094011.238000", "094011.241000", "094011.244000", "094011.247000", "094011.250000", "094011.253000", "094011.257000", "094011.260000", "094011.262000", "094011.265000", "094011.269000", "094011.272000", "094011.275000", "094011.278000", "094011.281000", "094011.284000", "094011.287000", "094011.290000", "094011.293000", "094011.296000", "094011.300000", "094011.303000", "094011.306000", "094011.309000", "094031.232000", "094031.235000", "094031.239000", "094031.242000", "094031.245000", "094031.248000", "094031.251000", "094031.254000", "094031.257000", "094031.260000", "094031.263000", "094031.266000", "094031.269000", "094031.272000", "094111.233000", "094111.236000", "094111.239000", "094111.242000", "094111.246000", "094111.248000", "094111.260000", "094111.263000", "094111.266000", "094111.269000", "094111.272000", "094111.275000", "094111.279000", "094111.282000", "094111.285000", "094111.288000", "094111.291000", "094111.294000", "094111.297000", "094111.300000", "094111.303000", "094111.306000", "094111.309000", "094111.312000", "094111.315000", "094111.318000", "094151.233000", "094151.236000", "094151.239000", "094151.242000", "094151.255000", "094151.258000", "094151.261000", "094151.264000", "094151.267000", "094151.270000", "094151.273000", "094151.276000", "094151.279000", "094151.282000", "094151.285000", "094151.288000", "094151.292000", "094151.295000", "094151.298000", "094151.301000", "094151.304000", "094151.307000", "094151.310000", "094151.313000", "094151.316000", "094151.319000", "094151.322000", "094231.232000", "094231.235000", "094231.238000", "094231.241000", "094231.244000", "094231.247000", "094231.250000", "094231.254000", "094231.257000", "094231.260000", "094231.263000", "094231.266000", "094231.269000", "094231.272000", "094231.284000", "094231.287000", "094231.290000", "094231.293000", "094231.296000", "094231.299000", "094231.302000", "094231.305000", "094231.308000", "094231.312000", "094231.315000", "094231.317000", "094231.320000", "094311.232000", "094311.235000", "094311.239000", "094311.242000", "094311.245000", "094311.248000", "094311.251000", "094311.254000", "094311.257000", "094311.260000", "094311.263000", "094311.266000", "094311.269000", "094311.272000", "094311.275000", "094311.278000", "094311.281000", "094311.284000", "094311.287000", "094311.290000", "094311.293000", "094311.296000", "094311.299000", "094311.302000", "094311.306000", "094311.309000", "094351.233000", "094351.236000", "094351.239000", "094351.242000", "094351.246000", "094351.249000", "094351.252000", "094351.255000", "094351.258000", "094351.261000", "094351.264000", "094351.267000", "094351.270000", "094351.273000", "094351.276000", "094351.287000", "094351.290000", "094351.293000", "094351.296000", "094351.299000", "094351.302000", "094351.305000", "094351.308000", "094351.311000", "094351.315000", "094351.318000", "094351.320000", "094412.943000", "094412.946000", "094412.950000", "094412.953000", "094412.957000", "094412.961000", "094412.964000", "094412.968000", "094412.971000", "094412.974000", "094412.977000", "094412.980000", "094412.984000", "094412.987000", "094412.990000"],
      "InstanceNumber": [1, 2, 3, 4, 5, 6, 7, 8, 9, 10, 11, 12, 13, 14, 15, 16, 17, 18, 19, 20, 21, 22, 23, 24, 25, 26, 27, 28, 29, 30, 31, 32, 33, 34, 35, 36, 37, 38, 39, 40, 41, 42, 43, 44, 45, 46, 47, 48, 49, 50, 51, 52, 53, 54, 55, 56, 57, 58, 59, 60, 61, 62, 63, 64, 65, 66, 67, 68, 69, 70, 71, 72, 73, 74, 75, 76, 77, 78, 79, 80, 81, 82, 83, 84, 85, 86, 87, 88, 89, 90, 91, 92, 93, 94, 95, 96, 97, 98, 99, 100, 101, 102, 103, 104, 105, 106, 107, 108, 109, 110, 111, 112, 113, 114, 115, 116, 117, 118, 119, 120, 121, 122, 123, 124, 125, 126, 127, 128, 129, 130, 131, 132, 133, 134, 135, 136, 137, 138, 139, 140, 141, 142, 143, 144, 145, 146, 147, 148, 149, 150, 151, 152, 153, 154, 155, 156, 157, 158, 159, 160, 161, 162, 163, 164, 165, 166, 167, 168, 169, 170, 171, 172, 173, 174, 175, 176, 177, 178, 179, 180, 181, 182, 183, 184, 185, 186, 187, 188, 189, 190, 191, 192, 193, 194, 195, 196, 197, 198, 199, 200, 201, 202, 203, 204, 205, 206, 207, 208, 209, 210, 211, 212, 213, 214, 215, 216, 217, 218, 219, 220, 221, 222, 223, 224, 225, 226, 227, 228, 229, 230, 231, 232, 233, 234, 235, 236, 237, 238, 239],
      "LargestImagePixelValue": [2135, 2157, 2122, 2121, 2138, 2136, 2129, 2102, 2105, 2099, 2109, 2082, 2100, 2155, 2113, 2123, 2108, 2110, 2122, 2119, 2161, 2169, 2253, 2100, 2114, 2151, 2108, 2118, 2108, 2157, 2095, 2197, 2192, 2110, 2124, 2120, 2270, 2236, 2166, 2204, 2162, 2158, 2121, 2173, 2156, 2148, 2169, 2030, 2135, 2178, 2174, 2032, 2141, 2097, 2211, 2225, 2279, 2263, 2130, 2041, 2083, 2274, 2226, 2091, 2052, 2149, 2401, 2270, 2258, 2168, 2121, 2101, 2067, 2056, 2070, 2065, 2053, 2257, 2084, 2083, 2084, 2101, 2103, 2084, 2101, 2116, 2098, 2097, 2091, 2077, 2087, 2083, 2096, 2098, 2114, 2089, 2159, 2113, 2241, 2163, 2142, 2135, 2127, 2089, 2101, 2140, 2385, 2158, 2205, 2157, 2100, 2206, 2140, 2197, 2116, 2138, 2090, 2068, 2064, 2014, 2057, 2058, 2045, 2048, 2100, 2102, 2094, 2082, 2069, 2081, 2061, 2049, 2104, 2043, 2058, 2203, 2044, 2062, 2072, 2133, 2137, 2103, 2075, 2145, 2110, 2211, 2176, 2124, 2076, 2172, 2129, 2191, 2099, 2143, 2586, 2331, 2050, 2101, 2098, 2064, 2011, 1954, 2034, 1964, 2017, 1998, 1997, 2063, 2072, 2018, 1989, 2049, 2106, 2000, 2050, 2037, 2028, 2002, 2019, 2103, 2053, 2033, 2068, 2058, 2048, 2015, 2047, 2083, 2077, 2100, 2144, 2112, 2069, 2050, 1964, 2099, 2056, 2176, 2110, 2109, 1996, 1978, 2012, 2019, 1996, 2008, 2038, 2004, 2057, 1968, 2006, 2068, 2112, 2119, 2040, 2050, 2106, 2062, 2056, 2069, 2101, 2162, 2147, 2070, 2064, 2259, 2210, 2080, 2117, 2164, 2044, 2062, 2082, 2101, 2093, 2117, 1982, 2009, 2038],
      "WindowCenter": [709.0, 709.0, 709.0, 709.0, 710.0, 709.0, 709.0, 708.0, 708.0, 707.0, 706.0, 706.0, 706.0, 707.0, 707.0, 708.0, 708.0, 708.0, 709.0, 709.0, 709.0, 710.0, 711.0, 709.0, 709.0, 709.0, 708.0, 708.0, 708.0, 709.0, 708.0, 710.0, 710.0, 710.0, 710.0, 709.0, 695.0, 704.0, 706.0, 706.0, 704.0, 702.0, 700.0, 699.0, 699.0, 701.0, 701.0, 700.0, 702.0, 704.0, 705.0, 704.0, 705.0, 705.0, 707.0, 707.0, 708.0, 708.0, 708.0, 705.0, 706.0, 708.0, 706.0, 704.0, 699.0, 681.0, 705.0, 711.0, 704.0, 709.0, 708.0, 705.0, 704.0, 704.0, 704.0, 705.0, 705.0, 706.0, 705.0, 706.0, 707.0, 707.0, 707.0, 705.0, 704.0, 706.0, 707.0, 707.0, 707.0, 706.0, 706.0, 706.0, 706.0, 707.0, 708.0, 708.0, 709.0, 710.0, 710.0, 710.0, 710.0, 709.0, 708.0, 706.0, 706.0, 707.0, 710.0, 709.0, 709.0, 710.0, 710.0, 706.0, 707.0, 708.0, 708.0, 710.0, 708.0, 707.0, 704.0, 702.0, 700.0, 699.0, 699.0, 701.0, 703.0, 705.0, 706.0, 706.0, 704.0, 709.0, 710.0, 710.0, 708.0, 707.0, 707.0, 709.0, 708.0, 708.0, 709.0, 710.0, 710.0, 710.0, 710.0, 711.0, 710.0, 711.0, 711.0, 710.0, 710.0, 711.0, 711.0, 711.0, 705.0, 690.0, 718.0, 708.0, 706.0, 705.0, 709.0, 706.0, 706.0, 704.0, 703.0, 701.0, 701.0, 702.0, 703.0, 705.0, 706.0, 706.0, 706.0, 707.0, 708.0, 708.0, 708.0, 708.0, 708.0, 707.0, 706.0, 707.0, 707.0, 707.0, 707.0, 708.0, 708.0, 708.0, 708.0, 708.0, 708.0, 708.0, 709.0, 708.0, 708.0, 708.0, 707.0, 709.0, 708.0, 709.0, 707.0, 705.0, 705.0, 704.0, 706.0, 703.0, 701.0, 699.0, 699.0, 700.0, 702.0, 703.0, 704.0, 707.0, 708.0, 708.0, 708.0, 708.0, 709.0, 709.0, 708.0, 709.0, 709.0, 710.0, 709.0, 708.0, 708.0, 709.0, 708.0, 707.0, 708.0, 709.0, 708.0, 708.0, 708.0, 709.0, 709.0, 709.0, 707.0, 708.0, 709.0],
      "WindowWidth": [1525.0, 1526.0, 1525.0, 1525.0, 1528.0, 1526.0, 1525.0, 1524.0, 1522.0, 1520.0, 1518.0, 1518.0, 1518.0, 1520.0, 1521.0, 1522.0, 1524.0, 1523.0, 1524.0, 1524.0, 1526.0, 1528.0, 1530.0, 1527.0, 1526.0, 1524.0, 1522.0, 1522.0, 1523.0, 1526.0, 1524.0, 1527.0, 1529.0, 1527.0, 1527.0, 1526.0, 1489.0, 1511.0, 1516.0, 1517.0, 1513.0, 1507.0, 1501.0, 1500.0, 1499.0, 1504.0, 1504.0, 1503.0, 1508.0, 1512.0, 1516.0, 1513.0, 1515.0, 1516.0, 1519.0, 1519.0, 1524.0, 1523.0, 1523.0, 1516.0, 1516.0, 1523.0, 1518.0, 1513.0, 1500.0, 1455.0, 1514.0, 1532.0, 1514.0, 1525.0, 1522.0, 1515.0, 1512.0, 1512.0, 1514.0, 1515.0, 1514.0, 1519.0, 1516.0, 1518.0, 1519.0, 1520.0, 1519.0, 1514.0, 1513.0, 1518.0, 1519.0, 1520.0, 1520.0, 1518.0, 1518.0, 1519.0, 1518.0, 1520.0, 1523.0, 1522.0, 1527.0, 1528.0, 1527.0, 1527.0, 1529.0, 1526.0, 1523.0, 1517.0, 1518.0, 1521.0, 1527.0, 1524.0, 1527.0, 1527.0, 1527.0, 1519.0, 1520.0, 1523.0, 1524.0, 1527.0, 1523.0, 1519.0, 1513.0, 1506.0, 1502.0, 1501.0, 1500.0, 1504.0, 1511.0, 1514.0, 1517.0, 1517.0, 1512.0, 1526.0, 1529.0, 1527.0, 1523.0, 1521.0, 1522.0, 1525.0, 1522.0, 1524.0, 1525.0, 1528.0, 1529.0, 1529.0, 1528.0, 1530.0, 1529.0, 1531.0, 1532.0, 1529.0, 1528.0, 1531.0, 1530.0, 1530.0, 1516.0, 1477.0, 1549.0, 1523.0, 1518.0, 1514.0, 1525.0, 1519.0, 1518.0, 1512.0, 1509.0, 1504.0, 1505.0, 1507.0, 1509.0, 1514.0, 1517.0, 1518.0, 1519.0, 1521.0, 1523.0, 1522.0, 1524.0, 1523.0, 1522.0, 1519.0, 1519.0, 1520.0, 1519.0, 1520.0, 1520.0, 1522.0, 1523.0, 1523.0, 1523.0, 1524.0, 1523.0, 1524.0, 1524.0, 1524.0, 1522.0, 1522.0, 1520.0, 1526.0, 1523.0, 1526.0, 1519.0, 1515.0, 1515.0, 1512.0, 1516.0, 1509.0, 1505.0, 1500.0, 1500.0, 1502.0, 1507.0, 1509.0, 1514.0, 1519.0, 1522.0, 1524.0, 1523.0, 1523.0, 1525.0, 1524.0, 1524.0, 1524.0, 1526.0, 1527.0, 1526.0, 1524.0, 1523.0, 1525.0, 1521.0, 1520.0, 1522.0, 1524.0, 1522.0, 1523.0, 1523.0, 1524.0, 1524.0, 1525.0, 1521.0, 1523.0, 1525.0]
    },
    "slices": {}
  }
}