{
  "AcquisitionMatrixPE": 72,
  "AcquisitionNumber": 1,
  "AcquisitionTime": "09:07:7.482500",
  "BandwidthPerPixelPhaseEncode": 17.943,
  "BaseResolution": 96,
  "BodyPartExamined": "BRAIN",
  "CoilCombinationMethod": "Sum of Squares",
  "ConsistencyInfo": "N4_VE11C_LATEST_20160120",
  "ConversionSoftware": "dcm2niix",
  "ConversionSoftwareVersion": "v1.0.20211006",
  "DerivedVendorReportedEchoSpacing": 0.000552897,
  "DeviceSerialNumber": "166011",
  "EchoTime": 0.03,
  "EchoTrainLength": 58,
  "EffectiveEchoSpacing": 0.000580542,
  "FlipAngle": 62,
  "ImageOrientationPatientDICOM": [0.999159, 0.00103659, -0.0409856, -0.0102892, 0.974027, -0.226198],
  "ImageType": [
    "ORIGINAL",
    "PRIMARY",
    "M",
    "ND",
    "MOSAIC"
],
  "ImagingFrequency": 123.26,
  "InPlanePhaseEncodingDirectionDICOM": "COL",
  "InstitutionAddress": "West 130th Street 610,NY,NYC,US,10025",
  "InstitutionName": "MBBI",
  "MRAcquisitionType": "2D",
  "MagneticFieldStrength": 3,
  "Manufacturer": "Siemens",
  "ManufacturersModelName": "Prisma",
  "Modality": "MR",
  "MultibandAccelerationFactor": 3,
  "PartialFourier": 0.75,
  "PatientPosition": "HFS",
  "PercentPhaseFOV": 100,
  "PercentSampling": 75,
  "PhaseEncodingDirection": "j-",
  "PhaseEncodingSteps": 58,
  "PhaseOversampling": 0.05,
  "PhaseResolution": 0.75,
  "PixelBandwidth": 2265,
  "ProcedureStepDescription": "White^Word_recognition",
  "ProtocolName": "func_vwfate_run14",
  "PulseSequenceDetails": "%SiemensSeq%\\ep2d_bold",
  "ReceiveCoilActiveElements": "HC1-7",
  "ReceiveCoilName": "HeadNeck_64",
  "ReconMatrixPE": 96,
  "RefLinesPE": 40,
  "RepetitionTime": 1.5,
  "SAR": 0.0492163,
  "ScanOptions": "PFP\\FS",
  "ScanningSequence": "EP",
  "SequenceName": "*epfid2d1_72",
  "SequenceVariant": "SK\\OSP",
  "SeriesDescription": "func_vwfate_run14",
  "SeriesNumber": 9,
  "ShimSetting": [-1141, -1337, 657, 609, -24, 77, -183, 17],
  "SliceThickness": 2,
  "SliceTiming": [1.075, 0, 0.74, 0.0675, 0.8075, 0.1325, 0.8725, 0.2, 0.94, 0.2675, 1.0075, 0.4025, 1.1425, 0.47, 1.21, 0.5375, 1.2775, 0.605, 1.345, 0.6725, 1.4125, 0.335, 1.075, 0, 0.74, 0.0675, 0.8075, 0.1325, 0.8725, 0.2, 0.94, 0.2675, 1.0075, 0.4025, 1.1425, 0.47, 1.21, 0.5375, 1.2775, 0.605, 1.345, 0.6725, 1.4125, 0.335, 1.075, 0, 0.74, 0.0675, 0.8075, 0.1325, 0.8725, 0.2, 0.94, 0.2675, 1.0075, 0.4025, 1.1425, 0.47, 1.21, 0.5375, 1.2775, 0.605, 1.345, 0.6725, 1.4125, 0.335],
  "SoftwareVersions": "syngo MR E11",
  "SpacingBetweenSlices": 2,
  "StationName": "AWP166011",
  "TaskName": "vwfate",
  "TotalReadoutTime": 0.0551515,
  "TxRefAmp": 210.024,
  "dcmmeta_affine": [
    [-1.9983184337615967, -0.020578352734446526, -0.07937328517436981, 99.25364685058594],
    [-0.0020731708500534296, 1.9480540752410889, -0.4528587758541107, -59.479766845703125],
    [-0.08197126537561417, 0.4523957371711731, 1.9464374780654907, -79.5972900390625],
    [0.0, 0.0, 0.0, 1.0]
],
  "dcmmeta_reorient_transform": [
    [0.0, -1.0, 0.0, 95.0],
    [1.0, 0.0, 0.0, 0.0],
    [0.0, 0.0, 1.0, 0.0],
    [0.0, 0.0, 0.0, 1.0]
],
  "dcmmeta_shape": [96, 96, 66, 164],
  "dcmmeta_slice_dim": 2,
  "dcmmeta_version": 0.6,
  "global": {
    "const": {
      "AcquisitionMatrix": [96, 0, 0, 72],
      "AngioFlag": "N",
      "BitsAllocated": 16,
      "BitsStored": 12,
      "BodyPartExamined": "BRAIN",
      "Columns": 864,
      "EchoNumbers": 1,
      "EchoTime": 30.0,
      "EchoTrainLength": 58,
      "FlipAngle": 62.0,
      "HighBit": 11,
      "ImageOrientationPatient": [0.99915919821349, 0.0010365854457, -0.0409856330437, -0.0102891763174, 0.97402703054275, -0.226197870509],
      "ImagePositionPatient": [-856.7508830804, -874.43422561234, 168.57723325726],
      "ImageType": [
        "ORIGINAL",
        "PRIMARY",
        "M",
        "ND",
        "MOSAIC"
],
      "ImagedNucleus": "1H",
      "ImagingFrequency": 123.259536,
      "InPlanePhaseEncodingDirection": "COL",
      "MRAcquisitionType": "2D",
      "MagneticFieldStrength": 3.0,
      "Manufacturer": "SIEMENS",
      "ManufacturerModelName": "Prisma",
      "Modality": "MR",
      "NumberOfAverages": 1.0,
      "NumberOfPhaseEncodingSteps": 58,
      "PercentPhaseFieldOfView": 100.0,
      "PercentSampling": 75.0,
      "PerformedProcedureStepStartTime": "081455.466000",
      "PhotometricInterpretation": "MONOCHROME2",
      "PixelBandwidth": 2265.0,
      "PixelRepresentation": 0,
      "PixelSpacing": [2.0, 2.0],
      "ProtocolName": "func_vwfate_run14",
      "RepetitionTime": 1500.0,
      "Rows": 864,
      "SAR": 0.04921628365937,
      "SamplesPerPixel": 1,
      "ScanOptions": [
        "PFP",
        "FS"
],
      "ScanningSequence": "EP",
      "SequenceName": "*epfid2d1_72",
      "SequenceVariant": [
        "SK",
        "OSP"
],
      "SeriesDescription": "func_vwfate_run14",
      "SeriesNumber": 9,
      "SeriesTime": "090751.233000",
      "SliceLocation": -67.936652943142,
      "SliceThickness": 2.0,
      "SmallestImagePixelValue": 0,
      "SoftwareVersions": "syngo MR E11",
      "SpacingBetweenSlices": 2.0000000179255,
      "SpecificCharacterSet": "ISO_IR 100",
      "StudyID": "5",
      "StudyTime": "081454.914000",
      "TransmitCoilName": "Body",
      "VariableFlipAngleFlag": "N",
      "WindowCenterWidthExplanation": "Algo1",
      "dBdt": 0.0},
    "slices": {}
  },
  "time": {
    "samples": {
      "AcquisitionNumber": [1, 2, 3, 4, 5, 6, 7, 8, 9, 10, 11, 12, 13, 14, 15, 16, 17, 18, 19, 20, 21, 22, 23, 24, 25, 26, 27, 28, 29, 30, 31, 32, 33, 34, 35, 36, 37, 38, 39, 40, 41, 42, 43, 44, 45, 46, 47, 48, 49, 50, 51, 52, 53, 54, 55, 56, 57, 58, 59, 60, 61, 62, 63, 64, 65, 66, 67, 68, 69, 70, 71, 72, 73, 74, 75, 76, 77, 78, 79, 80, 81, 82, 83, 84, 85, 86, 87, 88, 89, 90, 91, 92, 93, 94, 95, 96, 97, 98, 99, 100, 101, 102, 103, 104, 105, 106, 107, 108, 109, 110, 111, 112, 113, 114, 115, 116, 117, 118, 119, 120, 121, 122, 123, 124, 125, 126, 127, 128, 129, 130, 131, 132, 133, 134, 135, 136, 137, 138, 139, 140, 141, 142, 143, 144, 145, 146, 147, 148, 149, 150, 151, 152, 153, 154, 155, 156, 157, 158, 159, 160, 161, 162, 163, 164],
      "AcquisitionTime": ["090707.482500", "090708.982500", "090710.482500", "090711.982500", "090713.482500", "090714.982500", "090716.482500", "090717.982500", "090719.482500", "090720.982500", "090722.482500", "090723.982500", "090725.482500", "090726.982500", "090728.482500", "090729.982500", "090731.482500", "090732.982500", "090734.482500", "090735.982500", "090737.482500", "090738.982500", "090740.482500", "090741.982500", "090743.482500", "090744.982500", "090746.482500", "090747.982500", "090749.482500", "090750.982500", "090752.482500", "090753.982500", "090755.482500", "090756.982500", "090758.482500", "090759.982500", "090801.482500", "090802.982500", "090804.482500", "090805.982500", "090807.482500", "090808.982500", "090810.482500", "090811.982500", "090813.482500", "090814.982500", "090816.482500", "090817.982500", "090819.482500", "090820.982500", "090822.482500", "090823.982500", "090825.482500", "090826.982500", "090828.482500", "090829.982500", "090831.482500", "090832.982500", "090834.482500", "090835.982500", "090837.482500", "090838.982500", "090840.482500", "090841.982500", "090843.482500", "090844.982500", "090846.482500", "090847.982500", "090849.482500", "090850.982500", "090852.482500", "090853.982500", "090855.482500", "090856.982500", "090858.482500", "090859.982500", "090901.482500", "090902.982500", "090904.482500", "090905.982500", "090907.482500", "090908.982500", "090910.482500", "090911.982500", "090913.482500", "090914.982500", "090916.482500", "090917.982500", "090919.482500", "090920.982500", "090922.482500", "090923.982500", "090925.482500", "090926.982500", "090928.482500", "090929.982500", "090931.482500", "090932.982500", "090934.482500", "090935.982500", "090937.482500", "090938.982500", "090940.482500", "090941.982500", "090943.482500", "090944.982500", "090946.482500", "090947.982500", "090949.482500", "090950.982500", "090952.482500", "090953.982500", "090955.482500", "090956.982500", "090958.482500", "090959.982500", "091001.482500", "091002.982500", "091004.482500", "091005.982500", "091007.482500", "091008.982500", "091010.482500", "091011.982500", "091013.482500", "091014.982500", "091016.482500", "091017.982500", "091019.482500", "091020.982500", "091022.482500", "091023.982500", "091025.482500", "091026.982500", "091028.482500", "091029.982500", "091031.482500", "091032.982500", "091034.482500", "091035.982500", "091037.482500", "091038.982500", "091040.482500", "091041.982500", "091043.482500", "091044.982500", "091046.482500", "091047.982500", "091049.482500", "091050.982500", "091052.482500", "091053.982500", "091055.482500", "091056.982500", "091058.482500", "091059.982500", "091101.482500", "091102.982500", "091104.482500", "091105.982500", "091107.482500", "091108.982500", "091110.482500", "091111.982500"],
      "ContentTime": ["090751.237000", "090751.241000", "090751.253000", "090751.256000", "090751.259000", "090751.264000", "090751.267000", "090751.270000", "090751.273000", "090751.276000", "090751.279000", "090751.282000", "090751.285000", "090751.288000", "090751.292000", "090751.294000", "090751.297000", "090751.300000", "090751.304000", "090751.307000", "090751.310000", "090751.317000", "090751.320000", "090751.323000", "090751.326000", "090751.329000", "090751.332000", "090751.335000", "090751.338000", "090831.232000", "090831.235000", "090831.239000", "090831.242000", "090831.244000", "090831.248000", "090831.251000", "090831.254000", "090831.257000", "090831.259000", "090831.263000", "090831.266000", "090831.269000", "090831.272000", "090831.275000", "090831.278000", "090831.281000", "090831.283000", "090831.287000", "090831.290000", "090831.293000", "090831.296000", "090831.299000", "090831.302000", "090831.309000", "090831.312000", "090831.315000", "090911.233000", "090911.236000", "090911.239000", "090911.242000", "090911.245000", "090911.248000", "090911.257000", "090911.260000", "090911.263000", "090911.266000", "090911.269000", "090911.273000", "090911.275000", "090911.278000", "090911.281000", "090911.284000", "090911.287000", "090911.290000", "090911.294000", "090911.297000", "090911.300000", "090911.302000", "090911.305000", "090911.308000", "090911.311000", "090911.314000", "090951.233000", "090951.236000", "090951.239000", "090951.242000", "090951.245000", "090951.248000", "090951.251000", "090951.254000", "090951.257000", "090951.260000", "090951.263000", "090951.266000", "090951.269000", "090951.272000", "090951.275000", "090951.278000", "090951.281000", "090951.297000", "090951.300000", "090951.303000", "090951.306000", "090951.309000", "090951.312000", "090951.315000", "090951.318000", "090951.321000", "090951.324000", "091031.232000", "091031.235000", "091031.238000", "091031.241000", "091031.244000", "091031.247000", "091031.251000", "091031.254000", "091031.261000", "091031.264000", "091031.268000", "091031.271000", "091031.274000", "091031.277000", "091031.280000", "091031.283000", "091031.286000", "091031.289000", "091031.292000", "091031.295000", "091031.298000", "091031.301000", "091031.304000", "091031.307000", "091031.310000", "091031.313000", "091031.316000", "091111.233000", "091111.236000", "091111.240000", "091111.243000", "091111.246000", "091111.249000", "091111.252000", "091111.255000", "091111.258000", "091111.261000", "091111.264000", "091111.268000", "091111.271000", "091111.274000", "091111.277000", "091111.280000", "091111.283000", "091111.286000", "091111.289000", "091111.292000", "091111.295000", "091111.298000", "091111.301000", "091111.305000", "091111.308000", "091111.311000", "091113.161000", "091113.164000"],
      "InstanceCreationTime": ["090751.237000", "090751.241000", "090751.253000", "090751.256000", "090751.259000", "090751.264000", "090751.267000", "090751.270000", "090751.273000", "090751.276000", "090751.279000", "090751.282000", "090751.285000", "090751.288000", "090751.292000", "090751.294000", "090751.297000", "090751.300000", "090751.304000", "090751.307000", "090751.310000", "090751.317000", "090751.320000", "090751.323000", "090751.326000", "090751.329000", "090751.332000", "090751.335000", "090751.338000", "090831.232000", "090831.235000", "090831.239000", "090831.242000", "090831.244000", "090831.248000", "090831.251000", "090831.254000", "090831.257000", "090831.259000", "090831.263000", "090831.266000", "090831.269000", "090831.272000", "090831.275000", "090831.278000", "090831.281000", "090831.283000", "090831.287000", "090831.290000", "090831.293000", "090831.296000", "090831.299000", "090831.302000", "090831.309000", "090831.312000", "090831.315000", "090911.233000", "090911.236000", "090911.239000", "090911.242000", "090911.245000", "090911.248000", "090911.257000", "090911.260000", "090911.263000", "090911.266000", "090911.269000", "090911.273000", "090911.275000", "090911.278000", "090911.281000", "090911.284000", "090911.287000", "090911.290000", "090911.294000", "090911.297000", "090911.300000", "090911.302000", "090911.305000", "090911.308000", "090911.311000", "090911.314000", "090951.233000", "090951.236000", "090951.239000", "090951.242000", "090951.245000", "090951.248000", "090951.251000", "090951.254000", "090951.257000", "090951.260000", "090951.263000", "090951.266000", "090951.269000", "090951.272000", "090951.275000", "090951.278000", "090951.281000", "090951.297000", "090951.300000", "090951.303000", "090951.306000", "090951.309000", "090951.312000", "090951.315000", "090951.318000", "090951.321000", "090951.324000", "091031.232000", "091031.235000", "091031.238000", "091031.241000", "091031.244000", "091031.247000", "091031.251000", "091031.254000", "091031.261000", "091031.264000", "091031.268000", "091031.271000", "091031.274000", "091031.277000", "091031.280000", "091031.283000", "091031.286000", "091031.289000", "091031.292000", "091031.295000", "091031.298000", "091031.301000", "091031.304000", "091031.307000", "091031.310000", "091031.313000", "091031.316000", "091111.233000", "091111.236000", "091111.240000", "091111.243000", "091111.246000", "091111.249000", "091111.252000", "091111.255000", "091111.258000", "091111.261000", "091111.264000", "091111.268000", "091111.271000", "091111.274000", "091111.277000", "091111.280000", "091111.283000", "091111.286000", "091111.289000", "091111.292000", "091111.295000", "091111.298000", "091111.301000", "091111.305000", "091111.308000", "091111.311000", "091113.161000", "091113.164000"],
      "InstanceNumber": [1, 2, 3, 4, 5, 6, 7, 8, 9, 10, 11, 12, 13, 14, 15, 16, 17, 18, 19, 20, 21, 22, 23, 24, 25, 26, 27, 28, 29, 30, 31, 32, 33, 34, 35, 36, 37, 38, 39, 40, 41, 42, 43, 44, 45, 46, 47, 48, 49, 50, 51, 52, 53, 54, 55, 56, 57, 58, 59, 60, 61, 62, 63, 64, 65, 66, 67, 68, 69, 70, 71, 72, 73, 74, 75, 76, 77, 78, 79, 80, 81, 82, 83, 84, 85, 86, 87, 88, 89, 90, 91, 92, 93, 94, 95, 96, 97, 98, 99, 100, 101, 102, 103, 104, 105, 106, 107, 108, 109, 110, 111, 112, 113, 114, 115, 116, 117, 118, 119, 120, 121, 122, 123, 124, 125, 126, 127, 128, 129, 130, 131, 132, 133, 134, 135, 136, 137, 138, 139, 140, 141, 142, 143, 144, 145, 146, 147, 148, 149, 150, 151, 152, 153, 154, 155, 156, 157, 158, 159, 160, 161, 162, 163, 164],
      "LargestImagePixelValue": [2366, 2315, 2194, 2270, 2144, 2167, 2152, 2183, 2223, 2219, 2210, 2290, 2218, 2633, 2421, 2295, 2297, 2260, 2247, 2118, 2160, 2194, 2248, 2186, 2223, 2285, 2070, 2289, 2147, 2228, 2266, 2250, 2249, 2198, 2167, 2237, 2246, 2103, 2177, 2112, 2424, 2339, 2325, 2334, 2281, 2323, 2366, 2434, 2197, 2358, 2292, 2173, 2302, 2324, 2290, 2326, 2273, 2257, 2303, 2281, 2282, 2284, 2393, 2279, 2306, 2326, 2370, 2371, 2356, 2458, 2317, 2305, 2399, 2357, 2309, 2380, 2389, 2369, 2385, 2356, 2287, 2324, 2224, 2380, 2300, 2328, 2298, 2300, 2378, 2350, 2370, 2351, 2401, 2398, 2412, 2438, 2375, 2382, 2435, 2444, 2348, 2358, 2412, 2341, 2375, 2423, 2450, 2392, 2368, 2288, 2393, 2477, 2476, 2420, 2271, 2346, 2324, 2304, 2321, 2479, 2290, 2269, 2344, 2102, 2155, 2283, 2255, 2410, 2335, 2254, 2316, 2271, 2336, 2239, 2171, 2429, 2302, 2322, 2349, 2355, 2326, 2367, 2312, 2180, 2202, 2272, 2357, 2339, 2397, 2295, 2210, 2316, 2406, 2348, 2328, 2437, 2267, 2366, 2378, 2348, 2347, 2365, 2401, 2347],
      "WindowCenter": [715.0, 714.0, 713.0, 713.0, 712.0, 711.0, 710.0, 709.0, 709.0, 710.0, 710.0, 711.0, 712.0, 716.0, 715.0, 714.0, 714.0, 714.0, 714.0, 713.0, 713.0, 713.0, 712.0, 713.0, 713.0, 713.0, 712.0, 713.0, 710.0, 710.0, 709.0, 709.0, 710.0, 710.0, 710.0, 711.0, 712.0, 711.0, 712.0, 711.0, 713.0, 712.0, 712.0, 713.0, 713.0, 714.0, 714.0, 714.0, 713.0, 714.0, 713.0, 712.0, 713.0, 713.0, 713.0, 713.0, 712.0, 712.0, 712.0, 712.0, 713.0, 713.0, 714.0, 713.0, 714.0, 714.0, 715.0, 715.0, 715.0, 716.0, 715.0, 714.0, 715.0, 715.0, 714.0, 715.0, 715.0, 715.0, 715.0, 715.0, 712.0, 714.0, 714.0, 715.0, 712.0, 710.0, 709.0, 708.0, 709.0, 710.0, 712.0, 713.0, 715.0, 714.0, 715.0, 715.0, 714.0, 714.0, 715.0, 715.0, 714.0, 715.0, 715.0, 715.0, 715.0, 715.0, 715.0, 714.0, 713.0, 712.0, 714.0, 714.0, 713.0, 713.0, 712.0, 713.0, 713.0, 713.0, 713.0, 714.0, 713.0, 712.0, 713.0, 711.0, 711.0, 713.0, 713.0, 714.0, 714.0, 714.0, 715.0, 715.0, 715.0, 713.0, 711.0, 714.0, 713.0, 713.0, 713.0, 712.0, 710.0, 709.0, 709.0, 708.0, 709.0, 711.0, 713.0, 714.0, 715.0, 714.0, 713.0, 714.0, 714.0, 714.0, 715.0, 717.0, 716.0, 717.0, 717.0, 716.0, 716.0, 715.0, 715.0, 715.0],
      "WindowWidth": [1544.0, 1542.0, 1538.0, 1539.0, 1535.0, 1534.0, 1530.0, 1529.0, 1529.0, 1530.0, 1532.0, 1534.0, 1535.0, 1546.0, 1543.0, 1542.0, 1542.0, 1540.0, 1540.0, 1538.0, 1540.0, 1540.0, 1535.0, 1538.0, 1539.0, 1540.0, 1535.0, 1537.0, 1531.0, 1530.0, 1529.0, 1529.0, 1530.0, 1530.0, 1531.0, 1534.0, 1536.0, 1533.0, 1536.0, 1534.0, 1539.0, 1537.0, 1536.0, 1537.0, 1537.0, 1541.0, 1541.0, 1542.0, 1537.0, 1540.0, 1538.0, 1535.0, 1538.0, 1539.0, 1537.0, 1538.0, 1537.0, 1536.0, 1537.0, 1537.0, 1537.0, 1538.0, 1540.0, 1539.0, 1540.0, 1541.0, 1543.0, 1544.0, 1545.0, 1546.0, 1543.0, 1542.0, 1544.0, 1543.0, 1541.0, 1543.0, 1543.0, 1544.0, 1544.0, 1543.0, 1536.0, 1540.0, 1541.0, 1543.0, 1536.0, 1531.0, 1527.0, 1525.0, 1529.0, 1531.0, 1536.0, 1540.0, 1543.0, 1542.0, 1543.0, 1543.0, 1542.0, 1542.0, 1543.0, 1543.0, 1542.0, 1542.0, 1544.0, 1543.0, 1543.0, 1543.0, 1543.0, 1541.0, 1538.0, 1537.0, 1540.0, 1541.0, 1539.0, 1538.0, 1536.0, 1538.0, 1538.0, 1539.0, 1539.0, 1542.0, 1537.0, 1536.0, 1537.0, 1532.0, 1534.0, 1538.0, 1538.0, 1541.0, 1540.0, 1541.0, 1544.0, 1544.0, 1543.0, 1538.0, 1532.0, 1541.0, 1539.0, 1538.0, 1538.0, 1534.0, 1529.0, 1528.0, 1528.0, 1526.0, 1529.0, 1533.0, 1538.0, 1541.0, 1543.0, 1541.0, 1539.0, 1541.0, 1542.0, 1542.0, 1544.0, 1548.0, 1547.0, 1548.0, 1548.0, 1547.0, 1545.0, 1543.0, 1544.0, 1543.0]
    },
    "slices": {}
  }
}