{
  "AcquisitionMatrixPE": 72,
  "AcquisitionNumber": 1,
  "AcquisitionTime": "16:15:40.327500",
  "BandwidthPerPixelPhaseEncode": 17.943,
  "BaseResolution": 96,
  "BodyPartExamined": "BRAIN",
  "CoilCombinationMethod": "Sum of Squares",
  "ConsistencyInfo": "N4_VE11C_LATEST_20160120",
  "ConversionSoftware": "dcm2niix",
  "ConversionSoftwareVersion": "v1.0.20211006",
  "DerivedVendorReportedEchoSpacing": 0.000552897,
  "DeviceSerialNumber": "166011",
  "EchoTime": 0.03,
  "EchoTrainLength": 58,
  "EffectiveEchoSpacing": 0.000580542,
  "FlipAngle": 62,
  "ImageOrientationPatientDICOM": [0.997951, -0.0424054, 0.0479218, 0.0460148, 0.995975, -0.0769129],
  "ImageType": [
    "ORIGINAL",
    "PRIMARY",
    "M",
    "ND",
    "MOSAIC"
],
  "ImagingFrequency": 123.259,
  "InPlanePhaseEncodingDirectionDICOM": "COL",
  "InstitutionAddress": "West 130th Street 610,NY,NYC,US,10025",
  "InstitutionName": "MBBI",
  "MRAcquisitionType": "2D",
  "MagneticFieldStrength": 3,
  "Manufacturer": "Siemens",
  "ManufacturersModelName": "Prisma",
  "Modality": "MR",
  "MultibandAccelerationFactor": 3,
  "PartialFourier": 0.75,
  "PatientPosition": "HFS",
  "PercentPhaseFOV": 100,
  "PercentSampling": 75,
  "PhaseEncodingDirection": "j-",
  "PhaseEncodingSteps": 58,
  "PhaseOversampling": 0.05,
  "PhaseResolution": 0.75,
  "PixelBandwidth": 2265,
  "ProcedureStepDescription": "White^Word_recognition",
  "ProtocolName": "func_vwfate_run12",
  "PulseSequenceDetails": "%SiemensSeq%\\ep2d_bold",
  "ReceiveCoilActiveElements": "HC1-7",
  "ReceiveCoilName": "HeadNeck_64",
  "ReconMatrixPE": 96,
  "RefLinesPE": 40,
  "RepetitionTime": 1.5,
  "SAR": 0.0528371,
  "ScanOptions": "PFP\\FS",
  "ScanningSequence": "EP",
  "SequenceName": "*epfid2d1_72",
  "SequenceVariant": "SK\\OSP",
  "SeriesDescription": "func_vwfate_run12",
  "SeriesNumber": 15,
  "ShimSetting": [-1134, -1373, 635, 503, -81, -94, -66, 1],
  "SliceThickness": 2,
  "SliceTiming": [1.0775, 0, 0.74, 0.0675, 0.8075, 0.135, 0.875, 0.2025, 0.9425, 0.27, 1.01, 0.4025, 1.1425, 0.47, 1.21, 0.5375, 1.2775, 0.605, 1.345, 0.6725, 1.4125, 0.3375, 1.0775, 0, 0.74, 0.0675, 0.8075, 0.135, 0.875, 0.2025, 0.9425, 0.27, 1.01, 0.4025, 1.1425, 0.47, 1.21, 0.5375, 1.2775, 0.605, 1.345, 0.6725, 1.4125, 0.3375, 1.0775, 0, 0.74, 0.0675, 0.8075, 0.135, 0.875, 0.2025, 0.9425, 0.27, 1.01, 0.4025, 1.1425, 0.47, 1.21, 0.5375, 1.2775, 0.605, 1.345, 0.6725, 1.4125, 0.3375],
  "SoftwareVersions": "syngo MR E11",
  "SpacingBetweenSlices": 2,
  "StationName": "AWP166011",
  "TaskName": "vwfate",
  "TotalReadoutTime": 0.0551515,
  "TxRefAmp": 218.627,
  "dcmmeta_affine": [
    [-1.995901107788086, 0.0920296162366867, 0.08893490582704544, 93.01691436767578],
    [0.08481071889400482, 1.9919508695602417, -0.1579207330942154, -71.13549041748047],
    [0.09584367275238037, 0.1538257598876953, 1.9917709827423096, -79.84556579589844],
    [0.0, 0.0, 0.0, 1.0]
],
  "dcmmeta_reorient_transform": [
    [0.0, -1.0, 0.0, 95.0],
    [1.0, 0.0, 0.0, 0.0],
    [0.0, 0.0, 1.0, 0.0],
    [0.0, 0.0, 0.0, 1.0]
],
  "dcmmeta_shape": [96, 96, 66, 164],
  "dcmmeta_slice_dim": 2,
  "dcmmeta_version": 0.6,
  "global": {
    "const": {
      "AcquisitionMatrix": [96, 0, 0, 72],
      "AngioFlag": "N",
      "BitsAllocated": 16,
      "BitsStored": 12,
      "BodyPartExamined": "BRAIN",
      "Columns": 864,
      "EchoNumbers": 1,
      "EchoTime": 30.0,
      "EchoTrainLength": 58,
      "FlipAngle": 62.0,
      "HighBit": 11,
      "ImageOrientationPatient": [0.99795054127543, -0.0424053606739, 0.04792183796757, 0.04601480927358, 0.99597542424576, -0.076912883355],
      "ImagePositionPatient": [-903.52511607602, -850.44164857354, -42.96699557429],
      "ImageType": [
        "ORIGINAL",
        "PRIMARY",
        "M",
        "ND",
        "MOSAIC"
],
      "ImagedNucleus": "1H",
      "ImagingFrequency": 123.25907,
      "InPlanePhaseEncodingDirection": "COL",
      "MRAcquisitionType": "2D",
      "MagneticFieldStrength": 3.0,
      "Manufacturer": "SIEMENS",
      "ManufacturerModelName": "Prisma",
      "Modality": "MR",
      "NumberOfAverages": 1.0,
      "NumberOfPhaseEncodingSteps": 58,
      "PercentPhaseFieldOfView": 100.0,
      "PercentSampling": 75.0,
      "PerformedProcedureStepStartTime": "144432.138000",
      "PhotometricInterpretation": "MONOCHROME2",
      "PixelBandwidth": 2265.0,
      "PixelRepresentation": 0,
      "PixelSpacing": [2.0, 2.0],
      "ProtocolName": "func_vwfate_run12",
      "RepetitionTime": 1500.0,
      "Rows": 864,
      "SAR": 0.05283710063613,
      "SamplesPerPixel": 1,
      "ScanOptions": [
        "PFP",
        "FS"
],
      "ScanningSequence": "EP",
      "SequenceName": "*epfid2d1_72",
      "SequenceVariant": [
        "SK",
        "OSP"
],
      "SeriesDescription": "func_vwfate_run12",
      "SeriesNumber": 15,
      "SeriesTime": "161617.492000",
      "SliceLocation": -69.763930895034,
      "SliceThickness": 2.0,
      "SmallestImagePixelValue": 0,
      "SoftwareVersions": "syngo MR E11",
      "SpacingBetweenSlices": 1.9999999597331,
      "SpecificCharacterSet": "ISO_IR 100",
      "StudyID": "2",
      "StudyTime": "144432.099000",
      "TransmitCoilName": "Body",
      "VariableFlipAngleFlag": "N",
      "WindowCenterWidthExplanation": "Algo1",
      "dBdt": 0.0},
    "slices": {}
  },
  "time": {
    "samples": {
      "AcquisitionNumber": [1, 2, 3, 4, 5, 6, 7, 8, 9, 10, 11, 12, 13, 14, 15, 16, 17, 18, 19, 20, 21, 22, 23, 24, 25, 26, 27, 28, 29, 30, 31, 32, 33, 34, 35, 36, 37, 38, 39, 40, 41, 42, 43, 44, 45, 46, 47, 48, 49, 50, 51, 52, 53, 54, 55, 56, 57, 58, 59, 60, 61, 62, 63, 64, 65, 66, 67, 68, 69, 70, 71, 72, 73, 74, 75, 76, 77, 78, 79, 80, 81, 82, 83, 84, 85, 86, 87, 88, 89, 90, 91, 92, 93, 94, 95, 96, 97, 98, 99, 100, 101, 102, 103, 104, 105, 106, 107, 108, 109, 110, 111, 112, 113, 114, 115, 116, 117, 118, 119, 120, 121, 122, 123, 124, 125, 126, 127, 128, 129, 130, 131, 132, 133, 134, 135, 136, 137, 138, 139, 140, 141, 142, 143, 144, 145, 146, 147, 148, 149, 150, 151, 152, 153, 154, 155, 156, 157, 158, 159, 160, 161, 162, 163, 164],
      "AcquisitionTime": ["161540.327500", "161541.827500", "161543.327500", "161544.827500", "161546.327500", "161547.827500", "161549.327500", "161550.827500", "161552.327500", "161553.827500", "161555.327500", "161556.827500", "161558.327500", "161559.827500", "161601.327500", "161602.827500", "161604.327500", "161605.827500", "161607.327500", "161608.827500", "161610.327500", "161611.827500", "161613.327500", "161614.827500", "161616.327500", "161617.827500", "161619.327500", "161620.827500", "161622.327500", "161623.827500", "161625.327500", "161626.827500", "161628.327500", "161629.827500", "161631.327500", "161632.827500", "161634.327500", "161635.827500", "161637.327500", "161638.827500", "161640.327500", "161641.827500", "161643.327500", "161644.827500", "161646.327500", "161647.827500", "161649.327500", "161650.827500", "161652.327500", "161653.827500", "161655.327500", "161656.827500", "161658.327500", "161659.827500", "161701.327500", "161702.827500", "161704.327500", "161705.827500", "161707.327500", "161708.827500", "161710.327500", "161711.827500", "161713.327500", "161714.827500", "161716.327500", "161717.827500", "161719.327500", "161720.827500", "161722.327500", "161723.827500", "161725.327500", "161726.827500", "161728.327500", "161729.827500", "161731.327500", "161732.827500", "161734.327500", "161735.827500", "161737.327500", "161738.827500", "161740.327500", "161741.827500", "161743.327500", "161744.827500", "161746.327500", "161747.827500", "161749.327500", "161750.827500", "161752.327500", "161753.827500", "161755.327500", "161756.827500", "161758.327500", "161759.827500", "161801.327500", "161802.827500", "161804.327500", "161805.827500", "161807.327500", "161808.827500", "161810.327500", "161811.827500", "161813.327500", "161814.827500", "161816.327500", "161817.827500", "161819.327500", "161820.827500", "161822.327500", "161823.827500", "161825.327500", "161826.827500", "161828.327500", "161829.827500", "161831.327500", "161832.827500", "161834.327500", "161835.827500", "161837.327500", "161838.827500", "161840.327500", "161841.827500", "161843.327500", "161844.827500", "161846.327500", "161847.827500", "161849.327500", "161850.827500", "161852.327500", "161853.827500", "161855.327500", "161856.827500", "161858.327500", "161859.827500", "161901.327500", "161902.827500", "161904.327500", "161905.827500", "161907.327500", "161908.827500", "161910.327500", "161911.827500", "161913.327500", "161914.827500", "161916.327500", "161917.827500", "161919.327500", "161920.827500", "161922.327500", "161923.827500", "161925.327500", "161926.827500", "161928.327500", "161929.827500", "161931.327500", "161932.827500", "161934.327500", "161935.827500", "161937.327500", "161938.827500", "161940.327500", "161941.827500", "161943.327500", "161944.827500"],
      "ContentTime": ["161617.496000", "161617.499000", "161617.503000", "161617.506000", "161617.514000", "161617.518000", "161617.521000", "161617.524000", "161617.527000", "161617.530000", "161617.533000", "161617.536000", "161617.539000", "161617.542000", "161617.545000", "161617.548000", "161617.551000", "161617.554000", "161617.563000", "161617.566000", "161617.568000", "161617.572000", "161617.575000", "161617.577000", "161617.580000", "161657.492000", "161657.495000", "161657.498000", "161657.501000", "161657.504000", "161657.507000", "161657.510000", "161657.513000", "161657.516000", "161657.519000", "161657.522000", "161657.525000", "161657.528000", "161657.531000", "161657.534000", "161657.537000", "161657.540000", "161657.543000", "161657.545000", "161657.549000", "161657.551000", "161657.554000", "161657.561000", "161657.564000", "161657.567000", "161657.570000", "161737.492000", "161737.495000", "161737.498000", "161737.501000", "161737.504000", "161737.507000", "161737.510000", "161737.513000", "161737.516000", "161737.519000", "161737.522000", "161737.525000", "161737.528000", "161737.538000", "161737.541000", "161737.544000", "161737.547000", "161737.550000", "161737.553000", "161737.556000", "161737.559000", "161737.562000", "161737.565000", "161737.568000", "161737.571000", "161737.573000", "161737.577000", "161817.491000", "161817.494000", "161817.497000", "161817.500000", "161817.503000", "161817.506000", "161817.509000", "161817.512000", "161817.515000", "161817.518000", "161817.521000", "161817.524000", "161817.527000", "161817.530000", "161817.533000", "161817.536000", "161817.539000", "161817.542000", "161817.545000", "161817.548000", "161817.551000", "161817.554000", "161817.557000", "161817.560000", "161817.562000", "161817.566000", "161817.568000", "161837.491000", "161837.494000", "161837.497000", "161837.500000", "161837.503000", "161837.506000", "161837.509000", "161837.512000", "161837.515000", "161837.518000", "161837.521000", "161837.524000", "161837.527000", "161917.492000", "161917.495000", "161917.498000", "161917.501000", "161917.504000", "161917.507000", "161917.526000", "161917.529000", "161917.532000", "161917.535000", "161917.538000", "161917.541000", "161917.544000", "161917.547000", "161917.550000", "161917.553000", "161917.556000", "161917.559000", "161917.562000", "161917.565000", "161917.568000", "161917.571000", "161917.574000", "161917.577000", "161917.580000", "161917.583000", "161917.586000", "161945.674000", "161945.677000", "161945.680000", "161945.683000", "161945.686000", "161945.689000", "161945.692000", "161945.695000", "161945.698000", "161945.701000", "161945.704000", "161945.707000", "161945.710000", "161945.713000", "161945.716000", "161945.719000", "161945.722000", "161945.725000", "161945.728000"],
      "InstanceCreationTime": ["161617.496000", "161617.499000", "161617.503000", "161617.506000", "161617.514000", "161617.518000", "161617.521000", "161617.524000", "161617.527000", "161617.530000", "161617.533000", "161617.536000", "161617.539000", "161617.542000", "161617.545000", "161617.548000", "161617.551000", "161617.554000", "161617.563000", "161617.566000", "161617.568000", "161617.572000", "161617.575000", "161617.577000", "161617.580000", "161657.492000", "161657.495000", "161657.498000", "161657.501000", "161657.504000", "161657.507000", "161657.510000", "161657.513000", "161657.516000", "161657.519000", "161657.522000", "161657.525000", "161657.528000", "161657.531000", "161657.534000", "161657.537000", "161657.540000", "161657.543000", "161657.545000", "161657.549000", "161657.551000", "161657.554000", "161657.561000", "161657.564000", "161657.567000", "161657.570000", "161737.492000", "161737.495000", "161737.498000", "161737.501000", "161737.504000", "161737.507000", "161737.510000", "161737.513000", "161737.516000", "161737.519000", "161737.522000", "161737.525000", "161737.528000", "161737.538000", "161737.541000", "161737.544000", "161737.547000", "161737.550000", "161737.553000", "161737.556000", "161737.559000", "161737.562000", "161737.565000", "161737.568000", "161737.571000", "161737.573000", "161737.577000", "161817.491000", "161817.494000", "161817.497000", "161817.500000", "161817.503000", "161817.506000", "161817.509000", "161817.512000", "161817.515000", "161817.518000", "161817.521000", "161817.524000", "161817.527000", "161817.530000", "161817.533000", "161817.536000", "161817.539000", "161817.542000", "161817.545000", "161817.548000", "161817.551000", "161817.554000", "161817.557000", "161817.560000", "161817.562000", "161817.566000", "161817.568000", "161837.491000", "161837.494000", "161837.497000", "161837.500000", "161837.503000", "161837.506000", "161837.509000", "161837.512000", "161837.515000", "161837.518000", "161837.521000", "161837.524000", "161837.527000", "161917.492000", "161917.495000", "161917.498000", "161917.501000", "161917.504000", "161917.507000", "161917.526000", "161917.529000", "161917.532000", "161917.535000", "161917.538000", "161917.541000", "161917.544000", "161917.547000", "161917.550000", "161917.553000", "161917.556000", "161917.559000", "161917.562000", "161917.565000", "161917.568000", "161917.571000", "161917.574000", "161917.577000", "161917.580000", "161917.583000", "161917.586000", "161945.674000", "161945.677000", "161945.680000", "161945.683000", "161945.686000", "161945.689000", "161945.692000", "161945.695000", "161945.698000", "161945.701000", "161945.704000", "161945.707000", "161945.710000", "161945.713000", "161945.716000", "161945.719000", "161945.722000", "161945.725000", "161945.728000"],
      "InstanceNumber": [1, 2, 3, 4, 5, 6, 7, 8, 9, 10, 11, 12, 13, 14, 15, 16, 17, 18, 19, 20, 21, 22, 23, 24, 25, 26, 27, 28, 29, 30, 31, 32, 33, 34, 35, 36, 37, 38, 39, 40, 41, 42, 43, 44, 45, 46, 47, 48, 49, 50, 51, 52, 53, 54, 55, 56, 57, 58, 59, 60, 61, 62, 63, 64, 65, 66, 67, 68, 69, 70, 71, 72, 73, 74, 75, 76, 77, 78, 79, 80, 81, 82, 83, 84, 85, 86, 87, 88, 89, 90, 91, 92, 93, 94, 95, 96, 97, 98, 99, 100, 101, 102, 103, 104, 105, 106, 107, 108, 109, 110, 111, 112, 113, 114, 115, 116, 117, 118, 119, 120, 121, 122, 123, 124, 125, 126, 127, 128, 129, 130, 131, 132, 133, 134, 135, 136, 137, 138, 139, 140, 141, 142, 143, 144, 145, 146, 147, 148, 149, 150, 151, 152, 153, 154, 155, 156, 157, 158, 159, 160, 161, 162, 163, 164],
      "LargestImagePixelValue": [2563, 2505, 2470, 2458, 2459, 2437, 2449, 2452, 2447, 2445, 2409, 2447, 2447, 2451, 2458, 2452, 2437, 2445, 2430, 2428, 2428, 2449, 2438, 2452, 2413, 2451, 2445, 2444, 2435, 2433, 2432, 2448, 2438, 2433, 2428, 2443, 2422, 2387, 2411, 2290, 2419, 2430, 2395, 2404, 2301, 2435, 2389, 2339, 2377, 2272, 2268, 2273, 2281, 2286, 2291, 2269, 2328, 2306, 2282, 2290, 2316, 2312, 2296, 2339, 2345, 2348, 2328, 2319, 2297, 2278, 2318, 2303, 2329, 2291, 2318, 2295, 2253, 2368, 2337, 2314, 2354, 2326, 2344, 2325, 2336, 2339, 2338, 2337, 2331, 2342, 2319, 2342, 2318, 2321, 2311, 2313, 2334, 2328, 2347, 2327, 2332, 2325, 2334, 2353, 2340, 2328, 2320, 2325, 2331, 2352, 2316, 2340, 2319, 2335, 2326, 2333, 2317, 2331, 2335, 2332, 2323, 2346, 2337, 2327, 2320, 2314, 2341, 2332, 2342, 2322, 2344, 2335, 2336, 2341, 2343, 2344, 2335, 2313, 2298, 2300, 2324, 2312, 2313, 2339, 2308, 2330, 2336, 2329, 2331, 2320, 2323, 2318, 2318, 2325, 2333, 2323, 2324, 2329, 2316, 2329, 2329, 2315, 2343, 2325],
      "WindowCenter": [757.0, 755.0, 754.0, 754.0, 753.0, 753.0, 753.0, 755.0, 756.0, 755.0, 755.0, 754.0, 755.0, 755.0, 756.0, 757.0, 757.0, 756.0, 756.0, 755.0, 755.0, 755.0, 756.0, 756.0, 757.0, 757.0, 757.0, 756.0, 756.0, 756.0, 757.0, 756.0, 755.0, 755.0, 755.0, 755.0, 755.0, 754.0, 756.0, 746.0, 753.0, 755.0, 754.0, 753.0, 751.0, 750.0, 749.0, 752.0, 752.0, 749.0, 749.0, 750.0, 751.0, 751.0, 751.0, 751.0, 752.0, 752.0, 753.0, 752.0, 752.0, 751.0, 752.0, 752.0, 752.0, 750.0, 750.0, 751.0, 751.0, 752.0, 751.0, 751.0, 750.0, 750.0, 751.0, 750.0, 747.0, 754.0, 754.0, 752.0, 751.0, 750.0, 750.0, 749.0, 749.0, 748.0, 749.0, 749.0, 748.0, 748.0, 748.0, 749.0, 749.0, 750.0, 750.0, 751.0, 751.0, 751.0, 750.0, 751.0, 750.0, 751.0, 751.0, 750.0, 749.0, 749.0, 749.0, 751.0, 752.0, 752.0, 751.0, 751.0, 750.0, 749.0, 748.0, 749.0, 749.0, 750.0, 750.0, 750.0, 750.0, 750.0, 751.0, 751.0, 750.0, 750.0, 750.0, 750.0, 749.0, 749.0, 750.0, 750.0, 750.0, 749.0, 749.0, 749.0, 749.0, 749.0, 749.0, 750.0, 750.0, 749.0, 749.0, 749.0, 749.0, 748.0, 749.0, 749.0, 749.0, 750.0, 751.0, 751.0, 751.0, 751.0, 751.0, 751.0, 751.0, 751.0, 751.0, 750.0, 749.0, 750.0, 750.0, 750.0],
      "WindowWidth": [1633.0, 1628.0, 1625.0, 1625.0, 1623.0, 1623.0, 1624.0, 1628.0, 1629.0, 1629.0, 1627.0, 1625.0, 1626.0, 1627.0, 1630.0, 1632.0, 1632.0, 1630.0, 1630.0, 1627.0, 1627.0, 1629.0, 1631.0, 1631.0, 1633.0, 1633.0, 1633.0, 1631.0, 1631.0, 1632.0, 1632.0, 1629.0, 1628.0, 1626.0, 1628.0, 1628.0, 1628.0, 1625.0, 1630.0, 1603.0, 1623.0, 1628.0, 1624.0, 1621.0, 1617.0, 1615.0, 1611.0, 1618.0, 1619.0, 1611.0, 1611.0, 1613.0, 1617.0, 1617.0, 1617.0, 1617.0, 1620.0, 1620.0, 1621.0, 1620.0, 1619.0, 1617.0, 1618.0, 1618.0, 1617.0, 1614.0, 1614.0, 1616.0, 1617.0, 1619.0, 1616.0, 1616.0, 1614.0, 1614.0, 1616.0, 1614.0, 1606.0, 1625.0, 1623.0, 1618.0, 1616.0, 1614.0, 1613.0, 1612.0, 1611.0, 1609.0, 1611.0, 1610.0, 1609.0, 1608.0, 1608.0, 1610.0, 1610.0, 1612.0, 1614.0, 1617.0, 1616.0, 1616.0, 1614.0, 1615.0, 1615.0, 1616.0, 1617.0, 1614.0, 1611.0, 1611.0, 1611.0, 1615.0, 1618.0, 1619.0, 1616.0, 1616.0, 1612.0, 1609.0, 1608.0, 1610.0, 1612.0, 1612.0, 1612.0, 1613.0, 1613.0, 1614.0, 1615.0, 1615.0, 1612.0, 1612.0, 1614.0, 1612.0, 1610.0, 1610.0, 1612.0, 1613.0, 1613.0, 1611.0, 1609.0, 1610.0, 1611.0, 1611.0, 1611.0, 1613.0, 1612.0, 1611.0, 1611.0, 1610.0, 1610.0, 1609.0, 1610.0, 1610.0, 1612.0, 1613.0, 1615.0, 1615.0, 1615.0, 1615.0, 1616.0, 1615.0, 1616.0, 1617.0, 1614.0, 1613.0, 1612.0, 1613.0, 1612.0, 1613.0]
    },
    "slices": {}
  }
}