{
  "AcquisitionMatrixPE": 72,
  "AcquisitionNumber": 1,
  "AcquisitionTime": "17:30:26.662500",
  "BandwidthPerPixelPhaseEncode": 17.943,
  "BaseResolution": 96,
  "BodyPartExamined": "BRAIN",
  "CoilCombinationMethod": "Sum of Squares",
  "ConsistencyInfo": "N4_VE11C_LATEST_20160120",
  "ConversionSoftware": "dcm2niix",
  "ConversionSoftwareVersion": "v1.0.20211006",
  "DerivedVendorReportedEchoSpacing": 0.000552897,
  "DeviceSerialNumber": "166011",
  "EchoTime": 0.03,
  "EchoTrainLength": 58,
  "EffectiveEchoSpacing": 0.000580542,
  "FlipAngle": 62,
  "ImageOrientationPatientDICOM": [0.999999, -0.0010903, -0.00046969, 0.0010472, 0.996496, -0.083638],
  "ImageType": [
    "ORIGINAL",
    "PRIMARY",
    "M",
    "ND",
    "MOSAIC"
],
  "ImagingFrequency": 123.26,
  "InPlanePhaseEncodingDirectionDICOM": "COL",
  "InstitutionAddress": "West 130th Street 610,NY,NYC,US,10025",
  "InstitutionName": "MBBI",
  "MRAcquisitionType": "2D",
  "MagneticFieldStrength": 3,
  "Manufacturer": "Siemens",
  "ManufacturersModelName": "Prisma",
  "Modality": "MR",
  "MultibandAccelerationFactor": 3,
  "PartialFourier": 0.75,
  "PatientPosition": "HFS",
  "PercentPhaseFOV": 100,
  "PercentSampling": 75,
  "PhaseEncodingDirection": "j-",
  "PhaseEncodingSteps": 58,
  "PhaseOversampling": 0.05,
  "PhaseResolution": 0.75,
  "PixelBandwidth": 2265,
  "ProcedureStepDescription": "White^Word_recognition",
  "ProtocolName": "func_language_run2",
  "PulseSequenceDetails": "%SiemensSeq%\\ep2d_bold",
  "ReceiveCoilActiveElements": "HC1-7",
  "ReceiveCoilName": "HeadNeck_64",
  "ReconMatrixPE": 96,
  "RefLinesPE": 40,
  "RepetitionTime": 1.5,
  "SAR": 0.0432271,
  "ScanOptions": "PFP\\FS",
  "ScanningSequence": "EP",
  "SequenceName": "*epfid2d1_72",
  "SequenceVariant": "SK\\OSP",
  "SeriesDescription": "func_language_run2",
  "SeriesNumber": 12,
  "ShimSetting": [-1147, -1365, 694, 574, -63, 25, 91, -1],
  "SliceThickness": 2,
  "SliceTiming": [1.075, 0, 0.74, 0.0675, 0.8075, 0.1325, 0.8725, 0.2, 0.94, 0.2675, 1.0075, 0.4025, 1.1425, 0.47, 1.21, 0.5375, 1.2775, 0.605, 1.345, 0.6725, 1.4125, 0.335, 1.075, 0, 0.74, 0.0675, 0.8075, 0.1325, 0.8725, 0.2, 0.94, 0.2675, 1.0075, 0.4025, 1.1425, 0.47, 1.21, 0.5375, 1.2775, 0.605, 1.345, 0.6725, 1.4125, 0.335, 1.075, 0, 0.74, 0.0675, 0.8075, 0.1325, 0.8725, 0.2, 0.94, 0.2675, 1.0075, 0.4025, 1.1425, 0.47, 1.21, 0.5375, 1.2775, 0.605, 1.345, 0.6725, 1.4125, 0.335],
  "SoftwareVersions": "syngo MR E11",
  "SpacingBetweenSlices": 2,
  "StationName": "AWP166011",
  "TaskName": "langLoc",
  "TotalReadoutTime": 0.0551515,
  "TxRefAmp": 226.056,
  "dcmmeta_affine": [
    [-1.9999985694885254, 0.0020943947602063417, -0.0011184687027707696, 97.20674896240234],
    [0.002180602867156267, 1.992991328239441, -0.16727499663829803, -67.36184692382812],
    [-0.0009393792715854943, 0.16727608442306519, 1.9929922819137573, -66.641845703125],
    [0.0, 0.0, 0.0, 1.0]
],
  "dcmmeta_reorient_transform": [
    [0.0, -1.0, 0.0, 95.0],
    [1.0, 0.0, 0.0, 0.0],
    [0.0, 0.0, 1.0, 0.0],
    [0.0, 0.0, 0.0, 1.0]
],
  "dcmmeta_shape": [96, 96, 66, 239],
  "dcmmeta_slice_dim": 2,
  "dcmmeta_version": 0.6,
  "global": {
    "const": {
      "AcquisitionMatrix": [96, 0, 0, 72],
      "AngioFlag": "N",
      "BitsAllocated": 16,
      "BitsStored": 12,
      "BodyPartExamined": "BRAIN",
      "Columns": 864,
      "EchoNumbers": 1,
      "EchoTime": 30.0,
      "EchoTrainLength": 58,
      "FlipAngle": 62.0,
      "HighBit": 11,
      "ImageOrientationPatient": [0.99999929531699, -0.0010903014187, -0.0004696896304, 0.00104719743645, 0.99649565014243, -0.0836380453187],
      "ImagePositionPatient": [-866.20942205259, -886.4436372061, 13.844124194781],
      "ImageType": [
        "ORIGINAL",
        "PRIMARY",
        "M",
        "ND",
        "MOSAIC"
],
      "ImagedNucleus": "1H",
      "ImagingFrequency": 123.259546,
      "InPlanePhaseEncodingDirection": "COL",
      "MRAcquisitionType": "2D",
      "MagneticFieldStrength": 3.0,
      "Manufacturer": "SIEMENS",
      "ManufacturerModelName": "Prisma",
      "Modality": "MR",
      "NumberOfAverages": 1.0,
      "NumberOfPhaseEncodingSteps": 58,
      "PercentPhaseFieldOfView": 100.0,
      "PercentSampling": 75.0,
      "PerformedProcedureStepStartTime": "163044.643000",
      "PhotometricInterpretation": "MONOCHROME2",
      "PixelBandwidth": 2265.0,
      "PixelRepresentation": 0,
      "PixelSpacing": [2.0, 2.0],
      "ProtocolName": "func_language_run2",
      "RepetitionTime": 1500.0,
      "Rows": 864,
      "SAR": 0.04322710793384,
      "SamplesPerPixel": 1,
      "ScanOptions": [
        "PFP",
        "FS"
],
      "ScanningSequence": "EP",
      "SequenceName": "*epfid2d1_72",
      "SequenceVariant": [
        "SK",
        "OSP"
],
      "SeriesDescription": "func_language_run2",
      "SeriesNumber": 12,
      "SeriesTime": "173114.833000",
      "SliceLocation": -60.828723291955,
      "SliceThickness": 2.0,
      "SmallestImagePixelValue": 0,
      "SoftwareVersions": "syngo MR E11",
      "SpacingBetweenSlices": 2.000000046712,
      "SpecificCharacterSet": "ISO_IR 100",
      "StudyID": "3",
      "StudyTime": "163044.589000",
      "TransmitCoilName": "Body",
      "VariableFlipAngleFlag": "N",
      "WindowCenterWidthExplanation": "Algo1",
      "dBdt": 0.0},
    "slices": {}
  },
  "time": {
    "samples": {
      "AcquisitionNumber": [1, 2, 3, 4, 5, 6, 7, 8, 9, 10, 11, 12, 13, 14, 15, 16, 17, 18, 19, 20, 21, 22, 23, 24, 25, 26, 27, 28, 29, 30, 31, 32, 33, 34, 35, 36, 37, 38, 39, 40, 41, 42, 43, 44, 45, 46, 47, 48, 49, 50, 51, 52, 53, 54, 55, 56, 57, 58, 59, 60, 61, 62, 63, 64, 65, 66, 67, 68, 69, 70, 71, 72, 73, 74, 75, 76, 77, 78, 79, 80, 81, 82, 83, 84, 85, 86, 87, 88, 89, 90, 91, 92, 93, 94, 95, 96, 97, 98, 99, 100, 101, 102, 103, 104, 105, 106, 107, 108, 109, 110, 111, 112, 113, 114, 115, 116, 117, 118, 119, 120, 121, 122, 123, 124, 125, 126, 127, 128, 129, 130, 131, 132, 133, 134, 135, 136, 137, 138, 139, 140, 141, 142, 143, 144, 145, 146, 147, 148, 149, 150, 151, 152, 153, 154, 155, 156, 157, 158, 159, 160, 161, 162, 163, 164, 165, 166, 167, 168, 169, 170, 171, 172, 173, 174, 175, 176, 177, 178, 179, 180, 181, 182, 183, 184, 185, 186, 187, 188, 189, 190, 191, 192, 193, 194, 195, 196, 197, 198, 199, 200, 201, 202, 203, 204, 205, 206, 207, 208, 209, 210, 211, 212, 213, 214, 215, 216, 217, 218, 219, 220, 221, 222, 223, 224, 225, 226, 227, 228, 229, 230, 231, 232, 233, 234, 235, 236, 237, 238, 239],
      "AcquisitionTime": ["173026.662500", "173028.162500", "173029.662500", "173031.162500", "173032.662500", "173034.162500", "173035.662500", "173037.162500", "173038.662500", "173040.162500", "173041.662500", "173043.162500", "173044.662500", "173046.162500", "173047.662500", "173049.162500", "173050.662500", "173052.162500", "173053.662500", "173055.162500", "173056.662500", "173058.162500", "173059.662500", "173101.162500", "173102.662500", "173104.162500", "173105.662500", "173107.162500", "173108.662500", "173110.162500", "173111.662500", "173113.162500", "173114.662500", "173116.162500", "173117.662500", "173119.162500", "173120.662500", "173122.162500", "173123.662500", "173125.162500", "173126.662500", "173128.162500", "173129.662500", "173131.162500", "173132.662500", "173134.162500", "173135.662500", "173137.162500", "173138.662500", "173140.162500", "173141.662500", "173143.162500", "173144.662500", "173146.162500", "173147.662500", "173149.162500", "173150.662500", "173152.162500", "173153.662500", "173155.162500", "173156.662500", "173158.162500", "173159.662500", "173201.162500", "173202.662500", "173204.162500", "173205.662500", "173207.162500", "173208.662500", "173210.162500", "173211.662500", "173213.162500", "173214.662500", "173216.162500", "173217.662500", "173219.162500", "173220.662500", "173222.162500", "173223.662500", "173225.162500", "173226.662500", "173228.162500", "173229.662500", "173231.162500", "173232.662500", "173234.162500", "173235.662500", "173237.162500", "173238.662500", "173240.162500", "173241.662500", "173243.162500", "173244.662500", "173246.162500", "173247.662500", "173249.162500", "173250.662500", "173252.162500", "173253.662500", "173255.162500", "173256.662500", "173258.162500", "173259.662500", "173301.162500", "173302.662500", "173304.162500", "173305.662500", "173307.162500", "173308.662500", "173310.162500", "173311.662500", "173313.162500", "173314.662500", "173316.162500", "173317.662500", "173319.162500", "173320.662500", "173322.162500", "173323.662500", "173325.162500", "173326.662500", "173328.162500", "173329.662500", "173331.162500", "173332.662500", "173334.162500", "173335.662500", "173337.162500", "173338.662500", "173340.162500", "173341.662500", "173343.162500", "173344.662500", "173346.162500", "173347.662500", "173349.162500", "173350.662500", "173352.162500", "173353.662500", "173355.162500", "173356.662500", "173358.162500", "173359.662500", "173401.162500", "173402.662500", "173404.162500", "173405.662500", "173407.162500", "173408.662500", "173410.162500", "173411.662500", "173413.162500", "173414.662500", "173416.162500", "173417.662500", "173419.162500", "173420.662500", "173422.162500", "173423.662500", "173425.162500", "173426.662500", "173428.162500", "173429.662500", "173431.162500", "173432.662500", "173434.162500", "173435.662500", "173437.162500", "173438.662500", "173440.162500", "173441.662500", "173443.162500", "173444.662500", "173446.162500", "173447.662500", "173449.162500", "173450.662500", "173452.162500", "173453.662500", "173455.162500", "173456.662500", "173458.162500", "173459.662500", "173501.162500", "173502.662500", "173504.162500", "173505.662500", "173507.162500", "173508.662500", "173510.162500", "173511.662500", "173513.162500", "173514.662500", "173516.162500", "173517.662500", "173519.162500", "173520.662500", "173522.162500", "173523.662500", "173525.162500", "173526.662500", "173528.162500", "173529.662500", "173531.162500", "173532.662500", "173534.162500", "173535.662500", "173537.162500", "173538.662500", "173540.162500", "173541.662500", "173543.162500", "173544.662500", "173546.162500", "173547.662500", "173549.162500", "173550.662500", "173552.162500", "173553.662500", "173555.162500", "173556.662500", "173558.162500", "173559.662500", "173601.162500", "173602.662500", "173604.162500", "173605.662500", "173607.162500", "173608.662500", "173610.162500", "173611.662500", "173613.162500", "173614.662500", "173616.162500", "173617.662500", "173619.162500", "173620.662500", "173622.162500", "173623.662500"],
      "ContentTime": ["173114.837000", "173114.841000", "173114.850000", "173114.854000", "173114.857000", "173114.860000", "173114.863000", "173114.866000", "173114.868000", "173114.871000", "173114.874000", "173114.878000", "173114.881000", "173114.884000", "173114.887000", "173114.890000", "173114.893000", "173114.896000", "173114.905000", "173114.909000", "173114.911000", "173114.914000", "173114.918000", "173114.920000", "173114.923000", "173114.927000", "173114.930000", "173114.933000", "173114.936000", "173114.939000", "173114.942000", "173114.945000", "173154.832000", "173154.835000", "173154.838000", "173154.841000", "173154.844000", "173154.847000", "173154.850000", "173154.853000", "173154.856000", "173154.859000", "173154.862000", "173154.874000", "173154.877000", "173154.880000", "173154.883000", "173154.886000", "173154.889000", "173154.892000", "173154.895000", "173154.898000", "173154.901000", "173154.904000", "173154.907000", "173154.910000", "173154.913000", "173154.916000", "173234.833000", "173234.836000", "173234.839000", "173234.842000", "173234.864000", "173234.867000", "173234.870000", "173234.873000", "173234.876000", "173234.879000", "173234.882000", "173234.885000", "173234.888000", "173234.891000", "173234.894000", "173234.897000", "173234.900000", "173234.903000", "173234.906000", "173234.909000", "173234.912000", "173234.915000", "173234.918000", "173234.921000", "173234.924000", "173234.927000", "173234.930000", "173314.832000", "173314.835000", "173314.838000", "173314.841000", "173314.844000", "173314.847000", "173314.850000", "173314.853000", "173314.856000", "173314.859000", "173314.862000", "173314.865000", "173314.868000", "173314.871000", "173314.874000", "173314.877000", "173314.880000", "173314.883000", "173314.886000", "173314.888000", "173314.892000", "173314.895000", "173314.897000", "173314.900000", "173314.903000", "173314.906000", "173314.909000", "173354.832000", "173354.835000", "173354.838000", "173354.841000", "173354.844000", "173354.847000", "173354.859000", "173354.862000", "173354.865000", "173354.868000", "173354.871000", "173354.874000", "173354.877000", "173354.880000", "173354.883000", "173354.886000", "173354.889000", "173354.892000", "173354.895000", "173354.897000", "173354.900000", "173354.904000", "173354.906000", "173354.909000", "173354.912000", "173354.916000", "173434.832000", "173434.835000", "173434.838000", "173434.841000", "173434.844000", "173434.847000", "173434.850000", "173434.853000", "173434.856000", "173434.859000", "173434.862000", "173434.865000", "173434.868000", "173434.871000", "173434.875000", "173434.878000", "173434.881000", "173434.884000", "173434.887000", "173434.890000", "173434.893000", "173434.897000", "173434.899000", "173434.902000", "173434.905000", "173434.909000", "173434.911000", "173514.832000", "173514.835000", "173514.838000", "173514.841000", "173514.844000", "173514.847000", "173514.850000", "173514.853000", "173514.856000", "173514.859000", "173514.862000", "173514.865000", "173514.868000", "173514.871000", "173514.874000", "173514.877000", "173514.880000", "173514.883000", "173514.886000", "173514.889000", "173514.892000", "173514.901000", "173514.904000", "173514.907000", "173514.910000", "173514.913000", "173514.916000", "173554.832000", "173554.835000", "173554.838000", "173554.841000", "173554.844000", "173554.847000", "173554.850000", "173554.853000", "173554.856000", "173554.859000", "173554.862000", "173554.865000", "173554.868000", "173554.871000", "173554.874000", "173554.877000", "173554.880000", "173554.883000", "173554.886000", "173554.889000", "173554.892000", "173554.895000", "173554.898000", "173554.901000", "173554.904000", "173554.907000", "173625.051000", "173625.054000", "173625.058000", "173625.061000", "173625.064000", "173625.068000", "173625.071000", "173625.075000", "173625.078000", "173625.081000", "173625.085000", "173625.089000", "173625.092000", "173625.095000", "173625.098000", "173625.101000", "173625.104000", "173625.107000", "173625.129000", "173625.133000", "173625.136000"],
      "InstanceCreationTime": ["173114.837000", "173114.841000", "173114.850000", "173114.854000", "173114.857000", "173114.860000", "173114.863000", "173114.866000", "173114.868000", "173114.871000", "173114.874000", "173114.878000", "173114.881000", "173114.884000", "173114.887000", "173114.890000", "173114.893000", "173114.896000", "173114.905000", "173114.909000", "173114.911000", "173114.914000", "173114.918000", "173114.920000", "173114.923000", "173114.927000", "173114.930000", "173114.933000", "173114.936000", "173114.939000", "173114.942000", "173114.945000", "173154.832000", "173154.835000", "173154.838000", "173154.841000", "173154.844000", "173154.847000", "173154.850000", "173154.853000", "173154.856000", "173154.859000", "173154.862000", "173154.874000", "173154.877000", "173154.880000", "173154.883000", "173154.886000", "173154.889000", "173154.892000", "173154.895000", "173154.898000", "173154.901000", "173154.904000", "173154.907000", "173154.910000", "173154.913000", "173154.916000", "173234.833000", "173234.836000", "173234.839000", "173234.842000", "173234.864000", "173234.867000", "173234.870000", "173234.873000", "173234.876000", "173234.879000", "173234.882000", "173234.885000", "173234.888000", "173234.891000", "173234.894000", "173234.897000", "173234.900000", "173234.903000", "173234.906000", "173234.909000", "173234.912000", "173234.915000", "173234.918000", "173234.921000", "173234.924000", "173234.927000", "173234.930000", "173314.832000", "173314.835000", "173314.838000", "173314.841000", "173314.844000", "173314.847000", "173314.850000", "173314.853000", "173314.856000", "173314.859000", "173314.862000", "173314.865000", "173314.868000", "173314.871000", "173314.874000", "173314.877000", "173314.880000", "173314.883000", "173314.886000", "173314.888000", "173314.892000", "173314.895000", "173314.897000", "173314.900000", "173314.903000", "173314.906000", "173314.909000", "173354.832000", "173354.835000", "173354.838000", "173354.841000", "173354.844000", "173354.847000", "173354.859000", "173354.862000", "173354.865000", "173354.868000", "173354.871000", "173354.874000", "173354.877000", "173354.880000", "173354.883000", "173354.886000", "173354.889000", "173354.892000", "173354.895000", "173354.897000", "173354.900000", "173354.904000", "173354.906000", "173354.909000", "173354.912000", "173354.916000", "173434.832000", "173434.835000", "173434.838000", "173434.841000", "173434.844000", "173434.847000", "173434.850000", "173434.853000", "173434.856000", "173434.859000", "173434.862000", "173434.865000", "173434.868000", "173434.871000", "173434.875000", "173434.878000", "173434.881000", "173434.884000", "173434.887000", "173434.890000", "173434.893000", "173434.897000", "173434.899000", "173434.902000", "173434.905000", "173434.909000", "173434.911000", "173514.832000", "173514.835000", "173514.838000", "173514.841000", "173514.844000", "173514.847000", "173514.850000", "173514.853000", "173514.856000", "173514.859000", "173514.862000", "173514.865000", "173514.868000", "173514.871000", "173514.874000", "173514.877000", "173514.880000", "173514.883000", "173514.886000", "173514.889000", "173514.892000", "173514.901000", "173514.904000", "173514.907000", "173514.910000", "173514.913000", "173514.916000", "173554.832000", "173554.835000", "173554.838000", "173554.841000", "173554.844000", "173554.847000", "173554.850000", "173554.853000", "173554.856000", "173554.859000", "173554.862000", "173554.865000", "173554.868000", "173554.871000", "173554.874000", "173554.877000", "173554.880000", "173554.883000", "173554.886000", "173554.889000", "173554.892000", "173554.895000", "173554.898000", "173554.901000", "173554.904000", "173554.907000", "173625.051000", "173625.054000", "173625.058000", "173625.061000", "173625.064000", "173625.068000", "173625.071000", "173625.075000", "173625.078000", "173625.081000", "173625.085000", "173625.089000", "173625.092000", "173625.095000", "173625.098000", "173625.101000", "173625.104000", "173625.107000", "173625.129000", "173625.133000", "173625.136000"],
      "InstanceNumber": [1, 2, 3, 4, 5, 6, 7, 8, 9, 10, 11, 12, 13, 14, 15, 16, 17, 18, 19, 20, 21, 22, 23, 24, 25, 26, 27, 28, 29, 30, 31, 32, 33, 34, 35, 36, 37, 38, 39, 40, 41, 42, 43, 44, 45, 46, 47, 48, 49, 50, 51, 52, 53, 54, 55, 56, 57, 58, 59, 60, 61, 62, 63, 64, 65, 66, 67, 68, 69, 70, 71, 72, 73, 74, 75, 76, 77, 78, 79, 80, 81, 82, 83, 84, 85, 86, 87, 88, 89, 90, 91, 92, 93, 94, 95, 96, 97, 98, 99, 100, 101, 102, 103, 104, 105, 106, 107, 108, 109, 110, 111, 112, 113, 114, 115, 116, 117, 118, 119, 120, 121, 122, 123, 124, 125, 126, 127, 128, 129, 130, 131, 132, 133, 134, 135, 136, 137, 138, 139, 140, 141, 142, 143, 144, 145, 146, 147, 148, 149, 150, 151, 152, 153, 154, 155, 156, 157, 158, 159, 160, 161, 162, 163, 164, 165, 166, 167, 168, 169, 170, 171, 172, 173, 174, 175, 176, 177, 178, 179, 180, 181, 182, 183, 184, 185, 186, 187, 188, 189, 190, 191, 192, 193, 194, 195, 196, 197, 198, 199, 200, 201, 202, 203, 204, 205, 206, 207, 208, 209, 210, 211, 212, 213, 214, 215, 216, 217, 218, 219, 220, 221, 222, 223, 224, 225, 226, 227, 228, 229, 230, 231, 232, 233, 234, 235, 236, 237, 238, 239],
      "LargestImagePixelValue": [2613, 2527, 2507, 2492, 2498, 2491, 2514, 2519, 2501, 2505, 2502, 2517, 2508, 2510, 2503, 2512, 2485, 2502, 2490, 2515, 2512, 2507, 2488, 2494, 2496, 2514, 2515, 2521, 2508, 2495, 2510, 2504, 2500, 2519, 2508, 2499, 2496, 2509, 2511, 2518, 2506, 2512, 2498, 2514, 2501, 2504, 2518, 2507, 2499, 2515, 2501, 2509, 2486, 2504, 2506, 2499, 2498, 2500, 2488, 2486, 2507, 2467, 2489, 2486, 2497, 2496, 2536, 2501, 2476, 2489, 2512, 2506, 2520, 2494, 2512, 2513, 2505, 2493, 2496, 2508, 2510, 2495, 2497, 2498, 2509, 2499, 2515, 2483, 2497, 2484, 2478, 2510, 2472, 2489, 2495, 2481, 2501, 2450, 2497, 2455, 2475, 2453, 2457, 2445, 2446, 2496, 2497, 2480, 2465, 2466, 2511, 2479, 2450, 2465, 2495, 2496, 2472, 2489, 2486, 2488, 2488, 2468, 2502, 2482, 2483, 2465, 2478, 2487, 2490, 2504, 2454, 2448, 2461, 2438, 2470, 2459, 2473, 2454, 2484, 2464, 2471, 2465, 2470, 2454, 2457, 2455, 2457, 2461, 2476, 2445, 2467, 2466, 2475, 2462, 2458, 2451, 2440, 2481, 2440, 2479, 2456, 2483, 2466, 2463, 2459, 2488, 2477, 2475, 2490, 2504, 2510, 2505, 2512, 2501, 2502, 2482, 2483, 2470, 2445, 2456, 2460, 2456, 2448, 2452, 2454, 2439, 2464, 2455, 2444, 2428, 2443, 2462, 2446, 2460, 2466, 2444, 2456, 2423, 2453, 2461, 2452, 2459, 2438, 2447, 2473, 2448, 2444, 2455, 2437, 2452, 2488, 2466, 2449, 2445, 2444, 2452, 2447, 2452, 2441, 2450, 2442, 2463, 2448, 2443, 2429, 2448, 2451, 2450, 2440, 2452, 2414, 2395, 2386, 2412, 2398, 2409, 2429, 2433, 2438],
      "WindowCenter": [729.0, 726.0, 725.0, 723.0, 722.0, 721.0, 722.0, 722.0, 723.0, 723.0, 724.0, 726.0, 726.0, 726.0, 726.0, 726.0, 726.0, 726.0, 726.0, 726.0, 725.0, 725.0, 724.0, 724.0, 725.0, 725.0, 725.0, 724.0, 724.0, 724.0, 724.0, 723.0, 723.0, 724.0, 724.0, 725.0, 724.0, 724.0, 723.0, 723.0, 724.0, 724.0, 723.0, 723.0, 723.0, 723.0, 723.0, 725.0, 726.0, 725.0, 725.0, 724.0, 724.0, 723.0, 724.0, 724.0, 724.0, 723.0, 723.0, 723.0, 724.0, 723.0, 724.0, 723.0, 723.0, 724.0, 724.0, 723.0, 722.0, 723.0, 724.0, 723.0, 723.0, 723.0, 723.0, 723.0, 724.0, 724.0, 724.0, 723.0, 723.0, 723.0, 724.0, 724.0, 724.0, 724.0, 724.0, 724.0, 723.0, 723.0, 722.0, 722.0, 722.0, 722.0, 722.0, 722.0, 722.0, 723.0, 722.0, 722.0, 723.0, 722.0, 723.0, 721.0, 721.0, 722.0, 723.0, 723.0, 724.0, 723.0, 724.0, 723.0, 722.0, 722.0, 722.0, 722.0, 721.0, 721.0, 722.0, 722.0, 722.0, 722.0, 723.0, 723.0, 723.0, 723.0, 723.0, 722.0, 722.0, 722.0, 722.0, 723.0, 723.0, 723.0, 724.0, 723.0, 723.0, 722.0, 722.0, 722.0, 722.0, 723.0, 723.0, 722.0, 723.0, 724.0, 724.0, 724.0, 723.0, 722.0, 723.0, 724.0, 725.0, 724.0, 723.0, 722.0, 722.0, 722.0, 722.0, 722.0, 721.0, 721.0, 721.0, 722.0, 723.0, 724.0, 724.0, 724.0, 724.0, 723.0, 723.0, 723.0, 724.0, 723.0, 723.0, 722.0, 722.0, 722.0, 721.0, 721.0, 721.0, 721.0, 721.0, 722.0, 723.0, 723.0, 723.0, 724.0, 724.0, 723.0, 724.0, 724.0, 724.0, 724.0, 723.0, 722.0, 723.0, 722.0, 722.0, 722.0, 723.0, 723.0, 722.0, 723.0, 723.0, 722.0, 723.0, 722.0, 721.0, 722.0, 723.0, 722.0, 722.0, 723.0, 723.0, 724.0, 723.0, 723.0, 722.0, 723.0, 723.0, 722.0, 721.0, 720.0, 720.0, 720.0, 720.0, 721.0, 722.0, 723.0, 721.0, 723.0, 723.0, 723.0, 722.0, 721.0, 722.0, 723.0, 724.0],
      "WindowWidth": [1582.0, 1573.0, 1569.0, 1564.0, 1561.0, 1560.0, 1560.0, 1561.0, 1563.0, 1565.0, 1567.0, 1571.0, 1571.0, 1572.0, 1572.0, 1572.0, 1573.0, 1573.0, 1573.0, 1571.0, 1570.0, 1568.0, 1567.0, 1567.0, 1569.0, 1569.0, 1569.0, 1568.0, 1567.0, 1567.0, 1566.0, 1565.0, 1564.0, 1567.0, 1568.0, 1568.0, 1567.0, 1565.0, 1565.0, 1565.0, 1567.0, 1568.0, 1565.0, 1565.0, 1564.0, 1564.0, 1566.0, 1570.0, 1571.0, 1571.0, 1569.0, 1567.0, 1566.0, 1566.0, 1566.0, 1567.0, 1566.0, 1565.0, 1565.0, 1566.0, 1567.0, 1566.0, 1566.0, 1565.0, 1565.0, 1566.0, 1566.0, 1565.0, 1561.0, 1565.0, 1567.0, 1565.0, 1563.0, 1564.0, 1564.0, 1565.0, 1567.0, 1567.0, 1568.0, 1565.0, 1564.0, 1564.0, 1566.0, 1567.0, 1567.0, 1567.0, 1568.0, 1566.0, 1565.0, 1563.0, 1560.0, 1562.0, 1562.0, 1562.0, 1562.0, 1562.0, 1563.0, 1564.0, 1563.0, 1562.0, 1563.0, 1563.0, 1563.0, 1560.0, 1560.0, 1563.0, 1563.0, 1565.0, 1566.0, 1565.0, 1567.0, 1564.0, 1561.0, 1560.0, 1560.0, 1560.0, 1557.0, 1558.0, 1560.0, 1561.0, 1562.0, 1561.0, 1564.0, 1563.0, 1563.0, 1563.0, 1563.0, 1561.0, 1562.0, 1563.0, 1562.0, 1564.0, 1565.0, 1565.0, 1566.0, 1564.0, 1564.0, 1561.0, 1563.0, 1562.0, 1562.0, 1563.0, 1565.0, 1562.0, 1563.0, 1567.0, 1567.0, 1565.0, 1564.0, 1562.0, 1564.0, 1567.0, 1569.0, 1566.0, 1564.0, 1562.0, 1560.0, 1562.0, 1560.0, 1560.0, 1559.0, 1560.0, 1560.0, 1561.0, 1564.0, 1567.0, 1566.0, 1567.0, 1566.0, 1563.0, 1564.0, 1564.0, 1566.0, 1565.0, 1564.0, 1562.0, 1562.0, 1562.0, 1559.0, 1559.0, 1558.0, 1560.0, 1560.0, 1561.0, 1563.0, 1563.0, 1564.0, 1565.0, 1566.0, 1565.0, 1566.0, 1568.0, 1567.0, 1567.0, 1564.0, 1562.0, 1563.0, 1560.0, 1560.0, 1562.0, 1564.0, 1563.0, 1562.0, 1563.0, 1564.0, 1562.0, 1563.0, 1560.0, 1559.0, 1562.0, 1563.0, 1562.0, 1560.0, 1563.0, 1565.0, 1567.0, 1565.0, 1563.0, 1563.0, 1564.0, 1564.0, 1561.0, 1558.0, 1556.0, 1557.0, 1557.0, 1557.0, 1559.0, 1561.0, 1564.0, 1560.0, 1563.0, 1565.0, 1563.0, 1562.0, 1560.0, 1561.0, 1565.0, 1567.0]
    },
    "slices": {}
  }
}