{
  "AcquisitionMatrixPE": 72,
  "AcquisitionNumber": 1,
  "AcquisitionTime": "17:14:24.220000",
  "BandwidthPerPixelPhaseEncode": 17.943,
  "BaseResolution": 96,
  "BodyPartExamined": "BRAIN",
  "CoilCombinationMethod": "Sum of Squares",
  "ConsistencyInfo": "N4_VE11C_LATEST_20160120",
  "ConversionSoftware": "dcm2niix",
  "ConversionSoftwareVersion": "v1.0.20211006",
  "DerivedVendorReportedEchoSpacing": 0.000552897,
  "DeviceSerialNumber": "166011",
  "EchoTime": 0.03,
  "EchoTrainLength": 58,
  "EffectiveEchoSpacing": 0.000580542,
  "FlipAngle": 62,
  "ImageOrientationPatientDICOM": [0.999999, -0.0010903, -0.00046969, 0.0010472, 0.996496, -0.083638],
  "ImageType": [
    "ORIGINAL",
    "PRIMARY",
    "M",
    "ND",
    "MOSAIC"
],
  "ImagingFrequency": 123.26,
  "InPlanePhaseEncodingDirectionDICOM": "COL",
  "InstitutionAddress": "West 130th Street 610,NY,NYC,US,10025",
  "InstitutionName": "MBBI",
  "MRAcquisitionType": "2D",
  "MagneticFieldStrength": 3,
  "Manufacturer": "Siemens",
  "ManufacturersModelName": "Prisma",
  "Modality": "MR",
  "MultibandAccelerationFactor": 3,
  "PartialFourier": 0.75,
  "PatientPosition": "HFS",
  "PercentPhaseFOV": 100,
  "PercentSampling": 75,
  "PhaseEncodingDirection": "j-",
  "PhaseEncodingSteps": 58,
  "PhaseOversampling": 0.05,
  "PhaseResolution": 0.75,
  "PixelBandwidth": 2265,
  "ProcedureStepDescription": "White^Word_recognition",
  "ProtocolName": "func_vwfate_run15",
  "PulseSequenceDetails": "%SiemensSeq%\\ep2d_bold",
  "ReceiveCoilActiveElements": "HC1-7",
  "ReceiveCoilName": "HeadNeck_64",
  "ReconMatrixPE": 96,
  "RefLinesPE": 40,
  "RepetitionTime": 1.5,
  "SAR": 0.0430456,
  "ScanOptions": "PFP\\FS",
  "ScanningSequence": "EP",
  "SequenceName": "*epfid2d1_72",
  "SequenceVariant": "SK\\OSP",
  "SeriesDescription": "func_vwfate_run15",
  "SeriesNumber": 10,
  "ShimSetting": [-1147, -1365, 694, 574, -63, 25, 91, -1],
  "SliceThickness": 2,
  "SliceTiming": [1.0775, 0, 0.74, 0.0675, 0.8075, 0.135, 0.875, 0.2025, 0.9425, 0.27, 1.01, 0.405, 1.145, 0.47, 1.21, 0.5375, 1.2775, 0.605, 1.345, 0.6725, 1.4125, 0.3375, 1.0775, 0, 0.74, 0.0675, 0.8075, 0.135, 0.875, 0.2025, 0.9425, 0.27, 1.01, 0.405, 1.145, 0.47, 1.21, 0.5375, 1.2775, 0.605, 1.345, 0.6725, 1.4125, 0.3375, 1.0775, 0, 0.74, 0.0675, 0.8075, 0.135, 0.875, 0.2025, 0.9425, 0.27, 1.01, 0.405, 1.145, 0.47, 1.21, 0.5375, 1.2775, 0.605, 1.345, 0.6725, 1.4125, 0.3375],
  "SoftwareVersions": "syngo MR E11",
  "SpacingBetweenSlices": 2,
  "StationName": "AWP166011",
  "TaskName": "vwfate",
  "TotalReadoutTime": 0.0551515,
  "TxRefAmp": 226.056,
  "dcmmeta_affine": [
    [-1.9999985694885254, 0.0020943947602063417, -0.0011184687027707696, 97.20674896240234],
    [0.002180602867156267, 1.992991328239441, -0.16727499663829803, -67.36184692382812],
    [-0.0009393792715854943, 0.16727608442306519, 1.9929922819137573, -66.641845703125],
    [0.0, 0.0, 0.0, 1.0]
],
  "dcmmeta_reorient_transform": [
    [0.0, -1.0, 0.0, 95.0],
    [1.0, 0.0, 0.0, 0.0],
    [0.0, 0.0, 1.0, 0.0],
    [0.0, 0.0, 0.0, 1.0]
],
  "dcmmeta_shape": [96, 96, 66, 164],
  "dcmmeta_slice_dim": 2,
  "dcmmeta_version": 0.6,
  "global": {
    "const": {
      "AcquisitionMatrix": [96, 0, 0, 72],
      "AngioFlag": "N",
      "BitsAllocated": 16,
      "BitsStored": 12,
      "BodyPartExamined": "BRAIN",
      "Columns": 864,
      "EchoNumbers": 1,
      "EchoTime": 30.0,
      "EchoTrainLength": 58,
      "FlipAngle": 62.0,
      "HighBit": 11,
      "ImageOrientationPatient": [0.99999929531699, -0.0010903014187, -0.0004696896304, 0.00104719743645, 0.99649565014243, -0.0836380453187],
      "ImagePositionPatient": [-866.20942205259, -886.4436372061, 13.844124194781],
      "ImageType": [
        "ORIGINAL",
        "PRIMARY",
        "M",
        "ND",
        "MOSAIC"
],
      "ImagedNucleus": "1H",
      "ImagingFrequency": 123.259541,
      "InPlanePhaseEncodingDirection": "COL",
      "MRAcquisitionType": "2D",
      "MagneticFieldStrength": 3.0,
      "Manufacturer": "SIEMENS",
      "ManufacturerModelName": "Prisma",
      "Modality": "MR",
      "NumberOfAverages": 1.0,
      "NumberOfPhaseEncodingSteps": 58,
      "PercentPhaseFieldOfView": 100.0,
      "PercentSampling": 75.0,
      "PerformedProcedureStepStartTime": "163044.643000",
      "PhotometricInterpretation": "MONOCHROME2",
      "PixelBandwidth": 2265.0,
      "PixelRepresentation": 0,
      "PixelSpacing": [2.0, 2.0],
      "ProtocolName": "func_vwfate_run15",
      "RepetitionTime": 1500.0,
      "Rows": 864,
      "SAR": 0.04304558183442,
      "SamplesPerPixel": 1,
      "ScanOptions": [
        "PFP",
        "FS"
],
      "ScanningSequence": "EP",
      "SequenceName": "*epfid2d1_72",
      "SequenceVariant": [
        "SK",
        "OSP"
],
      "SeriesDescription": "func_vwfate_run15",
      "SeriesNumber": 10,
      "SeriesTime": "171503.098000",
      "SliceLocation": -60.828723291955,
      "SliceThickness": 2.0,
      "SmallestImagePixelValue": 0,
      "SoftwareVersions": "syngo MR E11",
      "SpacingBetweenSlices": 2.000000046712,
      "SpecificCharacterSet": "ISO_IR 100",
      "StudyID": "3",
      "StudyTime": "163044.589000",
      "TransmitCoilName": "Body",
      "VariableFlipAngleFlag": "N",
      "WindowCenterWidthExplanation": "Algo1",
      "dBdt": 0.0},
    "slices": {}
  },
  "time": {
    "samples": {
      "AcquisitionNumber": [1, 2, 3, 4, 5, 6, 7, 8, 9, 10, 11, 12, 13, 14, 15, 16, 17, 18, 19, 20, 21, 22, 23, 24, 25, 26, 27, 28, 29, 30, 31, 32, 33, 34, 35, 36, 37, 38, 39, 40, 41, 42, 43, 44, 45, 46, 47, 48, 49, 50, 51, 52, 53, 54, 55, 56, 57, 58, 59, 60, 61, 62, 63, 64, 65, 66, 67, 68, 69, 70, 71, 72, 73, 74, 75, 76, 77, 78, 79, 80, 81, 82, 83, 84, 85, 86, 87, 88, 89, 90, 91, 92, 93, 94, 95, 96, 97, 98, 99, 100, 101, 102, 103, 104, 105, 106, 107, 108, 109, 110, 111, 112, 113, 114, 115, 116, 117, 118, 119, 120, 121, 122, 123, 124, 125, 126, 127, 128, 129, 130, 131, 132, 133, 134, 135, 136, 137, 138, 139, 140, 141, 142, 143, 144, 145, 146, 147, 148, 149, 150, 151, 152, 153, 154, 155, 156, 157, 158, 159, 160, 161, 162, 163, 164],
      "AcquisitionTime": ["171424.220000", "171425.720000", "171427.220000", "171428.720000", "171430.220000", "171431.720000", "171433.220000", "171434.720000", "171436.220000", "171437.720000", "171439.220000", "171440.720000", "171442.220000", "171443.720000", "171445.220000", "171446.720000", "171448.220000", "171449.720000", "171451.220000", "171452.720000", "171454.220000", "171455.720000", "171457.220000", "171458.720000", "171500.220000", "171501.720000", "171503.220000", "171504.720000", "171506.220000", "171507.720000", "171509.220000", "171510.720000", "171512.220000", "171513.720000", "171515.220000", "171516.720000", "171518.220000", "171519.720000", "171521.220000", "171522.720000", "171524.220000", "171525.720000", "171527.220000", "171528.720000", "171530.220000", "171531.720000", "171533.220000", "171534.720000", "171536.220000", "171537.720000", "171539.220000", "171540.720000", "171542.220000", "171543.720000", "171545.220000", "171546.720000", "171548.220000", "171549.720000", "171551.220000", "171552.720000", "171554.220000", "171555.720000", "171557.220000", "171558.720000", "171600.220000", "171601.720000", "171603.220000", "171604.720000", "171606.220000", "171607.720000", "171609.220000", "171610.720000", "171612.220000", "171613.720000", "171615.220000", "171616.720000", "171618.220000", "171619.720000", "171621.220000", "171622.720000", "171624.220000", "171625.720000", "171627.220000", "171628.720000", "171630.220000", "171631.720000", "171633.220000", "171634.720000", "171636.220000", "171637.720000", "171639.220000", "171640.720000", "171642.220000", "171643.720000", "171645.220000", "171646.720000", "171648.220000", "171649.720000", "171651.220000", "171652.720000", "171654.220000", "171655.720000", "171657.220000", "171658.720000", "171700.220000", "171701.720000", "171703.220000", "171704.720000", "171706.220000", "171707.720000", "171709.220000", "171710.720000", "171712.220000", "171713.720000", "171715.220000", "171716.720000", "171718.220000", "171719.720000", "171721.220000", "171722.720000", "171724.220000", "171725.720000", "171727.220000", "171728.720000", "171730.220000", "171731.720000", "171733.220000", "171734.720000", "171736.220000", "171737.720000", "171739.220000", "171740.720000", "171742.220000", "171743.720000", "171745.220000", "171746.720000", "171748.220000", "171749.720000", "171751.220000", "171752.720000", "171754.220000", "171755.720000", "171757.220000", "171758.720000", "171800.220000", "171801.720000", "171803.220000", "171804.720000", "171806.220000", "171807.720000", "171809.220000", "171810.720000", "171812.220000", "171813.720000", "171815.220000", "171816.720000", "171818.220000", "171819.720000", "171821.220000", "171822.720000", "171824.220000", "171825.720000", "171827.220000", "171828.720000"],
      "ContentTime": ["171503.102000", "171503.105000", "171503.108000", "171503.112000", "171503.115000", "171503.127000", "171503.130000", "171503.133000", "171503.136000", "171503.139000", "171503.142000", "171503.150000", "171503.153000", "171503.156000", "171503.159000", "171503.162000", "171503.165000", "171503.168000", "171503.171000", "171503.174000", "171503.177000", "171503.180000", "171503.183000", "171503.186000", "171503.189000", "171503.192000", "171543.098000", "171543.101000", "171543.104000", "171543.107000", "171543.110000", "171543.113000", "171543.116000", "171543.119000", "171543.122000", "171543.125000", "171543.128000", "171543.131000", "171543.134000", "171543.137000", "171543.140000", "171543.143000", "171543.146000", "171543.149000", "171543.151000", "171543.154000", "171543.157000", "171543.160000", "171543.163000", "171543.166000", "171543.169000", "171543.172000", "171623.098000", "171623.112000", "171623.115000", "171623.118000", "171623.121000", "171623.124000", "171623.127000", "171623.130000", "171623.133000", "171623.136000", "171623.139000", "171623.142000", "171623.145000", "171623.148000", "171623.150000", "171623.153000", "171623.156000", "171623.159000", "171623.162000", "171623.165000", "171623.168000", "171623.187000", "171623.190000", "171623.193000", "171623.204000", "171623.207000", "171623.210000", "171703.097000", "171703.100000", "171703.103000", "171703.107000", "171703.110000", "171703.113000", "171703.116000", "171703.119000", "171703.122000", "171703.124000", "171703.127000", "171703.130000", "171703.133000", "171703.136000", "171703.139000", "171703.142000", "171703.145000", "171703.148000", "171703.151000", "171703.154000", "171703.157000", "171703.160000", "171703.168000", "171703.171000", "171703.174000", "171703.177000", "171703.180000", "171743.098000", "171743.101000", "171743.104000", "171743.107000", "171743.110000", "171743.113000", "171743.116000", "171743.119000", "171743.122000", "171743.125000", "171743.128000", "171743.131000", "171743.134000", "171743.137000", "171743.140000", "171743.152000", "171743.155000", "171743.158000", "171743.161000", "171743.164000", "171743.167000", "171743.170000", "171743.173000", "171743.176000", "171743.179000", "171743.182000", "171823.098000", "171823.101000", "171823.104000", "171823.107000", "171823.110000", "171823.113000", "171823.116000", "171823.119000", "171823.122000", "171823.125000", "171823.128000", "171823.131000", "171823.134000", "171823.137000", "171823.140000", "171823.143000", "171823.146000", "171823.149000", "171823.152000", "171823.155000", "171823.158000", "171823.161000", "171823.164000", "171823.167000", "171823.170000", "171823.173000", "171823.176000", "171829.784000", "171829.787000", "171829.790000", "171829.794000", "171829.797000"],
      "InstanceCreationTime": ["171503.102000", "171503.105000", "171503.108000", "171503.112000", "171503.115000", "171503.127000", "171503.130000", "171503.133000", "171503.136000", "171503.139000", "171503.142000", "171503.150000", "171503.153000", "171503.156000", "171503.159000", "171503.162000", "171503.165000", "171503.168000", "171503.171000", "171503.174000", "171503.177000", "171503.180000", "171503.183000", "171503.186000", "171503.189000", "171503.192000", "171543.098000", "171543.101000", "171543.104000", "171543.107000", "171543.110000", "171543.113000", "171543.116000", "171543.119000", "171543.122000", "171543.125000", "171543.128000", "171543.131000", "171543.134000", "171543.137000", "171543.140000", "171543.143000", "171543.146000", "171543.149000", "171543.151000", "171543.154000", "171543.157000", "171543.160000", "171543.163000", "171543.166000", "171543.169000", "171543.172000", "171623.098000", "171623.112000", "171623.115000", "171623.118000", "171623.121000", "171623.124000", "171623.127000", "171623.130000", "171623.133000", "171623.136000", "171623.139000", "171623.142000", "171623.145000", "171623.148000", "171623.150000", "171623.153000", "171623.156000", "171623.159000", "171623.162000", "171623.165000", "171623.168000", "171623.187000", "171623.190000", "171623.193000", "171623.204000", "171623.207000", "171623.210000", "171703.097000", "171703.100000", "171703.103000", "171703.107000", "171703.110000", "171703.113000", "171703.116000", "171703.119000", "171703.122000", "171703.124000", "171703.127000", "171703.130000", "171703.133000", "171703.136000", "171703.139000", "171703.142000", "171703.145000", "171703.148000", "171703.151000", "171703.154000", "171703.157000", "171703.160000", "171703.168000", "171703.171000", "171703.174000", "171703.177000", "171703.180000", "171743.098000", "171743.101000", "171743.104000", "171743.107000", "171743.110000", "171743.113000", "171743.116000", "171743.119000", "171743.122000", "171743.125000", "171743.128000", "171743.131000", "171743.134000", "171743.137000", "171743.140000", "171743.152000", "171743.155000", "171743.158000", "171743.161000", "171743.164000", "171743.167000", "171743.170000", "171743.173000", "171743.176000", "171743.179000", "171743.182000", "171823.098000", "171823.101000", "171823.104000", "171823.107000", "171823.110000", "171823.113000", "171823.116000", "171823.119000", "171823.122000", "171823.125000", "171823.128000", "171823.131000", "171823.134000", "171823.137000", "171823.140000", "171823.143000", "171823.146000", "171823.149000", "171823.152000", "171823.155000", "171823.158000", "171823.161000", "171823.164000", "171823.167000", "171823.170000", "171823.173000", "171823.176000", "171829.784000", "171829.787000", "171829.790000", "171829.794000", "171829.797000"],
      "InstanceNumber": [1, 2, 3, 4, 5, 6, 7, 8, 9, 10, 11, 12, 13, 14, 15, 16, 17, 18, 19, 20, 21, 22, 23, 24, 25, 26, 27, 28, 29, 30, 31, 32, 33, 34, 35, 36, 37, 38, 39, 40, 41, 42, 43, 44, 45, 46, 47, 48, 49, 50, 51, 52, 53, 54, 55, 56, 57, 58, 59, 60, 61, 62, 63, 64, 65, 66, 67, 68, 69, 70, 71, 72, 73, 74, 75, 76, 77, 78, 79, 80, 81, 82, 83, 84, 85, 86, 87, 88, 89, 90, 91, 92, 93, 94, 95, 96, 97, 98, 99, 100, 101, 102, 103, 104, 105, 106, 107, 108, 109, 110, 111, 112, 113, 114, 115, 116, 117, 118, 119, 120, 121, 122, 123, 124, 125, 126, 127, 128, 129, 130, 131, 132, 133, 134, 135, 136, 137, 138, 139, 140, 141, 142, 143, 144, 145, 146, 147, 148, 149, 150, 151, 152, 153, 154, 155, 156, 157, 158, 159, 160, 161, 162, 163, 164],
      "LargestImagePixelValue": [2805, 2743, 2721, 2618, 2668, 2681, 2650, 2686, 2616, 2669, 2690, 2650, 2671, 2606, 2618, 2570, 2635, 2599, 2629, 2602, 2636, 2591, 2682, 2626, 2649, 2608, 2656, 2632, 2620, 2661, 2649, 2664, 2651, 2678, 2625, 2676, 2647, 2682, 2635, 2645, 2622, 2677, 2654, 2663, 2649, 2650, 2631, 2711, 2662, 2662, 2640, 2662, 2618, 2671, 2601, 2674, 2613, 2656, 2591, 2642, 2608, 2668, 2682, 2614, 2780, 2726, 2747, 2729, 2720, 2724, 2693, 2700, 2700, 2649, 2678, 2624, 2636, 2646, 2654, 2636, 2635, 2673, 2660, 2642, 2577, 2632, 2621, 2640, 2632, 2559, 2532, 2684, 2732, 2645, 2551, 2603, 2642, 2654, 2638, 2648, 2621, 2675, 2665, 2635, 2660, 2687, 2743, 2649, 2694, 2628, 2721, 2674, 2682, 2554, 2681, 2685, 2530, 2606, 2536, 2565, 2668, 2669, 2710, 2702, 2610, 2694, 2650, 2719, 2684, 2635, 2642, 2604, 2599, 2614, 2622, 2569, 2739, 2664, 2659, 2643, 2574, 2636, 2603, 2649, 2652, 2635, 2615, 2587, 2578, 2530, 2650, 2548, 2617, 2609, 2530, 2599, 2567, 2602, 2615, 2565, 2726, 2685, 2697, 2701],
      "WindowCenter": [733.0, 731.0, 730.0, 730.0, 729.0, 729.0, 730.0, 730.0, 729.0, 730.0, 730.0, 730.0, 730.0, 730.0, 730.0, 730.0, 730.0, 730.0, 731.0, 730.0, 731.0, 730.0, 731.0, 732.0, 733.0, 732.0, 732.0, 731.0, 731.0, 731.0, 731.0, 731.0, 731.0, 731.0, 730.0, 730.0, 730.0, 730.0, 729.0, 730.0, 730.0, 731.0, 731.0, 731.0, 731.0, 731.0, 731.0, 733.0, 732.0, 732.0, 731.0, 731.0, 731.0, 731.0, 731.0, 732.0, 732.0, 733.0, 732.0, 732.0, 732.0, 732.0, 731.0, 731.0, 733.0, 733.0, 734.0, 733.0, 732.0, 731.0, 730.0, 730.0, 729.0, 729.0, 729.0, 730.0, 731.0, 731.0, 732.0, 732.0, 731.0, 732.0, 731.0, 731.0, 731.0, 731.0, 732.0, 733.0, 734.0, 733.0, 731.0, 732.0, 733.0, 731.0, 731.0, 731.0, 731.0, 731.0, 732.0, 731.0, 731.0, 732.0, 732.0, 730.0, 731.0, 732.0, 733.0, 731.0, 730.0, 730.0, 731.0, 730.0, 729.0, 728.0, 729.0, 729.0, 729.0, 729.0, 728.0, 729.0, 730.0, 730.0, 731.0, 732.0, 732.0, 733.0, 732.0, 733.0, 733.0, 733.0, 732.0, 732.0, 732.0, 732.0, 733.0, 732.0, 733.0, 733.0, 733.0, 732.0, 731.0, 732.0, 732.0, 732.0, 731.0, 729.0, 728.0, 728.0, 729.0, 727.0, 729.0, 727.0, 727.0, 727.0, 728.0, 728.0, 728.0, 729.0, 728.0, 729.0, 731.0, 731.0, 731.0, 731.0],
      "WindowWidth": [1591.0, 1586.0, 1583.0, 1582.0, 1581.0, 1581.0, 1583.0, 1583.0, 1581.0, 1584.0, 1584.0, 1584.0, 1584.0, 1582.0, 1582.0, 1582.0, 1584.0, 1584.0, 1585.0, 1584.0, 1585.0, 1583.0, 1586.0, 1588.0, 1591.0, 1589.0, 1589.0, 1587.0, 1586.0, 1586.0, 1586.0, 1586.0, 1585.0, 1584.0, 1583.0, 1584.0, 1583.0, 1584.0, 1582.0, 1582.0, 1582.0, 1585.0, 1586.0, 1587.0, 1586.0, 1586.0, 1586.0, 1590.0, 1587.0, 1587.0, 1584.0, 1585.0, 1585.0, 1587.0, 1587.0, 1590.0, 1589.0, 1591.0, 1589.0, 1589.0, 1587.0, 1587.0, 1586.0, 1585.0, 1591.0, 1592.0, 1593.0, 1591.0, 1588.0, 1585.0, 1582.0, 1582.0, 1581.0, 1580.0, 1581.0, 1582.0, 1585.0, 1587.0, 1587.0, 1589.0, 1587.0, 1587.0, 1586.0, 1587.0, 1586.0, 1587.0, 1588.0, 1592.0, 1594.0, 1591.0, 1586.0, 1588.0, 1592.0, 1587.0, 1587.0, 1585.0, 1585.0, 1585.0, 1588.0, 1585.0, 1586.0, 1587.0, 1587.0, 1584.0, 1586.0, 1589.0, 1591.0, 1586.0, 1584.0, 1582.0, 1584.0, 1583.0, 1580.0, 1577.0, 1581.0, 1581.0, 1579.0, 1579.0, 1578.0, 1580.0, 1583.0, 1583.0, 1585.0, 1587.0, 1588.0, 1590.0, 1589.0, 1592.0, 1592.0, 1591.0, 1589.0, 1588.0, 1588.0, 1589.0, 1590.0, 1588.0, 1592.0, 1590.0, 1590.0, 1587.0, 1586.0, 1589.0, 1589.0, 1588.0, 1584.0, 1581.0, 1579.0, 1578.0, 1579.0, 1576.0, 1579.0, 1576.0, 1574.0, 1575.0, 1577.0, 1578.0, 1577.0, 1579.0, 1579.0, 1580.0, 1586.0, 1585.0, 1585.0, 1584.0]
    },
    "slices": {}
  }
}