{
  "AcquisitionMatrixPE": 72,
  "AcquisitionNumber": 1,
  "AcquisitionTime": "17:23:5.745000",
  "BandwidthPerPixelPhaseEncode": 17.943,
  "BaseResolution": 96,
  "BodyPartExamined": "BRAIN",
  "CoilCombinationMethod": "Sum of Squares",
  "ConsistencyInfo": "N4_VE11C_LATEST_20160120",
  "ConversionSoftware": "dcm2niix",
  "ConversionSoftwareVersion": "v1.0.20211006",
  "DerivedVendorReportedEchoSpacing": 0.000552897,
  "DeviceSerialNumber": "166011",
  "EchoTime": 0.03,
  "EchoTrainLength": 58,
  "EffectiveEchoSpacing": 0.000580542,
  "FlipAngle": 62,
  "ImageOrientationPatientDICOM": [0.999999, -0.0010903, -0.00046969, 0.0010472, 0.996496, -0.083638],
  "ImageType": [
    "ORIGINAL",
    "PRIMARY",
    "M",
    "ND",
    "MOSAIC"
],
  "ImagingFrequency": 123.26,
  "InPlanePhaseEncodingDirectionDICOM": "COL",
  "InstitutionAddress": "West 130th Street 610,NY,NYC,US,10025",
  "InstitutionName": "MBBI",
  "MRAcquisitionType": "2D",
  "MagneticFieldStrength": 3,
  "Manufacturer": "Siemens",
  "ManufacturersModelName": "Prisma",
  "Modality": "MR",
  "MultibandAccelerationFactor": 3,
  "PartialFourier": 0.75,
  "PatientPosition": "HFS",
  "PercentPhaseFOV": 100,
  "PercentSampling": 75,
  "PhaseEncodingDirection": "j-",
  "PhaseEncodingSteps": 58,
  "PhaseOversampling": 0.05,
  "PhaseResolution": 0.75,
  "PixelBandwidth": 2265,
  "ProcedureStepDescription": "White^Word_recognition",
  "ProtocolName": "func_language_run1",
  "PulseSequenceDetails": "%SiemensSeq%\\ep2d_bold",
  "ReceiveCoilActiveElements": "HC1-7",
  "ReceiveCoilName": "HeadNeck_64",
  "ReconMatrixPE": 96,
  "RefLinesPE": 40,
  "RepetitionTime": 1.5,
  "SAR": 0.0432271,
  "ScanOptions": "PFP\\FS",
  "ScanningSequence": "EP",
  "SequenceName": "*epfid2d1_72",
  "SequenceVariant": "SK\\OSP",
  "SeriesDescription": "func_language_run1",
  "SeriesNumber": 11,
  "ShimSetting": [-1147, -1365, 694, 574, -63, 25, 91, -1],
  "SliceThickness": 2,
  "SliceTiming": [1.0775, 0, 0.74, 0.0675, 0.8075, 0.135, 0.875, 0.2025, 0.9425, 0.27, 1.01, 0.405, 1.145, 0.4725, 1.2125, 0.5375, 1.2775, 0.605, 1.345, 0.6725, 1.4125, 0.3375, 1.0775, 0, 0.74, 0.0675, 0.8075, 0.135, 0.875, 0.2025, 0.9425, 0.27, 1.01, 0.405, 1.145, 0.4725, 1.2125, 0.5375, 1.2775, 0.605, 1.345, 0.6725, 1.4125, 0.3375, 1.0775, 0, 0.74, 0.0675, 0.8075, 0.135, 0.875, 0.2025, 0.9425, 0.27, 1.01, 0.405, 1.145, 0.4725, 1.2125, 0.5375, 1.2775, 0.605, 1.345, 0.6725, 1.4125, 0.3375],
  "SoftwareVersions": "syngo MR E11",
  "SpacingBetweenSlices": 2,
  "StationName": "AWP166011",
  "TaskName": "langLoc",
  "TotalReadoutTime": 0.0551515,
  "TxRefAmp": 226.056,
  "dcmmeta_affine": [
    [-1.9999985694885254, 0.0020943947602063417, -0.0011184687027707696, 97.20674896240234],
    [0.002180602867156267, 1.992991328239441, -0.16727499663829803, -67.36184692382812],
    [-0.0009393792715854943, 0.16727608442306519, 1.9929922819137573, -66.641845703125],
    [0.0, 0.0, 0.0, 1.0]
],
  "dcmmeta_reorient_transform": [
    [0.0, -1.0, 0.0, 95.0],
    [1.0, 0.0, 0.0, 0.0],
    [0.0, 0.0, 1.0, 0.0],
    [0.0, 0.0, 0.0, 1.0]
],
  "dcmmeta_shape": [96, 96, 66, 239],
  "dcmmeta_slice_dim": 2,
  "dcmmeta_version": 0.6,
  "global": {
    "const": {
      "AcquisitionMatrix": [96, 0, 0, 72],
      "AngioFlag": "N",
      "BitsAllocated": 16,
      "BitsStored": 12,
      "BodyPartExamined": "BRAIN",
      "Columns": 864,
      "EchoNumbers": 1,
      "EchoTime": 30.0,
      "EchoTrainLength": 58,
      "FlipAngle": 62.0,
      "HighBit": 11,
      "ImageOrientationPatient": [0.99999929531699, -0.0010903014187, -0.0004696896304, 0.00104719743645, 0.99649565014243, -0.0836380453187],
      "ImagePositionPatient": [-866.20942205259, -886.4436372061, 13.844124194781],
      "ImageType": [
        "ORIGINAL",
        "PRIMARY",
        "M",
        "ND",
        "MOSAIC"
],
      "ImagedNucleus": "1H",
      "ImagingFrequency": 123.259543,
      "InPlanePhaseEncodingDirection": "COL",
      "MRAcquisitionType": "2D",
      "MagneticFieldStrength": 3.0,
      "Manufacturer": "SIEMENS",
      "ManufacturerModelName": "Prisma",
      "Modality": "MR",
      "NumberOfAverages": 1.0,
      "NumberOfPhaseEncodingSteps": 58,
      "PercentPhaseFieldOfView": 100.0,
      "PercentSampling": 75.0,
      "PerformedProcedureStepStartTime": "163044.643000",
      "PhotometricInterpretation": "MONOCHROME2",
      "PixelBandwidth": 2265.0,
      "PixelRepresentation": 0,
      "PixelSpacing": [2.0, 2.0],
      "ProtocolName": "func_language_run1",
      "RepetitionTime": 1500.0,
      "Rows": 864,
      "SAR": 0.04322710793384,
      "SamplesPerPixel": 1,
      "ScanOptions": [
        "PFP",
        "FS"
],
      "ScanningSequence": "EP",
      "SequenceName": "*epfid2d1_72",
      "SequenceVariant": [
        "SK",
        "OSP"
],
      "SeriesDescription": "func_language_run1",
      "SeriesNumber": 11,
      "SeriesTime": "172352.692000",
      "SliceLocation": -60.828723291955,
      "SliceThickness": 2.0,
      "SmallestImagePixelValue": 0,
      "SoftwareVersions": "syngo MR E11",
      "SpacingBetweenSlices": 2.000000046712,
      "SpecificCharacterSet": "ISO_IR 100",
      "StudyID": "3",
      "StudyTime": "163044.589000",
      "TransmitCoilName": "Body",
      "VariableFlipAngleFlag": "N",
      "WindowCenterWidthExplanation": "Algo1",
      "dBdt": 0.0},
    "slices": {}
  },
  "time": {
    "samples": {
      "AcquisitionNumber": [1, 2, 3, 4, 5, 6, 7, 8, 9, 10, 11, 12, 13, 14, 15, 16, 17, 18, 19, 20, 21, 22, 23, 24, 25, 26, 27, 28, 29, 30, 31, 32, 33, 34, 35, 36, 37, 38, 39, 40, 41, 42, 43, 44, 45, 46, 47, 48, 49, 50, 51, 52, 53, 54, 55, 56, 57, 58, 59, 60, 61, 62, 63, 64, 65, 66, 67, 68, 69, 70, 71, 72, 73, 74, 75, 76, 77, 78, 79, 80, 81, 82, 83, 84, 85, 86, 87, 88, 89, 90, 91, 92, 93, 94, 95, 96, 97, 98, 99, 100, 101, 102, 103, 104, 105, 106, 107, 108, 109, 110, 111, 112, 113, 114, 115, 116, 117, 118, 119, 120, 121, 122, 123, 124, 125, 126, 127, 128, 129, 130, 131, 132, 133, 134, 135, 136, 137, 138, 139, 140, 141, 142, 143, 144, 145, 146, 147, 148, 149, 150, 151, 152, 153, 154, 155, 156, 157, 158, 159, 160, 161, 162, 163, 164, 165, 166, 167, 168, 169, 170, 171, 172, 173, 174, 175, 176, 177, 178, 179, 180, 181, 182, 183, 184, 185, 186, 187, 188, 189, 190, 191, 192, 193, 194, 195, 196, 197, 198, 199, 200, 201, 202, 203, 204, 205, 206, 207, 208, 209, 210, 211, 212, 213, 214, 215, 216, 217, 218, 219, 220, 221, 222, 223, 224, 225, 226, 227, 228, 229, 230, 231, 232, 233, 234, 235, 236, 237, 238, 239],
      "AcquisitionTime": ["172305.745000", "172307.245000", "172308.745000", "172310.245000", "172311.745000", "172313.245000", "172314.745000", "172316.245000", "172317.745000", "172319.245000", "172320.745000", "172322.245000", "172323.745000", "172325.245000", "172326.745000", "172328.245000", "172329.745000", "172331.245000", "172332.745000", "172334.245000", "172335.745000", "172337.245000", "172338.745000", "172340.245000", "172341.745000", "172343.245000", "172344.745000", "172346.245000", "172347.745000", "172349.245000", "172350.745000", "172352.245000", "172353.745000", "172355.245000", "172356.745000", "172358.245000", "172359.745000", "172401.245000", "172402.745000", "172404.245000", "172405.745000", "172407.245000", "172408.745000", "172410.245000", "172411.745000", "172413.245000", "172414.745000", "172416.245000", "172417.745000", "172419.245000", "172420.745000", "172422.245000", "172423.745000", "172425.245000", "172426.745000", "172428.245000", "172429.745000", "172431.245000", "172432.745000", "172434.245000", "172435.745000", "172437.245000", "172438.745000", "172440.245000", "172441.745000", "172443.245000", "172444.745000", "172446.245000", "172447.745000", "172449.245000", "172450.745000", "172452.245000", "172453.745000", "172455.245000", "172456.745000", "172458.245000", "172459.745000", "172501.245000", "172502.745000", "172504.245000", "172505.745000", "172507.245000", "172508.745000", "172510.245000", "172511.745000", "172513.245000", "172514.745000", "172516.245000", "172517.745000", "172519.245000", "172520.745000", "172522.245000", "172523.745000", "172525.245000", "172526.745000", "172528.245000", "172529.745000", "172531.245000", "172532.745000", "172534.245000", "172535.745000", "172537.245000", "172538.745000", "172540.245000", "172541.745000", "172543.245000", "172544.745000", "172546.245000", "172547.745000", "172549.245000", "172550.745000", "172552.245000", "172553.745000", "172555.245000", "172556.745000", "172558.245000", "172559.745000", "172601.245000", "172602.745000", "172604.245000", "172605.745000", "172607.245000", "172608.745000", "172610.245000", "172611.745000", "172613.245000", "172614.745000", "172616.245000", "172617.745000", "172619.245000", "172620.745000", "172622.245000", "172623.745000", "172625.245000", "172626.745000", "172628.245000", "172629.745000", "172631.245000", "172632.745000", "172634.245000", "172635.745000", "172637.245000", "172638.745000", "172640.245000", "172641.745000", "172643.245000", "172644.745000", "172646.245000", "172647.745000", "172649.245000", "172650.745000", "172652.245000", "172653.745000", "172655.245000", "172656.745000", "172658.245000", "172659.745000", "172701.245000", "172702.745000", "172704.245000", "172705.745000", "172707.245000", "172708.745000", "172710.245000", "172711.745000", "172713.245000", "172714.745000", "172716.245000", "172717.745000", "172719.245000", "172720.745000", "172722.245000", "172723.745000", "172725.245000", "172726.745000", "172728.245000", "172729.745000", "172731.245000", "172732.745000", "172734.245000", "172735.745000", "172737.245000", "172738.745000", "172740.245000", "172741.745000", "172743.245000", "172744.745000", "172746.245000", "172747.745000", "172749.245000", "172750.745000", "172752.245000", "172753.745000", "172755.245000", "172756.745000", "172758.245000", "172759.745000", "172801.245000", "172802.745000", "172804.245000", "172805.745000", "172807.245000", "172808.745000", "172810.245000", "172811.745000", "172813.245000", "172814.745000", "172816.245000", "172817.745000", "172819.245000", "172820.745000", "172822.245000", "172823.745000", "172825.245000", "172826.745000", "172828.245000", "172829.745000", "172831.245000", "172832.745000", "172834.245000", "172835.745000", "172837.245000", "172838.745000", "172840.245000", "172841.745000", "172843.245000", "172844.745000", "172846.245000", "172847.745000", "172849.245000", "172850.745000", "172852.245000", "172853.745000", "172855.245000", "172856.745000", "172858.245000", "172859.745000", "172901.245000", "172902.745000"],
      "ContentTime": ["172352.696000", "172352.700000", "172352.703000", "172352.707000", "172352.710000", "172352.733000", "172352.736000", "172352.739000", "172352.742000", "172352.745000", "172352.748000", "172352.751000", "172352.754000", "172352.757000", "172352.760000", "172352.763000", "172352.766000", "172352.769000", "172352.778000", "172352.781000", "172352.784000", "172352.787000", "172352.790000", "172352.793000", "172352.807000", "172352.810000", "172352.813000", "172352.816000", "172352.819000", "172352.822000", "172352.825000", "172432.690000", "172432.693000", "172432.696000", "172432.699000", "172432.702000", "172432.705000", "172432.708000", "172432.711000", "172432.719000", "172432.722000", "172432.725000", "172432.728000", "172432.731000", "172432.734000", "172432.737000", "172432.740000", "172432.743000", "172432.746000", "172432.749000", "172432.752000", "172432.755000", "172432.758000", "172432.761000", "172432.764000", "172432.767000", "172432.769000", "172432.772000", "172512.690000", "172512.693000", "172512.696000", "172512.699000", "172512.702000", "172512.705000", "172512.708000", "172512.711000", "172512.715000", "172512.718000", "172512.720000", "172512.723000", "172512.726000", "172512.729000", "172512.732000", "172512.735000", "172512.738000", "172512.741000", "172512.744000", "172512.747000", "172512.750000", "172512.753000", "172512.756000", "172512.759000", "172512.762000", "172512.765000", "172552.691000", "172552.694000", "172552.697000", "172552.700000", "172552.703000", "172552.706000", "172552.709000", "172552.712000", "172552.716000", "172552.719000", "172552.721000", "172552.724000", "172552.727000", "172552.730000", "172552.733000", "172552.736000", "172552.739000", "172552.742000", "172552.745000", "172552.748000", "172552.751000", "172552.754000", "172552.757000", "172552.760000", "172552.763000", "172552.766000", "172552.769000", "172632.691000", "172632.694000", "172632.697000", "172632.700000", "172632.703000", "172632.706000", "172632.709000", "172632.719000", "172632.722000", "172632.725000", "172632.728000", "172632.731000", "172632.734000", "172632.737000", "172632.740000", "172632.743000", "172632.746000", "172632.749000", "172632.752000", "172632.755000", "172632.758000", "172632.761000", "172632.764000", "172632.767000", "172632.770000", "172632.773000", "172632.776000", "172712.690000", "172712.693000", "172712.696000", "172712.699000", "172712.702000", "172712.705000", "172712.708000", "172712.711000", "172712.715000", "172712.718000", "172712.720000", "172712.724000", "172712.727000", "172712.730000", "172712.733000", "172712.736000", "172712.739000", "172712.742000", "172712.745000", "172712.747000", "172712.751000", "172712.753000", "172712.756000", "172712.759000", "172712.762000", "172712.765000", "172752.690000", "172752.693000", "172752.696000", "172752.699000", "172752.702000", "172752.705000", "172752.709000", "172752.712000", "172752.715000", "172752.718000", "172752.721000", "172752.724000", "172752.727000", "172752.730000", "172752.733000", "172752.736000", "172752.739000", "172752.742000", "172752.745000", "172752.747000", "172752.751000", "172752.755000", "172752.757000", "172752.760000", "172752.770000", "172752.773000", "172752.776000", "172832.691000", "172832.694000", "172832.697000", "172832.700000", "172832.703000", "172832.706000", "172832.709000", "172832.712000", "172832.715000", "172832.718000", "172832.721000", "172832.724000", "172832.727000", "172832.730000", "172832.733000", "172832.736000", "172832.739000", "172832.742000", "172832.745000", "172832.748000", "172832.764000", "172832.767000", "172832.770000", "172832.773000", "172832.776000", "172832.779000", "172832.782000", "172903.931000", "172903.935000", "172903.939000", "172903.942000", "172903.945000", "172903.948000", "172903.952000", "172903.955000", "172903.958000", "172903.961000", "172903.966000", "172903.969000", "172903.972000", "172903.975000", "172903.979000", "172903.982000", "172903.985000", "172903.988000", "172903.991000", "172903.995000", "172903.998000"],
      "InstanceCreationTime": ["172352.696000", "172352.700000", "172352.703000", "172352.707000", "172352.710000", "172352.733000", "172352.736000", "172352.739000", "172352.742000", "172352.745000", "172352.748000", "172352.751000", "172352.754000", "172352.757000", "172352.760000", "172352.763000", "172352.766000", "172352.769000", "172352.778000", "172352.781000", "172352.784000", "172352.787000", "172352.790000", "172352.793000", "172352.807000", "172352.810000", "172352.813000", "172352.816000", "172352.819000", "172352.822000", "172352.825000", "172432.690000", "172432.693000", "172432.696000", "172432.699000", "172432.702000", "172432.705000", "172432.708000", "172432.711000", "172432.719000", "172432.722000", "172432.725000", "172432.728000", "172432.731000", "172432.734000", "172432.737000", "172432.740000", "172432.743000", "172432.746000", "172432.749000", "172432.752000", "172432.755000", "172432.758000", "172432.761000", "172432.764000", "172432.767000", "172432.769000", "172432.772000", "172512.690000", "172512.693000", "172512.696000", "172512.699000", "172512.702000", "172512.705000", "172512.708000", "172512.711000", "172512.715000", "172512.718000", "172512.720000", "172512.723000", "172512.726000", "172512.729000", "172512.732000", "172512.735000", "172512.738000", "172512.741000", "172512.744000", "172512.747000", "172512.750000", "172512.753000", "172512.756000", "172512.759000", "172512.762000", "172512.765000", "172552.691000", "172552.694000", "172552.697000", "172552.700000", "172552.703000", "172552.706000", "172552.709000", "172552.712000", "172552.716000", "172552.719000", "172552.721000", "172552.724000", "172552.727000", "172552.730000", "172552.733000", "172552.736000", "172552.739000", "172552.742000", "172552.745000", "172552.748000", "172552.751000", "172552.754000", "172552.757000", "172552.760000", "172552.763000", "172552.766000", "172552.769000", "172632.691000", "172632.694000", "172632.697000", "172632.700000", "172632.703000", "172632.706000", "172632.709000", "172632.719000", "172632.722000", "172632.725000", "172632.728000", "172632.731000", "172632.734000", "172632.737000", "172632.740000", "172632.743000", "172632.746000", "172632.749000", "172632.752000", "172632.755000", "172632.758000", "172632.761000", "172632.764000", "172632.767000", "172632.770000", "172632.773000", "172632.776000", "172712.690000", "172712.693000", "172712.696000", "172712.699000", "172712.702000", "172712.705000", "172712.708000", "172712.711000", "172712.715000", "172712.718000", "172712.720000", "172712.724000", "172712.727000", "172712.730000", "172712.733000", "172712.736000", "172712.739000", "172712.742000", "172712.745000", "172712.747000", "172712.751000", "172712.753000", "172712.756000", "172712.759000", "172712.762000", "172712.765000", "172752.690000", "172752.693000", "172752.696000", "172752.699000", "172752.702000", "172752.705000", "172752.709000", "172752.712000", "172752.715000", "172752.718000", "172752.721000", "172752.724000", "172752.727000", "172752.730000", "172752.733000", "172752.736000", "172752.739000", "172752.742000", "172752.745000", "172752.747000", "172752.751000", "172752.755000", "172752.757000", "172752.760000", "172752.770000", "172752.773000", "172752.776000", "172832.691000", "172832.694000", "172832.697000", "172832.700000", "172832.703000", "172832.706000", "172832.709000", "172832.712000", "172832.715000", "172832.718000", "172832.721000", "172832.724000", "172832.727000", "172832.730000", "172832.733000", "172832.736000", "172832.739000", "172832.742000", "172832.745000", "172832.748000", "172832.764000", "172832.767000", "172832.770000", "172832.773000", "172832.776000", "172832.779000", "172832.782000", "172903.931000", "172903.935000", "172903.939000", "172903.942000", "172903.945000", "172903.948000", "172903.952000", "172903.955000", "172903.958000", "172903.961000", "172903.966000", "172903.969000", "172903.972000", "172903.975000", "172903.979000", "172903.982000", "172903.985000", "172903.988000", "172903.991000", "172903.995000", "172903.998000"],
      "InstanceNumber": [1, 2, 3, 4, 5, 6, 7, 8, 9, 10, 11, 12, 13, 14, 15, 16, 17, 18, 19, 20, 21, 22, 23, 24, 25, 26, 27, 28, 29, 30, 31, 32, 33, 34, 35, 36, 37, 38, 39, 40, 41, 42, 43, 44, 45, 46, 47, 48, 49, 50, 51, 52, 53, 54, 55, 56, 57, 58, 59, 60, 61, 62, 63, 64, 65, 66, 67, 68, 69, 70, 71, 72, 73, 74, 75, 76, 77, 78, 79, 80, 81, 82, 83, 84, 85, 86, 87, 88, 89, 90, 91, 92, 93, 94, 95, 96, 97, 98, 99, 100, 101, 102, 103, 104, 105, 106, 107, 108, 109, 110, 111, 112, 113, 114, 115, 116, 117, 118, 119, 120, 121, 122, 123, 124, 125, 126, 127, 128, 129, 130, 131, 132, 133, 134, 135, 136, 137, 138, 139, 140, 141, 142, 143, 144, 145, 146, 147, 148, 149, 150, 151, 152, 153, 154, 155, 156, 157, 158, 159, 160, 161, 162, 163, 164, 165, 166, 167, 168, 169, 170, 171, 172, 173, 174, 175, 176, 177, 178, 179, 180, 181, 182, 183, 184, 185, 186, 187, 188, 189, 190, 191, 192, 193, 194, 195, 196, 197, 198, 199, 200, 201, 202, 203, 204, 205, 206, 207, 208, 209, 210, 211, 212, 213, 214, 215, 216, 217, 218, 219, 220, 221, 222, 223, 224, 225, 226, 227, 228, 229, 230, 231, 232, 233, 234, 235, 236, 237, 238, 239],
      "LargestImagePixelValue": [2632, 2540, 2547, 2510, 2553, 2543, 2550, 2550, 2571, 2523, 2618, 2543, 2579, 2563, 2532, 2572, 2526, 2614, 2530, 2596, 2551, 2553, 2586, 2556, 2584, 2588, 2551, 2541, 2654, 2612, 2581, 2651, 2580, 2657, 2564, 2543, 2546, 2631, 2642, 2609, 2534, 2533, 2546, 2541, 2558, 2657, 2557, 2606, 2539, 2517, 2560, 2527, 2600, 2561, 2544, 2515, 2595, 2537, 2560, 2518, 2568, 2531, 2523, 2546, 2525, 2539, 2529, 2552, 2594, 2490, 2604, 2628, 2481, 2519, 2521, 2543, 2526, 2509, 2490, 2595, 2680, 2433, 2457, 2464, 2456, 2527, 2465, 2536, 2440, 2455, 2465, 2475, 2530, 2470, 2479, 2537, 2493, 2496, 2565, 2479, 2495, 2470, 2477, 2471, 2472, 2572, 2464, 2485, 2474, 2455, 2543, 2475, 2491, 2582, 2451, 2489, 2498, 2434, 2437, 2444, 2450, 2595, 2455, 2456, 2532, 2458, 2443, 2495, 2465, 2532, 2481, 2482, 2456, 2475, 2447, 2435, 2458, 2454, 2464, 2455, 2450, 2448, 2441, 2447, 2467, 2453, 2584, 2461, 2466, 2582, 2571, 2529, 2550, 2579, 2566, 2498, 2482, 2520, 2467, 2460, 2527, 2433, 2414, 2461, 2467, 2464, 2458, 2471, 2451, 2472, 2493, 2445, 2547, 2435, 2460, 2473, 2452, 2472, 2485, 2563, 2482, 2469, 2493, 2506, 2494, 2477, 2444, 2502, 2672, 2511, 2515, 2509, 2594, 2527, 2582, 2590, 2568, 2517, 2453, 2705, 2576, 2607, 2516, 2577, 2563, 2486, 2601, 2631, 2551, 2562, 2511, 2508, 2490, 2584, 2412, 2462, 2595, 2530, 2580, 2570, 2526, 2648, 2585, 2593, 2590, 2558, 2515, 2557, 2569, 2508, 2492, 2478, 2493, 2511, 2495, 2503, 2461, 2545, 2461],
      "WindowCenter": [733.0, 732.0, 732.0, 731.0, 730.0, 729.0, 729.0, 729.0, 729.0, 729.0, 730.0, 729.0, 730.0, 730.0, 730.0, 730.0, 731.0, 732.0, 731.0, 731.0, 730.0, 729.0, 729.0, 728.0, 728.0, 729.0, 729.0, 730.0, 731.0, 730.0, 728.0, 729.0, 728.0, 729.0, 729.0, 729.0, 728.0, 729.0, 729.0, 730.0, 730.0, 730.0, 730.0, 729.0, 729.0, 731.0, 731.0, 730.0, 730.0, 729.0, 729.0, 730.0, 731.0, 731.0, 730.0, 729.0, 731.0, 730.0, 728.0, 726.0, 727.0, 727.0, 727.0, 726.0, 725.0, 725.0, 726.0, 727.0, 727.0, 724.0, 727.0, 727.0, 726.0, 727.0, 727.0, 726.0, 726.0, 727.0, 725.0, 726.0, 728.0, 727.0, 729.0, 729.0, 728.0, 727.0, 726.0, 727.0, 726.0, 726.0, 726.0, 725.0, 727.0, 727.0, 729.0, 730.0, 730.0, 730.0, 731.0, 729.0, 730.0, 731.0, 732.0, 731.0, 731.0, 730.0, 729.0, 728.0, 728.0, 728.0, 728.0, 727.0, 728.0, 729.0, 725.0, 726.0, 727.0, 726.0, 726.0, 726.0, 726.0, 728.0, 727.0, 728.0, 730.0, 731.0, 731.0, 730.0, 728.0, 725.0, 727.0, 728.0, 729.0, 728.0, 726.0, 725.0, 725.0, 724.0, 725.0, 725.0, 726.0, 725.0, 725.0, 725.0, 726.0, 726.0, 728.0, 727.0, 727.0, 728.0, 726.0, 727.0, 728.0, 730.0, 730.0, 730.0, 729.0, 729.0, 729.0, 728.0, 727.0, 725.0, 723.0, 723.0, 724.0, 725.0, 724.0, 725.0, 725.0, 725.0, 725.0, 724.0, 726.0, 726.0, 728.0, 727.0, 727.0, 727.0, 727.0, 727.0, 728.0, 729.0, 730.0, 729.0, 729.0, 730.0, 729.0, 729.0, 725.0, 725.0, 727.0, 726.0, 726.0, 724.0, 725.0, 726.0, 725.0, 721.0, 724.0, 726.0, 726.0, 726.0, 725.0, 726.0, 726.0, 726.0, 726.0, 727.0, 727.0, 727.0, 728.0, 729.0, 729.0, 730.0, 728.0, 730.0, 731.0, 729.0, 731.0, 732.0, 731.0, 732.0, 731.0, 732.0, 731.0, 729.0, 728.0, 727.0, 726.0, 725.0, 724.0, 723.0, 722.0, 721.0, 723.0, 723.0, 723.0, 724.0, 724.0],
      "WindowWidth": [1593.0, 1588.0, 1588.0, 1585.0, 1582.0, 1581.0, 1579.0, 1579.0, 1581.0, 1581.0, 1582.0, 1581.0, 1582.0, 1582.0, 1582.0, 1584.0, 1586.0, 1589.0, 1587.0, 1585.0, 1582.0, 1580.0, 1579.0, 1578.0, 1577.0, 1579.0, 1581.0, 1583.0, 1586.0, 1584.0, 1576.0, 1579.0, 1578.0, 1581.0, 1580.0, 1580.0, 1577.0, 1579.0, 1581.0, 1583.0, 1584.0, 1581.0, 1582.0, 1581.0, 1580.0, 1586.0, 1586.0, 1582.0, 1583.0, 1580.0, 1580.0, 1581.0, 1586.0, 1586.0, 1583.0, 1579.0, 1584.0, 1581.0, 1576.0, 1573.0, 1575.0, 1573.0, 1574.0, 1572.0, 1570.0, 1569.0, 1572.0, 1575.0, 1575.0, 1566.0, 1574.0, 1574.0, 1574.0, 1575.0, 1575.0, 1573.0, 1572.0, 1574.0, 1569.0, 1573.0, 1577.0, 1575.0, 1579.0, 1579.0, 1576.0, 1574.0, 1572.0, 1575.0, 1573.0, 1572.0, 1571.0, 1569.0, 1575.0, 1576.0, 1581.0, 1582.0, 1582.0, 1581.0, 1585.0, 1580.0, 1584.0, 1586.0, 1587.0, 1584.0, 1584.0, 1584.0, 1580.0, 1579.0, 1578.0, 1576.0, 1578.0, 1574.0, 1578.0, 1580.0, 1570.0, 1573.0, 1574.0, 1572.0, 1572.0, 1572.0, 1573.0, 1577.0, 1574.0, 1577.0, 1582.0, 1585.0, 1586.0, 1582.0, 1578.0, 1570.0, 1575.0, 1577.0, 1579.0, 1578.0, 1572.0, 1570.0, 1569.0, 1567.0, 1569.0, 1570.0, 1573.0, 1570.0, 1568.0, 1570.0, 1572.0, 1572.0, 1577.0, 1574.0, 1575.0, 1577.0, 1572.0, 1576.0, 1578.0, 1583.0, 1582.0, 1583.0, 1579.0, 1581.0, 1579.0, 1578.0, 1574.0, 1567.0, 1564.0, 1564.0, 1566.0, 1568.0, 1568.0, 1568.0, 1568.0, 1568.0, 1568.0, 1566.0, 1572.0, 1573.0, 1576.0, 1575.0, 1574.0, 1574.0, 1575.0, 1575.0, 1577.0, 1581.0, 1582.0, 1581.0, 1581.0, 1583.0, 1579.0, 1579.0, 1571.0, 1570.0, 1574.0, 1572.0, 1571.0, 1567.0, 1570.0, 1571.0, 1570.0, 1558.0, 1566.0, 1571.0, 1573.0, 1572.0, 1569.0, 1570.0, 1570.0, 1571.0, 1572.0, 1573.0, 1574.0, 1575.0, 1577.0, 1578.0, 1581.0, 1582.0, 1577.0, 1583.0, 1584.0, 1579.0, 1584.0, 1587.0, 1584.0, 1588.0, 1586.0, 1589.0, 1586.0, 1580.0, 1576.0, 1572.0, 1571.0, 1567.0, 1566.0, 1563.0, 1560.0, 1559.0, 1562.0, 1562.0, 1562.0, 1566.0, 1565.0]
    },
    "slices": {}
  }
}