{
  "AcquisitionMatrixPE": 72,
  "AcquisitionNumber": 1,
  "AcquisitionTime": "09:43:11.325000",
  "BandwidthPerPixelPhaseEncode": 17.943,
  "BaseResolution": 96,
  "BodyPartExamined": "BRAIN",
  "CoilCombinationMethod": "Sum of Squares",
  "ConsistencyInfo": "N4_VE11C_LATEST_20160120",
  "ConversionSoftware": "dcm2niix",
  "ConversionSoftwareVersion": "v1.0.20211006",
  "DerivedVendorReportedEchoSpacing": 0.000552897,
  "DeviceSerialNumber": "166011",
  "EchoTime": 0.03,
  "EchoTrainLength": 58,
  "EffectiveEchoSpacing": 0.000580542,
  "FlipAngle": 62,
  "ImageOrientationPatientDICOM": [0.999642, -0.0262644, 0.00502781, 0.0267004, 0.990705, -0.133385],
  "ImageType": [
    "ORIGINAL",
    "PRIMARY",
    "M",
    "ND",
    "MOSAIC"
],
  "ImagingFrequency": 123.259,
  "InPlanePhaseEncodingDirectionDICOM": "COL",
  "InstitutionAddress": "West 130th Street 610,NY,NYC,US,10025",
  "InstitutionName": "MBBI",
  "MRAcquisitionType": "2D",
  "MagneticFieldStrength": 3,
  "Manufacturer": "Siemens",
  "ManufacturersModelName": "Prisma",
  "Modality": "MR",
  "MultibandAccelerationFactor": 3,
  "PartialFourier": 0.75,
  "PatientPosition": "HFS",
  "PercentPhaseFOV": 100,
  "PercentSampling": 75,
  "PhaseEncodingDirection": "j-",
  "PhaseEncodingSteps": 58,
  "PhaseOversampling": 0.05,
  "PhaseResolution": 0.75,
  "PixelBandwidth": 2265,
  "ProcedureStepDescription": "White^Word_recognition",
  "ProtocolName": "func_language_run3",
  "PulseSequenceDetails": "%SiemensSeq%\\ep2d_bold",
  "ReceiveCoilActiveElements": "HC1-7",
  "ReceiveCoilName": "HeadNeck_64",
  "ReconMatrixPE": 96,
  "RefLinesPE": 40,
  "RepetitionTime": 1.5,
  "SAR": 0.0470856,
  "ScanOptions": "PFP\\FS",
  "ScanningSequence": "EP",
  "SequenceName": "*epfid2d1_72",
  "SequenceVariant": "SK\\OSP",
  "SeriesDescription": "func_language_run3",
  "SeriesNumber": 13,
  "ShimSetting": [-1181, -1393, 679, 701, -125, -255, -28, -68],
  "SliceThickness": 2,
  "SliceTiming": [1.0775, 0, 0.74, 0.0675, 0.8075, 0.135, 0.875, 0.2025, 0.9425, 0.27, 1.01, 0.405, 1.145, 0.4725, 1.2125, 0.54, 1.28, 0.605, 1.345, 0.6725, 1.4125, 0.3375, 1.0775, 0, 0.74, 0.0675, 0.8075, 0.135, 0.875, 0.2025, 0.9425, 0.27, 1.01, 0.405, 1.145, 0.4725, 1.2125, 0.54, 1.28, 0.605, 1.345, 0.6725, 1.4125, 0.3375, 1.0775, 0, 0.74, 0.0675, 0.8075, 0.135, 0.875, 0.2025, 0.9425, 0.27, 1.01, 0.405, 1.145, 0.4725, 1.2125, 0.54, 1.28, 0.605, 1.345, 0.6725, 1.4125, 0.3375],
  "SoftwareVersions": "syngo MR E11",
  "SpacingBetweenSlices": 2,
  "StationName": "AWP166011",
  "TaskName": "langLoc",
  "TotalReadoutTime": 0.0551515,
  "TxRefAmp": 214.866,
  "dcmmeta_affine": [
    [-1.9992847442626953, 0.05340079963207245, 0.002955583855509758, 96.3221206665039],
    [0.052528709173202515, 1.9814090728759766, -0.26694390177726746, -69.8557357788086],
    [0.010055619291961193, 0.2667708098888397, 1.9821029901504517, -64.31785583496094],
    [0.0, 0.0, 0.0, 1.0]
],
  "dcmmeta_reorient_transform": [
    [0.0, -1.0, 0.0, 95.0],
    [1.0, 0.0, 0.0, 0.0],
    [0.0, 0.0, 1.0, 0.0],
    [0.0, 0.0, 0.0, 1.0]
],
  "dcmmeta_shape": [96, 96, 66, 239],
  "dcmmeta_slice_dim": 2,
  "dcmmeta_version": 0.6,
  "global": {
    "const": {
      "AcquisitionMatrix": [96, 0, 0, 72],
      "AngioFlag": "N",
      "BitsAllocated": 16,
      "BitsStored": 12,
      "BodyPartExamined": "BRAIN",
      "Columns": 864,
      "EchoNumbers": 1,
      "EchoTime": 30.0,
      "EchoTrainLength": 58,
      "FlipAngle": 62.0,
      "HighBit": 11,
      "ImageOrientationPatient": [0.99964238845779, -0.0262643547267, 0.00502780958342, 0.02670039942565, 0.99070450752244, -0.1333854094166],
      "ImagePositionPatient": [-889.62645834692, -859.06815641069, 59.604011147204],
      "ImageType": [
        "ORIGINAL",
        "PRIMARY",
        "M",
        "ND",
        "MOSAIC"
],
      "ImagedNucleus": "1H",
      "ImagingFrequency": 123.259289,
      "InPlanePhaseEncodingDirection": "COL",
      "MRAcquisitionType": "2D",
      "MagneticFieldStrength": 3.0,
      "Manufacturer": "SIEMENS",
      "ManufacturerModelName": "Prisma",
      "Modality": "MR",
      "NumberOfAverages": 1.0,
      "NumberOfPhaseEncodingSteps": 58,
      "PercentPhaseFieldOfView": 100.0,
      "PercentSampling": 75.0,
      "PerformedProcedureStepStartTime": "084413.393000",
      "PhotometricInterpretation": "MONOCHROME2",
      "PixelBandwidth": 2265.0,
      "PixelRepresentation": 0,
      "PixelSpacing": [2.0, 2.0],
      "ProtocolName": "func_language_run3",
      "RepetitionTime": 1500.0,
      "Rows": 864,
      "SAR": 0.04708556451619,
      "SamplesPerPixel": 1,
      "ScanOptions": [
        "PFP",
        "FS"
],
      "ScanningSequence": "EP",
      "SequenceName": "*epfid2d1_72",
      "SequenceVariant": [
        "SK",
        "OSP"
],
      "SeriesDescription": "func_language_run3",
      "SeriesNumber": 13,
      "SeriesTime": "094342.607000",
      "SliceLocation": -54.276178490166,
      "SliceThickness": 2.0,
      "SmallestImagePixelValue": 0,
      "SoftwareVersions": "syngo MR E11",
      "SpacingBetweenSlices": 2.0000000460392,
      "SpecificCharacterSet": "ISO_IR 100",
      "StudyID": "3",
      "StudyTime": "084413.208000",
      "TransmitCoilName": "Body",
      "VariableFlipAngleFlag": "N",
      "WindowCenterWidthExplanation": "Algo1",
      "dBdt": 0.0},
    "slices": {}
  },
  "time": {
    "samples": {
      "AcquisitionNumber": [1, 2, 3, 4, 5, 6, 7, 8, 9, 10, 11, 12, 13, 14, 15, 16, 17, 18, 19, 20, 21, 22, 23, 24, 25, 26, 27, 28, 29, 30, 31, 32, 33, 34, 35, 36, 37, 38, 39, 40, 41, 42, 43, 44, 45, 46, 47, 48, 49, 50, 51, 52, 53, 54, 55, 56, 57, 58, 59, 60, 61, 62, 63, 64, 65, 66, 67, 68, 69, 70, 71, 72, 73, 74, 75, 76, 77, 78, 79, 80, 81, 82, 83, 84, 85, 86, 87, 88, 89, 90, 91, 92, 93, 94, 95, 96, 97, 98, 99, 100, 101, 102, 103, 104, 105, 106, 107, 108, 109, 110, 111, 112, 113, 114, 115, 116, 117, 118, 119, 120, 121, 122, 123, 124, 125, 126, 127, 128, 129, 130, 131, 132, 133, 134, 135, 136, 137, 138, 139, 140, 141, 142, 143, 144, 145, 146, 147, 148, 149, 150, 151, 152, 153, 154, 155, 156, 157, 158, 159, 160, 161, 162, 163, 164, 165, 166, 167, 168, 169, 170, 171, 172, 173, 174, 175, 176, 177, 178, 179, 180, 181, 182, 183, 184, 185, 186, 187, 188, 189, 190, 191, 192, 193, 194, 195, 196, 197, 198, 199, 200, 201, 202, 203, 204, 205, 206, 207, 208, 209, 210, 211, 212, 213, 214, 215, 216, 217, 218, 219, 220, 221, 222, 223, 224, 225, 226, 227, 228, 229, 230, 231, 232, 233, 234, 235, 236, 237, 238, 239],
      "AcquisitionTime": ["094311.325000", "094312.825000", "094314.325000", "094315.825000", "094317.325000", "094318.825000", "094320.325000", "094321.825000", "094323.325000", "094324.825000", "094326.325000", "094327.825000", "094329.325000", "094330.825000", "094332.325000", "094333.825000", "094335.325000", "094336.825000", "094338.325000", "094339.825000", "094341.325000", "094342.825000", "094344.325000", "094345.825000", "094347.325000", "094348.825000", "094350.325000", "094351.825000", "094353.325000", "094354.825000", "094356.325000", "094357.825000", "094359.325000", "094400.825000", "094402.325000", "094403.825000", "094405.325000", "094406.825000", "094408.325000", "094409.825000", "094411.325000", "094412.825000", "094414.325000", "094415.825000", "094417.325000", "094418.825000", "094420.325000", "094421.825000", "094423.325000", "094424.825000", "094426.325000", "094427.825000", "094429.325000", "094430.825000", "094432.325000", "094433.825000", "094435.325000", "094436.825000", "094438.325000", "094439.825000", "094441.325000", "094442.825000", "094444.325000", "094445.825000", "094447.325000", "094448.825000", "094450.325000", "094451.825000", "094453.325000", "094454.825000", "094456.325000", "094457.825000", "094459.325000", "094500.825000", "094502.325000", "094503.825000", "094505.325000", "094506.825000", "094508.325000", "094509.825000", "094511.325000", "094512.825000", "094514.325000", "094515.825000", "094517.325000", "094518.825000", "094520.325000", "094521.825000", "094523.325000", "094524.825000", "094526.325000", "094527.825000", "094529.325000", "094530.825000", "094532.325000", "094533.825000", "094535.325000", "094536.825000", "094538.325000", "094539.825000", "094541.325000", "094542.825000", "094544.325000", "094545.825000", "094547.325000", "094548.825000", "094550.325000", "094551.825000", "094553.325000", "094554.825000", "094556.325000", "094557.825000", "094559.325000", "094600.825000", "094602.325000", "094603.825000", "094605.325000", "094606.825000", "094608.325000", "094609.825000", "094611.325000", "094612.825000", "094614.325000", "094615.825000", "094617.325000", "094618.825000", "094620.325000", "094621.825000", "094623.325000", "094624.825000", "094626.325000", "094627.825000", "094629.325000", "094630.825000", "094632.325000", "094633.825000", "094635.325000", "094636.825000", "094638.325000", "094639.825000", "094641.325000", "094642.825000", "094644.325000", "094645.825000", "094647.325000", "094648.825000", "094650.325000", "094651.825000", "094653.325000", "094654.825000", "094656.325000", "094657.825000", "094659.325000", "094700.825000", "094702.325000", "094703.825000", "094705.325000", "094706.825000", "094708.325000", "094709.825000", "094711.325000", "094712.825000", "094714.325000", "094715.825000", "094717.325000", "094718.825000", "094720.325000", "094721.825000", "094723.325000", "094724.825000", "094726.325000", "094727.825000", "094729.325000", "094730.825000", "094732.325000", "094733.825000", "094735.325000", "094736.825000", "094738.325000", "094739.825000", "094741.325000", "094742.825000", "094744.325000", "094745.825000", "094747.325000", "094748.825000", "094750.325000", "094751.825000", "094753.325000", "094754.825000", "094756.325000", "094757.825000", "094759.325000", "094800.825000", "094802.325000", "094803.825000", "094805.325000", "094806.825000", "094808.325000", "094809.825000", "094811.325000", "094812.825000", "094814.325000", "094815.825000", "094817.325000", "094818.825000", "094820.325000", "094821.825000", "094823.325000", "094824.825000", "094826.325000", "094827.825000", "094829.325000", "094830.825000", "094832.325000", "094833.825000", "094835.325000", "094836.825000", "094838.325000", "094839.825000", "094841.325000", "094842.825000", "094844.325000", "094845.825000", "094847.325000", "094848.825000", "094850.325000", "094851.825000", "094853.325000", "094854.825000", "094856.325000", "094857.825000", "094859.325000", "094900.825000", "094902.325000", "094903.825000", "094905.325000", "094906.825000", "094908.325000"],
      "ContentTime": ["094342.611000", "094342.615000", "094342.618000", "094342.621000", "094342.625000", "094342.629000", "094342.633000", "094342.636000", "094342.640000", "094342.643000", "094342.646000", "094342.649000", "094342.652000", "094342.655000", "094342.658000", "094342.661000", "094342.664000", "094342.668000", "094342.671000", "094342.674000", "094342.677000", "094422.606000", "094422.609000", "094422.612000", "094422.616000", "094422.638000", "094422.642000", "094422.645000", "094422.648000", "094422.651000", "094422.654000", "094422.657000", "094422.660000", "094422.663000", "094422.666000", "094422.669000", "094422.672000", "094422.676000", "094422.679000", "094422.682000", "094422.685000", "094422.688000", "094422.691000", "094422.694000", "094422.698000", "094422.701000", "094422.704000", "094422.707000", "094502.606000", "094502.609000", "094502.613000", "094502.616000", "094502.619000", "094502.622000", "094502.625000", "094502.628000", "094502.631000", "094502.634000", "094502.637000", "094502.641000", "094502.644000", "094502.647000", "094502.650000", "094502.653000", "094502.656000", "094502.659000", "094502.663000", "094502.666000", "094502.669000", "094502.672000", "094502.675000", "094502.678000", "094502.681000", "094502.684000", "094542.606000", "094542.609000", "094542.612000", "094542.615000", "094542.619000", "094542.622000", "094542.625000", "094542.628000", "094542.631000", "094542.634000", "094542.638000", "094542.641000", "094542.644000", "094542.647000", "094542.650000", "094542.653000", "094542.656000", "094542.659000", "094542.662000", "094542.666000", "094542.669000", "094542.672000", "094542.675000", "094542.678000", "094542.681000", "094542.684000", "094542.687000", "094622.606000", "094622.610000", "094622.613000", "094622.616000", "094622.619000", "094622.622000", "094622.625000", "094622.628000", "094622.631000", "094622.634000", "094622.637000", "094622.640000", "094622.644000", "094622.647000", "094622.650000", "094622.653000", "094622.656000", "094622.659000", "094622.662000", "094622.665000", "094622.668000", "094622.671000", "094622.674000", "094622.678000", "094622.683000", "094622.687000", "094622.690000", "094702.605000", "094702.609000", "094702.612000", "094702.615000", "094702.618000", "094702.622000", "094702.625000", "094702.628000", "094702.631000", "094702.634000", "094702.637000", "094702.640000", "094702.643000", "094702.646000", "094702.649000", "094702.652000", "094702.656000", "094702.659000", "094702.662000", "094702.665000", "094702.668000", "094702.671000", "094702.674000", "094702.677000", "094702.680000", "094702.683000", "094742.606000", "094742.609000", "094742.613000", "094742.616000", "094742.619000", "094742.622000", "094742.625000", "094742.628000", "094742.631000", "094742.634000", "094742.637000", "094742.640000", "094742.644000", "094742.647000", "094742.650000", "094742.653000", "094742.656000", "094742.659000", "094742.662000", "094742.665000", "094742.668000", "094742.671000", "094742.675000", "094742.678000", "094742.681000", "094742.684000", "094742.692000", "094822.606000", "094822.610000", "094822.613000", "094822.616000", "094822.619000", "094822.622000", "094822.625000", "094822.628000", "094822.631000", "094822.635000", "094822.646000", "094822.649000", "094822.652000", "094822.655000", "094822.658000", "094822.661000", "094822.664000", "094822.667000", "094822.670000", "094822.673000", "094822.676000", "094822.680000", "094822.683000", "094822.686000", "094822.689000", "094822.692000", "094822.695000", "094902.606000", "094902.618000", "094902.621000", "094902.624000", "094902.627000", "094902.630000", "094902.633000", "094902.636000", "094902.639000", "094902.642000", "094902.646000", "094902.649000", "094902.652000", "094902.655000", "094902.658000", "094902.661000", "094902.664000", "094902.667000", "094902.671000", "094902.674000", "094902.677000", "094902.680000", "094902.683000", "094902.686000", "094902.689000", "094902.692000", "094909.064000", "094909.068000", "094909.071000", "094909.074000", "094909.077000"],
      "InstanceCreationTime": ["094342.611000", "094342.615000", "094342.618000", "094342.621000", "094342.625000", "094342.629000", "094342.633000", "094342.636000", "094342.640000", "094342.643000", "094342.646000", "094342.649000", "094342.652000", "094342.655000", "094342.658000", "094342.661000", "094342.664000", "094342.668000", "094342.671000", "094342.674000", "094342.677000", "094422.606000", "094422.609000", "094422.612000", "094422.616000", "094422.638000", "094422.642000", "094422.645000", "094422.648000", "094422.651000", "094422.654000", "094422.657000", "094422.660000", "094422.663000", "094422.666000", "094422.669000", "094422.672000", "094422.676000", "094422.679000", "094422.682000", "094422.685000", "094422.688000", "094422.691000", "094422.694000", "094422.698000", "094422.701000", "094422.704000", "094422.707000", "094502.606000", "094502.609000", "094502.613000", "094502.616000", "094502.619000", "094502.622000", "094502.625000", "094502.628000", "094502.631000", "094502.634000", "094502.637000", "094502.641000", "094502.644000", "094502.647000", "094502.650000", "094502.653000", "094502.656000", "094502.659000", "094502.663000", "094502.666000", "094502.669000", "094502.672000", "094502.675000", "094502.678000", "094502.681000", "094502.684000", "094542.606000", "094542.609000", "094542.612000", "094542.615000", "094542.619000", "094542.622000", "094542.625000", "094542.628000", "094542.631000", "094542.634000", "094542.638000", "094542.641000", "094542.644000", "094542.647000", "094542.650000", "094542.653000", "094542.656000", "094542.659000", "094542.662000", "094542.666000", "094542.669000", "094542.672000", "094542.675000", "094542.678000", "094542.681000", "094542.684000", "094542.687000", "094622.606000", "094622.610000", "094622.613000", "094622.616000", "094622.619000", "094622.622000", "094622.625000", "094622.628000", "094622.631000", "094622.634000", "094622.637000", "094622.640000", "094622.644000", "094622.647000", "094622.650000", "094622.653000", "094622.656000", "094622.659000", "094622.662000", "094622.665000", "094622.668000", "094622.671000", "094622.674000", "094622.678000", "094622.683000", "094622.687000", "094622.690000", "094702.605000", "094702.609000", "094702.612000", "094702.615000", "094702.618000", "094702.622000", "094702.625000", "094702.628000", "094702.631000", "094702.634000", "094702.637000", "094702.640000", "094702.643000", "094702.646000", "094702.649000", "094702.652000", "094702.656000", "094702.659000", "094702.662000", "094702.665000", "094702.668000", "094702.671000", "094702.674000", "094702.677000", "094702.680000", "094702.683000", "094742.606000", "094742.609000", "094742.613000", "094742.616000", "094742.619000", "094742.622000", "094742.625000", "094742.628000", "094742.631000", "094742.634000", "094742.637000", "094742.640000", "094742.644000", "094742.647000", "094742.650000", "094742.653000", "094742.656000", "094742.659000", "094742.662000", "094742.665000", "094742.668000", "094742.671000", "094742.675000", "094742.678000", "094742.681000", "094742.684000", "094742.692000", "094822.606000", "094822.610000", "094822.613000", "094822.616000", "094822.619000", "094822.622000", "094822.625000", "094822.628000", "094822.631000", "094822.635000", "094822.646000", "094822.649000", "094822.652000", "094822.655000", "094822.658000", "094822.661000", "094822.664000", "094822.667000", "094822.670000", "094822.673000", "094822.676000", "094822.680000", "094822.683000", "094822.686000", "094822.689000", "094822.692000", "094822.695000", "094902.606000", "094902.618000", "094902.621000", "094902.624000", "094902.627000", "094902.630000", "094902.633000", "094902.636000", "094902.639000", "094902.642000", "094902.646000", "094902.649000", "094902.652000", "094902.655000", "094902.658000", "094902.661000", "094902.664000", "094902.667000", "094902.671000", "094902.674000", "094902.677000", "094902.680000", "094902.683000", "094902.686000", "094902.689000", "094902.692000", "094909.064000", "094909.068000", "094909.071000", "094909.074000", "094909.077000"],
      "InstanceNumber": [1, 2, 3, 4, 5, 6, 7, 8, 9, 10, 11, 12, 13, 14, 15, 16, 17, 18, 19, 20, 21, 22, 23, 24, 25, 26, 27, 28, 29, 30, 31, 32, 33, 34, 35, 36, 37, 38, 39, 40, 41, 42, 43, 44, 45, 46, 47, 48, 49, 50, 51, 52, 53, 54, 55, 56, 57, 58, 59, 60, 61, 62, 63, 64, 65, 66, 67, 68, 69, 70, 71, 72, 73, 74, 75, 76, 77, 78, 79, 80, 81, 82, 83, 84, 85, 86, 87, 88, 89, 90, 91, 92, 93, 94, 95, 96, 97, 98, 99, 100, 101, 102, 103, 104, 105, 106, 107, 108, 109, 110, 111, 112, 113, 114, 115, 116, 117, 118, 119, 120, 121, 122, 123, 124, 125, 126, 127, 128, 129, 130, 131, 132, 133, 134, 135, 136, 137, 138, 139, 140, 141, 142, 143, 144, 145, 146, 147, 148, 149, 150, 151, 152, 153, 154, 155, 156, 157, 158, 159, 160, 161, 162, 163, 164, 165, 166, 167, 168, 169, 170, 171, 172, 173, 174, 175, 176, 177, 178, 179, 180, 181, 182, 183, 184, 185, 186, 187, 188, 189, 190, 191, 192, 193, 194, 195, 196, 197, 198, 199, 200, 201, 202, 203, 204, 205, 206, 207, 208, 209, 210, 211, 212, 213, 214, 215, 216, 217, 218, 219, 220, 221, 222, 223, 224, 225, 226, 227, 228, 229, 230, 231, 232, 233, 234, 235, 236, 237, 238, 239],
      "LargestImagePixelValue": [3386, 3204, 3224, 3219, 3140, 3205, 3127, 3177, 3106, 3157, 3139, 3126, 3101, 3118, 3114, 3118, 3076, 3090, 3134, 3149, 3118, 3122, 3116, 3117, 3096, 3071, 3128, 3062, 3144, 3057, 3105, 3059, 3089, 3076, 3110, 3049, 3092, 3080, 3062, 3047, 3047, 3050, 3046, 3053, 3063, 3046, 3071, 3038, 3088, 3063, 3064, 3069, 3037, 3031, 3062, 3038, 3041, 3032, 3042, 3060, 3087, 3124, 3095, 3094, 3071, 3040, 3109, 3024, 3024, 3020, 2985, 2997, 3034, 2979, 2990, 3014, 3014, 2993, 3056, 2993, 3028, 3043, 3026, 2987, 3057, 3017, 3014, 3024, 3012, 3010, 3045, 3002, 2980, 3029, 3035, 3015, 2988, 3014, 2976, 3013, 3025, 3020, 3002, 3032, 3057, 3024, 3000, 3036, 2977, 2975, 3052, 3015, 2980, 3008, 3048, 2995, 2966, 3113, 3109, 3073, 3076, 3087, 3084, 3068, 3004, 3045, 3036, 3055, 3021, 3058, 3073, 3035, 3036, 2980, 3012, 2991, 3011, 3139, 3054, 3030, 3036, 3031, 3001, 2962, 2974, 3023, 2987, 3003, 3007, 3030, 2989, 3074, 3000, 3033, 3065, 3020, 3001, 3057, 3001, 3043, 3010, 3015, 3068, 3028, 3054, 3038, 3027, 3071, 3024, 3048, 3023, 2990, 3014, 3091, 3083, 3087, 3106, 3018, 2989, 3013, 3006, 2981, 3012, 2966, 3011, 3015, 3013, 3026, 3015, 3026, 3023, 3136, 3132, 3132, 3115, 3080, 3025, 3059, 3017, 3003, 3035, 3022, 3021, 3065, 3018, 3081, 3039, 3072, 3064, 3076, 3066, 3094, 3094, 3122, 2881, 3075, 3053, 2992, 3042, 3041, 3003, 3053, 2954, 3030, 3058, 3059, 3029, 3014, 3063, 3089, 3034, 3064, 3020, 3008, 3061, 2997, 3084, 3002, 3010],
      "WindowCenter": [738.0, 737.0, 736.0, 736.0, 735.0, 734.0, 734.0, 734.0, 734.0, 734.0, 734.0, 735.0, 735.0, 736.0, 736.0, 736.0, 736.0, 736.0, 736.0, 736.0, 736.0, 735.0, 734.0, 734.0, 734.0, 734.0, 734.0, 735.0, 736.0, 735.0, 736.0, 735.0, 735.0, 735.0, 735.0, 735.0, 735.0, 734.0, 734.0, 734.0, 735.0, 735.0, 735.0, 734.0, 734.0, 735.0, 735.0, 735.0, 735.0, 735.0, 734.0, 735.0, 735.0, 735.0, 734.0, 734.0, 735.0, 735.0, 735.0, 737.0, 737.0, 737.0, 737.0, 737.0, 734.0, 733.0, 733.0, 733.0, 733.0, 734.0, 734.0, 734.0, 734.0, 733.0, 733.0, 734.0, 734.0, 735.0, 735.0, 734.0, 735.0, 735.0, 735.0, 735.0, 736.0, 736.0, 735.0, 735.0, 735.0, 735.0, 735.0, 735.0, 735.0, 735.0, 735.0, 734.0, 734.0, 734.0, 734.0, 734.0, 734.0, 734.0, 734.0, 735.0, 736.0, 736.0, 736.0, 735.0, 735.0, 735.0, 735.0, 734.0, 734.0, 734.0, 734.0, 734.0, 734.0, 736.0, 735.0, 736.0, 737.0, 735.0, 735.0, 734.0, 733.0, 733.0, 734.0, 734.0, 734.0, 735.0, 735.0, 734.0, 734.0, 734.0, 734.0, 734.0, 735.0, 735.0, 735.0, 737.0, 735.0, 735.0, 734.0, 733.0, 732.0, 733.0, 732.0, 732.0, 732.0, 733.0, 733.0, 734.0, 733.0, 734.0, 734.0, 733.0, 733.0, 734.0, 734.0, 735.0, 734.0, 734.0, 733.0, 734.0, 736.0, 735.0, 735.0, 735.0, 734.0, 734.0, 733.0, 733.0, 733.0, 734.0, 735.0, 736.0, 735.0, 733.0, 733.0, 733.0, 733.0, 733.0, 733.0, 733.0, 734.0, 733.0, 732.0, 733.0, 733.0, 733.0, 734.0, 733.0, 735.0, 737.0, 735.0, 733.0, 732.0, 732.0, 731.0, 730.0, 730.0, 730.0, 731.0, 732.0, 732.0, 733.0, 733.0, 733.0, 733.0, 734.0, 734.0, 734.0, 732.0, 733.0, 714.0, 738.0, 737.0, 733.0, 733.0, 732.0, 732.0, 731.0, 731.0, 732.0, 733.0, 733.0, 732.0, 732.0, 733.0, 733.0, 734.0, 733.0, 733.0, 732.0, 733.0, 734.0, 733.0, 734.0, 733.0],
      "WindowWidth": [1615.0, 1611.0, 1609.0, 1608.0, 1603.0, 1602.0, 1601.0, 1602.0, 1601.0, 1602.0, 1602.0, 1604.0, 1606.0, 1606.0, 1606.0, 1608.0, 1608.0, 1608.0, 1608.0, 1608.0, 1606.0, 1603.0, 1602.0, 1603.0, 1602.0, 1601.0, 1603.0, 1604.0, 1606.0, 1604.0, 1606.0, 1604.0, 1604.0, 1605.0, 1605.0, 1605.0, 1604.0, 1602.0, 1601.0, 1602.0, 1603.0, 1603.0, 1603.0, 1602.0, 1601.0, 1604.0, 1604.0, 1606.0, 1605.0, 1604.0, 1602.0, 1604.0, 1603.0, 1603.0, 1601.0, 1602.0, 1603.0, 1603.0, 1604.0, 1609.0, 1611.0, 1610.0, 1611.0, 1609.0, 1601.0, 1599.0, 1598.0, 1599.0, 1599.0, 1602.0, 1602.0, 1602.0, 1601.0, 1599.0, 1599.0, 1601.0, 1602.0, 1603.0, 1604.0, 1602.0, 1603.0, 1603.0, 1604.0, 1604.0, 1606.0, 1606.0, 1605.0, 1603.0, 1603.0, 1604.0, 1605.0, 1604.0, 1605.0, 1604.0, 1604.0, 1602.0, 1602.0, 1602.0, 1601.0, 1601.0, 1602.0, 1602.0, 1602.0, 1603.0, 1606.0, 1606.0, 1606.0, 1605.0, 1604.0, 1603.0, 1603.0, 1601.0, 1602.0, 1602.0, 1601.0, 1600.0, 1601.0, 1606.0, 1606.0, 1608.0, 1608.0, 1605.0, 1605.0, 1601.0, 1599.0, 1599.0, 1602.0, 1601.0, 1602.0, 1604.0, 1604.0, 1601.0, 1601.0, 1600.0, 1602.0, 1602.0, 1603.0, 1604.0, 1605.0, 1609.0, 1604.0, 1603.0, 1601.0, 1597.0, 1597.0, 1597.0, 1595.0, 1597.0, 1596.0, 1598.0, 1600.0, 1601.0, 1599.0, 1600.0, 1601.0, 1600.0, 1600.0, 1600.0, 1602.0, 1603.0, 1601.0, 1600.0, 1599.0, 1600.0, 1606.0, 1605.0, 1605.0, 1604.0, 1601.0, 1600.0, 1600.0, 1599.0, 1599.0, 1601.0, 1603.0, 1606.0, 1603.0, 1600.0, 1597.0, 1599.0, 1598.0, 1597.0, 1598.0, 1599.0, 1601.0, 1599.0, 1596.0, 1598.0, 1598.0, 1598.0, 1600.0, 1599.0, 1603.0, 1609.0, 1603.0, 1598.0, 1596.0, 1595.0, 1592.0, 1590.0, 1589.0, 1590.0, 1592.0, 1594.0, 1595.0, 1598.0, 1599.0, 1599.0, 1599.0, 1602.0, 1600.0, 1600.0, 1596.0, 1598.0, 1546.0, 1613.0, 1608.0, 1598.0, 1597.0, 1595.0, 1594.0, 1593.0, 1593.0, 1596.0, 1598.0, 1597.0, 1595.0, 1595.0, 1597.0, 1598.0, 1599.0, 1598.0, 1597.0, 1594.0, 1598.0, 1602.0, 1597.0, 1602.0, 1597.0]
    },
    "slices": {}
  }
}