{
  "AcquisitionMatrixPE": 70,
  "AcquisitionNumber": 1,
  "AcquisitionTime": "16:43:56.487500",
  "BaseResolution": 70,
  "BodyPartExamined": "BRAIN",
  "CoilCombinationMethod": "Sum of Squares",
  "ConsistencyInfo": "N4_VE11C_LATEST_20160120",
  "ConversionSoftware": "dcm2niix",
  "ConversionSoftwareVersion": "v1.0.20211006",
  "DeviceSerialNumber": "166011",
  "EchoNumber": 2,
  "EchoTime": 0.00738,
  "EchoTime1": 0.00492,
  "EchoTime2": 0.00738,
  "FlipAngle": 60,
  "ImageOrientationPatientDICOM": [0.997201, 0.0483401, -0.0570364, -0.0257643, 0.938321, 0.344804],
  "ImageType": [
    "ORIGINAL",
    "PRIMARY",
    "P",
    "ND",
    "PHASE"
],
  "ImagingFrequency": 123.259,
  "InPlanePhaseEncodingDirectionDICOM": "ROW",
  "InstitutionAddress": "West 130th Street 610,NY,NYC,US,10025",
  "InstitutionName": "MBBI",
  "MRAcquisitionType": "2D",
  "MagneticFieldStrength": 3,
  "Manufacturer": "Siemens",
  "ManufacturersModelName": "Prisma",
  "MatrixCoilMode": "SENSE",
  "Modality": "MR",
  "PartialFourier": 1,
  "PatientPosition": "HFS",
  "PercentPhaseFOV": 100,
  "PercentSampling": 100,
  "PhaseEncodingDirection": "i",
  "PhaseEncodingSteps": 70,
  "PhaseResolution": 1,
  "PixelBandwidth": 595,
  "ProcedureStepDescription": "White^Word_recognition",
  "ProtocolName": "fmap_gre_field_mapping",
  "PulseSequenceDetails": "%SiemensSeq%\\gre_field_mapping",
  "ReceiveCoilActiveElements": "HC1-7",
  "ReceiveCoilName": "HeadNeck_64",
  "ReconMatrixPE": 70,
  "RepetitionTime": 0.52,
  "SAR": 0.0943678,
  "ScanningSequence": "GR",
  "SequenceName": "*fm2d2r",
  "SequenceVariant": "SP",
  "SeriesDescription": "fmap_gre_field_mapping",
  "SeriesNumber": 15,
  "ShimSetting": [-1179, -1501, 832, 620, -121, -281, 104, 44],
  "SliceThickness": 3,
  "SliceTiming": [0.25, 0, 0.26562, 0, 0.28125, 0.01562, 0.29688, 0.03125, 0.29688, 0.04688, 0.3125, 0.0625, 0.32812, 0.0625, 0.34375, 0.07812, 0.35938, 0.09375, 0.35938, 0.10938, 0.375, 0.125, 0.39062, 0.125, 0.40625, 0.14062, 0.42188, 0.15625, 0.42188, 0.17188, 0.4375, 0.1875, 0.45312, 0.1875, 0.46875, 0.20312, 0.46875, 0.21875, 0.48438, 0.23438, 0.5, 0.23438],
  "SoftwareVersions": "syngo MR E11",
  "SpacingBetweenSlices": 3,
  "StationName": "AWP166011",
  "TxRefAmp": 216.897,
  "dcmmeta_affine": [
    [-2.991603374481201, -0.07729291915893555, -0.21055889129638672, 113.23490905761719],
    [-0.14502039551734924, 2.8149631023406982, 1.0271072387695312, -84.75411224365234],
    [-0.17110909521579742, -1.034411907196045, 2.8108139038085938, 19.156869888305664],
    [0.0, 0.0, 0.0, 1.0]
],
  "dcmmeta_reorient_transform": [
    [0.0, -1.0, 0.0, 69.0],
    [1.0, 0.0, 0.0, 0.0],
    [0.0, 0.0, -1.0, 41.0],
    [0.0, 0.0, 0.0, 1.0]
],
  "dcmmeta_shape": [70, 70, 42],
  "dcmmeta_slice_dim": 2,
  "dcmmeta_version": 0.6,
  "global": {
    "const": {
      "AcquisitionMatrix": [0, 70, 70, 0],
      "AcquisitionNumber": 1,
      "AngioFlag": "N",
      "BitsAllocated": 16,
      "BitsStored": 12,
      "BodyPartExamined": "BRAIN",
      "Columns": 70,
      "EchoNumbers": 2,
      "EchoTime": 7.38,
      "EchoTrainLength": 0,
      "FlipAngle": 60.0,
      "HighBit": 11,
      "ImageOrientationPatient": [0.99720112543988, 0.04834013048448, -0.0570363673999, -0.0257643075985, 0.93832106436001, 0.34480397421183],
      "ImageType": [
        "ORIGINAL",
        "PRIMARY",
        "P",
        "ND"
],
      "ImagedNucleus": "1H",
      "ImagingFrequency": 123.259118,
      "InPlanePhaseEncodingDirection": "ROW",
      "MRAcquisitionType": "2D",
      "MagneticFieldStrength": 3.0,
      "Manufacturer": "SIEMENS",
      "ManufacturerModelName": "Prisma",
      "Modality": "MR",
      "NumberOfAverages": 1.0,
      "NumberOfPhaseEncodingSteps": 70,
      "PercentPhaseFieldOfView": 100.0,
      "PercentSampling": 100.0,
      "PerformedProcedureStepStartTime": "152924.246000",
      "PhotometricInterpretation": "MONOCHROME2",
      "PixelBandwidth": 595.0,
      "PixelRepresentation": 0,
      "PixelSpacing": [3.0, 3.0],
      "ProtocolName": "fmap_gre_field_mapping",
      "RepetitionTime": 520.0,
      "RescaleIntercept": -4096.0,
      "RescaleSlope": 2.0,
      "RescaleType": "US",
      "Rows": 70,
      "SAR": 0.09436778960486,
      "SamplesPerPixel": 1,
      "ScanningSequence": "GR",
      "SequenceName": "*fm2d2r",
      "SequenceVariant": "SP",
      "SeriesDescription": "fmap_gre_field_mapping",
      "SeriesNumber": 15,
      "SeriesTime": "164509.545000",
      "SliceThickness": 3.0,
      "SoftwareVersions": "syngo MR E11",
      "SpacingBetweenSlices": 3.0,
      "SpecificCharacterSet": "ISO_IR 100",
      "StudyID": "1",
      "StudyTime": "152924.196000",
      "TransmitCoilName": "Body",
      "VariableFlipAngleFlag": "N",
      "WindowCenterWidthExplanation": "Algo1",
      "dBdt": 0.0},
    "slices": {
      "AcquisitionTime": ["164356.487500", "164356.227500", "164356.500000", "164356.240000", "164356.512500", "164356.252500", "164356.525000", "164356.265000", "164356.537500", "164356.277500", "164356.550000", "164356.290000", "164356.562500", "164356.302500", "164356.575000", "164356.315000", "164356.587500", "164356.327500", "164356.600000", "164356.340000", "164356.612500", "164356.352500", "164356.625000", "164356.365000", "164356.637500", "164356.377500", "164356.650000", "164356.390000", "164356.662500", "164356.402500", "164356.675000", "164356.415000", "164356.687500", "164356.427500", "164356.700000", "164356.440000", "164356.710000", "164356.450000", "164356.722500", "164356.462500", "164356.735000", "164356.475000"],
      "ContentTime": ["164509.594000", "164509.547000", "164509.596000", "164509.550000", "164509.598000", "164509.552000", "164509.600000", "164509.554000", "164509.602000", "164509.556000", "164509.604000", "164509.558000", "164509.606000", "164509.560000", "164509.609000", "164509.563000", "164509.611000", "164509.565000", "164509.613000", "164509.567000", "164509.615000", "164509.569000", "164509.617000", "164509.571000", "164509.619000", "164509.573000", "164509.621000", "164509.575000", "164509.623000", "164509.578000", "164509.626000", "164509.580000", "164509.628000", "164509.582000", "164509.630000", "164509.585000", "164509.632000", "164509.587000", "164509.634000", "164509.589000", "164509.639000", "164509.591000"],
      "CsaImage.GSWDDataType": [
        "predicted",
        "predicted",
        "predicted",
        "predicted",
        "predicted",
        "predicted",
        "predicted",
        "predicted",
        "predicted",
        "predicted",
        "predicted",
        "predicted",
        "predicted",
        "predicted",
        "predicted",
        "predicted",
        "predicted",
        "predicted",
        "predicted",
        "predicted",
        "predicted",
        "predicted",
        "predicted",
        "predicted",
        "predicted",
        "predicted",
        "measured",
        "predicted",
        "measured",
        "predicted",
        "measured",
        "predicted",
        "measured",
        "predicted",
        "measured",
        "predicted",
        "measured",
        "predicted",
        "measured",
        "predicted",
        "measured",
        "predicted"
],
      "CsaImage.ICE_Dims": [
        "X_2_1_1_1_1_1_22_1_1_1_1_70",
        "X_2_1_1_1_1_1_1_1_1_2_1_70",
        "X_2_1_1_1_1_1_23_1_1_3_1_70",
        "X_2_1_1_1_1_1_2_1_1_4_1_70",
        "X_2_1_1_1_1_1_24_1_1_5_1_70",
        "X_2_1_1_1_1_1_3_1_1_6_1_70",
        "X_2_1_1_1_1_1_25_1_1_7_1_70",
        "X_2_1_1_1_1_1_4_1_1_8_1_70",
        "X_2_1_1_1_1_1_26_1_1_9_1_70",
        "X_2_1_1_1_1_1_5_1_1_10_1_70",
        "X_2_1_1_1_1_1_27_1_1_11_1_70",
        "X_2_1_1_1_1_1_6_1_1_12_1_70",
        "X_2_1_1_1_1_1_28_1_1_13_1_70",
        "X_2_1_1_1_1_1_7_1_1_14_1_70",
        "X_2_1_1_1_1_1_29_1_1_15_1_70",
        "X_2_1_1_1_1_1_8_1_1_16_1_70",
        "X_2_1_1_1_1_1_30_1_1_17_1_70",
        "X_2_1_1_1_1_1_9_1_1_18_1_70",
        "X_2_1_1_1_1_1_31_1_1_19_1_70",
        "X_2_1_1_1_1_1_10_1_1_20_1_70",
        "X_2_1_1_1_1_1_32_1_1_21_1_70",
        "X_2_1_1_1_1_1_11_1_1_22_1_70",
        "X_2_1_1_1_1_1_33_1_1_23_1_70",
        "X_2_1_1_1_1_1_12_1_1_24_1_70",
        "X_2_1_1_1_1_1_34_1_1_25_1_70",
        "X_2_1_1_1_1_1_13_1_1_26_1_70",
        "X_2_1_1_1_1_1_35_1_1_27_1_70",
        "X_2_1_1_1_1_1_14_1_1_28_1_70",
        "X_2_1_1_1_1_1_36_1_1_29_1_70",
        "X_2_1_1_1_1_1_15_1_1_30_1_70",
        "X_2_1_1_1_1_1_37_1_1_31_1_70",
        "X_2_1_1_1_1_1_16_1_1_32_1_70",
        "X_2_1_1_1_1_1_38_1_1_33_1_70",
        "X_2_1_1_1_1_1_17_1_1_34_1_70",
        "X_2_1_1_1_1_1_39_1_1_35_1_70",
        "X_2_1_1_1_1_1_18_1_1_36_1_70",
        "X_2_1_1_1_1_1_40_1_1_37_1_70",
        "X_2_1_1_1_1_1_19_1_1_38_1_70",
        "X_2_1_1_1_1_1_41_1_1_39_1_70",
        "X_2_1_1_1_1_1_20_1_1_40_1_70",
        "X_2_1_1_1_1_1_42_1_1_41_1_70",
        "X_2_1_1_1_1_1_21_1_1_42_1_70"
],
      "CsaImage.ProtocolSliceNumber": [0, 1, 2, 3, 4, 5, 6, 7, 8, 9, 10, 11, 12, 13, 14, 15, 16, 17, 18, 19, 20, 21, 22, 23, 24, 25, 26, 27, 28, 29, 30, 31, 32, 33, 34, 35, 36, 37, 38, 39, 40, 41],
      "CsaImage.RFSWDDataType": [
        "predicted",
        "predicted",
        "predicted",
        "predicted",
        "predicted",
        "predicted",
        "predicted",
        "predicted",
        "predicted",
        "predicted",
        "predicted",
        "predicted",
        "predicted",
        "predicted",
        "predicted",
        "predicted",
        "predicted",
        "predicted",
        "predicted",
        "predicted",
        "predicted",
        "predicted",
        "measured",
        "predicted",
        "measured",
        "predicted",
        "measured",
        "predicted",
        "measured",
        "predicted",
        "measured",
        "predicted",
        "measured",
        "predicted",
        "measured",
        "predicted",
        "measured",
        "predicted",
        "measured",
        "predicted",
        "measured",
        "predicted"
],
      "CsaImage.SlicePosition_PCS": [
        [-107.90169376, -109.47830501, -52.21783031],
        [-107.69113487, -110.50541368, -49.40701069],
        [-107.48057598, -111.53252187, -46.59618915],
        [-107.27001708, -112.55962958, -43.78536857],
        [-107.05945819, -113.58673778, -40.974548],
        [-106.8488993, -114.61384692, -38.16372694],
        [-106.63834041, -115.64095511, -35.35290588],
        [-106.42778152, -116.66806331, -32.5420853],
        [-106.21722263, -117.6951715, -29.73126446],
        [-106.00666374, -118.72227969, -26.92044367],
        [-105.79610508, -119.74938693, -24.10962309],
        [-105.58554619, -120.77649608, -21.29880203],
        [-105.3749873, -121.80360522, -18.48798145],
        [-105.16442841, -122.83071246, -15.67716087],
        [-104.95386952, -123.85782161, -12.86634029],
        [-104.74331063, -124.88492885, -10.05551876],
        [-104.53275174, -125.91203799, -7.24469723],
        [-104.32219284, -126.93914523, -4.4338776],
        [-104.11163395, -127.96625438, -1.62305607],
        [-103.90107506, -128.99336162, 1.18776356],
        [-103.69051617, -130.02047076, 3.99858509],
        [-103.47995728, -131.047578, 6.80940663],
        [-103.26939839, -132.07468715, 9.62022816],
        [-103.0588395, -133.10179439, 12.43104588],
        [-102.84828061, -134.12890353, 15.24186741],
        [-102.63772171, -135.15601077, 18.05268894],
        [-102.42716279, -136.18311992, 20.86351048],
        [-102.21660392, -137.21022716, 23.67433201],
        [-102.00604503, -138.23733821, 26.48514973],
        [-101.79548615, -139.26444545, 29.29597126],
        [-101.58492726, -140.29155269, 32.10679279],
        [-101.37436837, -141.31865993, 34.91761051],
        [-101.16380947, -142.34577098, 37.72843205],
        [-100.95325058, -143.37287822, 40.53925358],
        [-100.74269169, -144.39998546, 43.35007511],
        [-100.5321328, -145.42709269, 46.16089665],
        [-100.32157391, -146.45420375, 48.97171818],
        [-100.11101502, -147.48131099, 51.78253971],
        [-99.90045613, -148.50841823, 54.59336125],
        [-99.68989724, -149.53552546, 57.40418278],
        [-99.47933834, -150.56263652, 60.21500431],
        [-99.26877945, -151.58974376, 63.02581822]
],
      "CsaImage.TimeAfterStart": [0.7825, 0.5225, 0.795, 0.535, 0.8075, 0.5475, 0.82, 0.56, 0.8325, 0.5725, 0.845, 0.585, 0.8575, 0.5975, 0.87, 0.61, 0.8825, 0.6225, 0.895, 0.635, 0.9075, 0.6475, 0.92, 0.66, 0.9325, 0.6725, 0.945, 0.685, 0.9575, 0.6975, 0.97, 0.71, 0.9825, 0.7225, 0.995, 0.735, 1.005, 0.745, 1.0175, 0.7575, 1.03, 0.77],
      "ImagePositionPatient": [
        [-107.90169375802, -109.47830500579, -52.217830313153],
        [-107.69113486672, -110.50541367507, -49.407010687299],
        [-107.48057597543, -111.53252186752, -46.596189154096],
        [-107.27001708413, -112.55962958312, -43.785368574567],
        [-107.05945819283, -113.58673777557, -40.974547995038],
        [-106.84889930154, -114.61384692168, -38.163726938672],
        [-106.63834041024, -115.64095511413, -35.352905882306],
        [-106.42778151894, -116.66806330657, -32.542085302777],
        [-106.21722262765, -117.69517149902, -29.731264455027],
        [-106.00666373635, -118.72227969146, -26.920443666882],
        [-105.79610508347, -119.74938693023, -24.109623087354],
        [-105.58554619218, -120.77649607635, -21.298802030988],
        [-105.37498730088, -121.80360522247, -18.487981451459],
        [-105.16442840958, -122.83071246123, -15.67716087193],
        [-104.95386951829, -123.85782160735, -12.866340292401],
        [-104.74331062699, -124.88492884612, -10.055518759198],
        [-104.5327517357, -125.91203799224, -7.2446972259949],
        [-104.3221928444, -126.93914523101, -4.4338776001404],
        [-104.1116339531, -127.96625437713, -1.6230560669373],
        [-103.90107506181, -128.9933616159, 1.1877635589172],
        [-103.69051617051, -130.02047076202, 3.9985850921203],
        [-103.47995727921, -131.04757800079, 6.8094066253234],
        [-103.26939838792, -132.0746871469, 9.6202281585265],
        [-103.05883949662, -133.10179438567, 12.431045877032],
        [-102.84828060532, -134.12890353179, 15.241867410236],
        [-102.63772171403, -135.15601077056, 18.052688943439],
        [-102.42716279293, -136.18311991668, 20.863510476642],
        [-102.21660391653, -137.21022715545, 23.674332009845],
        [-102.00604503315, -138.23733820892, 26.485149728351],
        [-101.79548614884, -139.26444544769, 29.295971261554],
        [-101.58492725755, -140.29155268645, 32.106792794757],
        [-101.37436836625, -141.31865992522, 34.917610513263],
        [-101.16380947495, -142.34577097869, 37.728432046466],
        [-100.95325058366, -143.37287821746, 40.539253579669],
        [-100.74269169236, -144.39998545623, 43.350075112872],
        [-100.53213280106, -145.427092695, 46.160896646075],
        [-100.32157390977, -146.45420374847, 48.971718179279],
        [-100.11101501847, -147.48131098724, 51.782539712482],
        [-99.900456127175, -148.50841822601, 54.593361245685],
        [-99.689897235878, -149.53552546477, 57.404182778888],
        [-99.479338344582, -150.56263651824, 60.215004312091],
        [-99.268779453285, -151.58974375701, 63.0258182159]
],
      "InstanceCreationTime": ["164509.594000", "164509.547000", "164509.596000", "164509.550000", "164509.598000", "164509.552000", "164509.600000", "164509.554000", "164509.602000", "164509.556000", "164509.604000", "164509.558000", "164509.606000", "164509.560000", "164509.609000", "164509.563000", "164509.611000", "164509.565000", "164509.613000", "164509.567000", "164509.615000", "164509.569000", "164509.617000", "164509.571000", "164509.619000", "164509.573000", "164509.621000", "164509.575000", "164509.623000", "164509.578000", "164509.626000", "164509.580000", "164509.628000", "164509.582000", "164509.630000", "164509.585000", "164509.632000", "164509.587000", "164509.634000", "164509.589000", "164509.639000", "164509.591000"],
      "InstanceNumber": [1, 2, 3, 4, 5, 6, 7, 8, 9, 10, 11, 12, 13, 14, 15, 16, 17, 18, 19, 20, 21, 22, 23, 24, 25, 26, 27, 28, 29, 30, 31, 32, 33, 34, 35, 36, 37, 38, 39, 40, 41, 42],
      "LargestImagePixelValue": [4093, 4087, 4091, 4093, 4093, 4093, 4095, 4092, 4093, 4093, 4093, 4093, 4089, 4092, 4091, 4085, 4081, 4095, 4078, 4091, 4094, 4074, 4091, 4081, 4082, 4078, 4072, 4073, 4089, 4094, 4085, 4091, 4094, 4094, 4095, 4095, 4093, 4094, 4088, 4089, 4092, 4091],
      "SliceLocation": [-19.016185571874, -16.016186532823, -13.016185869955, -10.016186263878, -7.016186494546, -4.0161859519371, -1.0161857358372, 1.9838140334947, 4.9838140541337, 7.9838140189266, 10.983813445016, 13.983813987625, 16.983814083466, 19.983813526289, 22.98381362213, 25.983813958489, 28.983814947865, 31.983813497153, 34.983814486529, 37.983813035816, 40.983814025193, 43.983814361552, 46.983815350929, 49.983812113144, 52.983813102521, 55.98381343888, 58.983814430349, 61.983814765662, 64.983812833357, 67.983813169226, 70.983813505585, 73.9838102678, 76.983811910195, 79.983812246554, 82.983812582913, 85.983812919272, 88.983814561666, 91.983814898025, 94.983815234384, 97.983815570743, 100.98381721314, 103.98381040121],
      "SmallestImagePixelValue": [0, 3, 0, 0, 0, 0, 1, 8, 0, 1, 1, 0, 0, 3, 1, 3, 1, 3, 22, 15, 31, 4, 5, 0, 0, 0, 6, 34, 7, 3, 19, 4, 0, 5, 22, 14, 21, 0, 4, 2, 0, 6],
      "WindowCenter": [-482.0, -312.0, -258.0, -238.0, -248.0, -298.0, -358.0, -304.0, -240.0, -124.0, -108.0, -2.0, -158.0, -220.0, -246.0, -200.0, -176.0, -202.0, -388.0, -360.0, -322.0, -284.0, -242.0, -232.0, -230.0, -230.0, -238.0, -224.0, -96.0, -220.0, -100.0, -254.0, -90.0, -114.0, -268.0, -184.0, -172.0, -162.0, -178.0, -190.0, -342.0, -266.0],
      "WindowWidth": [5898.0, 6144.0, 6000.0, 5962.0, 6060.0, 6126.0, 6134.0, 6164.0, 6194.0, 6250.0, 6170.0, 6176.0, 5926.0, 5802.0, 5586.0, 5646.0, 5710.0, 5570.0, 4708.0, 4678.0, 4644.0, 4632.0, 4588.0, 4574.0, 4570.0, 4568.0, 4576.0, 4562.0, 4922.0, 4538.0, 5096.0, 4572.0, 5256.0, 5154.0, 4648.0, 5274.0, 5398.0, 5476.0, 5462.0, 5534.0, 4796.0, 5572.0]
    }
  }
}