{
  "AcquisitionMatrixPE": 70,
  "AcquisitionNumber": 1,
  "AcquisitionTime": "19:38:8.802500",
  "BaseResolution": 70,
  "BodyPartExamined": "BRAIN",
  "CoilCombinationMethod": "Sum of Squares",
  "ConsistencyInfo": "N4_VE11C_LATEST_20160120",
  "ConversionSoftware": "dcm2niix",
  "ConversionSoftwareVersion": "v1.0.20211006",
  "DeviceSerialNumber": "166011",
  "EchoNumber": 2,
  "EchoTime": 0.00738,
  "EchoTime1": 0.00492,
  "EchoTime2": 0.00738,
  "FlipAngle": 60,
  "ImageOrientationPatientDICOM": [
    0.998276,
    -0.0221231,
    0.0543727,
    0.0264895,
    0.996367,
    -0.0809428
  ],
  "ImageType": [
    "ORIGINAL",
    "PRIMARY",
    "P",
    "ND",
    "PHASE"
  ],
  "ImagingFrequency": 123.259,
  "InPlanePhaseEncodingDirectionDICOM": "ROW",
  "InstitutionAddress": "West 130th Street 610,NY,NYC,US,10025",
  "InstitutionName": "MBBI",
  "IntendedFor": [
    "ses-1/func/sub-118_ses-1_task-catLoc_run-01_bold.nii.gz",
    "ses-1/func/sub-118_ses-1_task-catLoc_run-02_bold.nii.gz",
    "ses-1/func/sub-118_ses-1_task-vwfate_run-01_bold.nii.gz",
    "ses-1/func/sub-118_ses-1_task-vwfate_run-02_bold.nii.gz",
    "ses-1/func/sub-118_ses-1_task-vwfate_run-03_bold.nii.gz",
    "ses-1/func/sub-118_ses-1_task-vwfate_run-04_bold.nii.gz",
    "ses-1/func/sub-118_ses-1_task-vwfate_run-05_bold.nii.gz",
    "ses-1/func/sub-118_ses-1_task-vwfate_run-06_bold.nii.gz"
  ],
  "MRAcquisitionType": "2D",
  "MagneticFieldStrength": 3,
  "Manufacturer": "Siemens",
  "ManufacturersModelName": "Prisma",
  "MatrixCoilMode": "SENSE",
  "Modality": "MR",
  "MultibandAccelerationFactor": 2,
  "PartialFourier": 1,
  "PatientPosition": "HFS",
  "PercentPhaseFOV": 100,
  "PercentSampling": 100,
  "PhaseEncodingDirection": "i",
  "PhaseEncodingSteps": 70,
  "PhaseResolution": 1,
  "PixelBandwidth": 595,
  "ProcedureStepDescription": "White^Word_recognition",
  "ProtocolName": "fmap_gre_field_mapping",
  "PulseSequenceDetails": "%SiemensSeq%\\gre_field_mapping",
  "ReceiveCoilActiveElements": "HC1-7",
  "ReceiveCoilName": "HeadNeck_64",
  "ReconMatrixPE": 70,
  "RepetitionTime": 0.52,
  "SAR": 0.0797086,
  "ScanningSequence": "GR",
  "SequenceName": "*fm2d2r",
  "SequenceVariant": "SP",
  "SeriesDescription": "fmap_gre_field_mapping",
  "SeriesNumber": 17,
  "ShimSetting": [
    -1126,
    -1370,
    699,
    480,
    -67,
    61,
    -104,
    10
  ],
  "SliceThickness": 3,
  "SliceTiming": [
    0.25,
    0,
    0.26562,
    0.01562,
    0.28125,
    0.01562,
    0.29688,
    0.03125,
    0.3125,
    0.04688,
    0.3125,
    0.0625,
    0.32812,
    0.07812,
    0.34375,
    0.07812,
    0.35938,
    0.09375,
    0.375,
    0.10938,
    0.375,
    0.125,
    0.39062,
    0.14062,
    0.40625,
    0.14062,
    0.42188,
    0.15625,
    0.42188,
    0.17188,
    0.4375,
    0.1875,
    0.45312,
    0.1875,
    0.46875,
    0.20312,
    0.48438,
    0.21875,
    0.48438,
    0.23438,
    0.5,
    0.25
  ],
  "SoftwareVersions": "syngo MR E11",
  "SpacingBetweenSlices": 3,
  "StationName": "AWP166011",
  "TxRefAmp": 212.648,
  "dcmmeta_affine": [
    [
      -2.9948267936706543,
      0.07946841418743134,
      0.15715312957763672,
      101.3644790649414
    ],
    [
      0.06636928021907806,
      2.9890999794006348,
      -0.24673056602478027,
      -92.04727935791016
    ],
    [
      0.16311822831630707,
      0.2428283989429474,
      2.9857025146484375,
      -46.58934783935547
    ],
    [
      0.0,
      0.0,
      0.0,
      1.0
    ]
  ],
  "dcmmeta_reorient_transform": [
    [
      0.0,
      -1.0,
      0.0,
      69.0
    ],
    [
      1.0,
      0.0,
      0.0,
      0.0
    ],
    [
      0.0,
      0.0,
      -1.0,
      41.0
    ],
    [
      0.0,
      0.0,
      0.0,
      1.0
    ]
  ],
  "dcmmeta_shape": [
    70,
    70,
    42
  ],
  "dcmmeta_slice_dim": 2,
  "dcmmeta_version": 0.6,
  "global": {
    "const": {
      "AcquisitionMatrix": [
        0,
        70,
        70,
        0
      ],
      "AcquisitionNumber": 1,
      "AngioFlag": "N",
      "BitsAllocated": 16,
      "BitsStored": 12,
      "BodyPartExamined": "BRAIN",
      "Columns": 70,
      "EchoNumbers": 2,
      "EchoTime": 7.38,
      "EchoTrainLength": 0,
      "FlipAngle": 60.0,
      "HighBit": 11,
      "ImageOrientationPatient": [
        0.99827560015906,
        -0.0221230921936,
        0.05437274058631,
        0.02648947227355,
        0.99636668510632,
        -0.0809427987465
      ],
      "ImageType": [
        "ORIGINAL",
        "PRIMARY",
        "P",
        "ND"
      ],
      "ImagedNucleus": "1H",
      "ImagingFrequency": 123.259457,
      "InPlanePhaseEncodingDirection": "ROW",
      "MRAcquisitionType": "2D",
      "MagneticFieldStrength": 3.0,
      "Manufacturer": "SIEMENS",
      "ManufacturerModelName": "Prisma",
      "Modality": "MR",
      "NumberOfAverages": 1.0,
      "NumberOfPhaseEncodingSteps": 70,
      "PercentPhaseFieldOfView": 100.0,
      "PercentSampling": 100.0,
      "PerformedProcedureStepStartTime": "182355.268000",
      "PhotometricInterpretation": "MONOCHROME2",
      "PixelBandwidth": 595.0,
      "PixelRepresentation": 0,
      "PixelSpacing": [
        3.0,
        3.0
      ],
      "ProtocolName": "fmap_gre_field_mapping",
      "RepetitionTime": 520.0,
      "RescaleIntercept": -4096.0,
      "RescaleSlope": 2.0,
      "RescaleType": "US",
      "Rows": 70,
      "SAR": 0.07970857663676,
      "SamplesPerPixel": 1,
      "ScanningSequence": "GR",
      "SequenceName": "*fm2d2r",
      "SequenceVariant": "SP",
      "SeriesDescription": "fmap_gre_field_mapping",
      "SeriesNumber": 17,
      "SeriesTime": "193921.882000",
      "SliceThickness": 3.0,
      "SoftwareVersions": "syngo MR E11",
      "SpacingBetweenSlices": 3.0,
      "SpecificCharacterSet": "ISO_IR 100",
      "StudyID": "1",
      "StudyTime": "182355.205000",
      "TransmitCoilName": "Body",
      "VariableFlipAngleFlag": "N",
      "WindowCenterWidthExplanation": "Algo1",
      "dBdt": 0.0
    },
    "slices": {
      "AcquisitionTime": [
        "193808.802500",
        "193808.542500",
        "193808.815000",
        "193808.555000",
        "193808.827500",
        "193808.567500",
        "193808.840000",
        "193808.580000",
        "193808.852500",
        "193808.592500",
        "193808.865000",
        "193808.605000",
        "193808.877500",
        "193808.617500",
        "193808.890000",
        "193808.630000",
        "193808.902500",
        "193808.642500",
        "193808.915000",
        "193808.655000",
        "193808.927500",
        "193808.667500",
        "193808.940000",
        "193808.680000",
        "193808.952500",
        "193808.692500",
        "193808.962500",
        "193808.702500",
        "193808.975000",
        "193808.715000",
        "193808.987500",
        "193808.727500",
        "193809.000000",
        "193808.740000",
        "193809.012500",
        "193808.752500",
        "193809.025000",
        "193808.765000",
        "193809.037500",
        "193808.777500",
        "193809.050000",
        "193808.790000"
      ],
      "ContentTime": [
        "193921.938000",
        "193921.884000",
        "193921.940000",
        "193921.886000",
        "193921.942000",
        "193921.888000",
        "193921.944000",
        "193921.890000",
        "193921.946000",
        "193921.892000",
        "193921.949000",
        "193921.895000",
        "193921.951000",
        "193921.897000",
        "193921.953000",
        "193921.899000",
        "193921.955000",
        "193921.901000",
        "193921.957000",
        "193921.903000",
        "193921.959000",
        "193921.914000",
        "193921.961000",
        "193921.917000",
        "193921.963000",
        "193921.919000",
        "193921.966000",
        "193921.921000",
        "193921.968000",
        "193921.923000",
        "193921.970000",
        "193921.925000",
        "193921.972000",
        "193921.927000",
        "193921.974000",
        "193921.929000",
        "193921.976000",
        "193921.932000",
        "193921.978000",
        "193921.934000",
        "193921.980000",
        "193921.936000"
      ],
      "CsaImage.ICE_Dims": [
        "X_2_1_1_1_1_1_22_1_1_1_1_240",
        "X_2_1_1_1_1_1_1_1_1_2_1_240",
        "X_2_1_1_1_1_1_23_1_1_3_1_240",
        "X_2_1_1_1_1_1_2_1_1_4_1_240",
        "X_2_1_1_1_1_1_24_1_1_5_1_240",
        "X_2_1_1_1_1_1_3_1_1_6_1_240",
        "X_2_1_1_1_1_1_25_1_1_7_1_240",
        "X_2_1_1_1_1_1_4_1_1_8_1_240",
        "X_2_1_1_1_1_1_26_1_1_9_1_240",
        "X_2_1_1_1_1_1_5_1_1_10_1_240",
        "X_2_1_1_1_1_1_27_1_1_11_1_240",
        "X_2_1_1_1_1_1_6_1_1_12_1_240",
        "X_2_1_1_1_1_1_28_1_1_13_1_240",
        "X_2_1_1_1_1_1_7_1_1_14_1_240",
        "X_2_1_1_1_1_1_29_1_1_15_1_240",
        "X_2_1_1_1_1_1_8_1_1_16_1_240",
        "X_2_1_1_1_1_1_30_1_1_17_1_240",
        "X_2_1_1_1_1_1_9_1_1_18_1_240",
        "X_2_1_1_1_1_1_31_1_1_19_1_240",
        "X_2_1_1_1_1_1_10_1_1_20_1_240",
        "X_2_1_1_1_1_1_32_1_1_21_1_240",
        "X_2_1_1_1_1_1_11_1_1_22_1_240",
        "X_2_1_1_1_1_1_33_1_1_23_1_240",
        "X_2_1_1_1_1_1_12_1_1_24_1_240",
        "X_2_1_1_1_1_1_34_1_1_25_1_240",
        "X_2_1_1_1_1_1_13_1_1_26_1_240",
        "X_2_1_1_1_1_1_35_1_1_27_1_240",
        "X_2_1_1_1_1_1_14_1_1_28_1_240",
        "X_2_1_1_1_1_1_36_1_1_29_1_240",
        "X_2_1_1_1_1_1_15_1_1_30_1_240",
        "X_2_1_1_1_1_1_37_1_1_31_1_240",
        "X_2_1_1_1_1_1_16_1_1_32_1_240",
        "X_2_1_1_1_1_1_38_1_1_33_1_240",
        "X_2_1_1_1_1_1_17_1_1_34_1_240",
        "X_2_1_1_1_1_1_39_1_1_35_1_240",
        "X_2_1_1_1_1_1_18_1_1_36_1_240",
        "X_2_1_1_1_1_1_40_1_1_37_1_240",
        "X_2_1_1_1_1_1_19_1_1_38_1_240",
        "X_2_1_1_1_1_1_41_1_1_39_1_240",
        "X_2_1_1_1_1_1_20_1_1_40_1_240",
        "X_2_1_1_1_1_1_42_1_1_41_1_240",
        "X_2_1_1_1_1_1_21_1_1_42_1_240"
      ],
      "CsaImage.ProtocolSliceNumber": [
        0,
        1,
        2,
        3,
        4,
        5,
        6,
        7,
        8,
        9,
        10,
        11,
        12,
        13,
        14,
        15,
        16,
        17,
        18,
        19,
        20,
        21,
        22,
        23,
        24,
        25,
        26,
        27,
        28,
        29,
        30,
        31,
        32,
        33,
        34,
        35,
        36,
        37,
        38,
        39,
        40,
        41
      ],
      "CsaImage.SlicePosition_PCS": [
        [
          -106.8477851,
          -114.20062467,
          -29.834236
        ],
        [
          -107.00493853,
          -113.95389387,
          -26.84853348
        ],
        [
          -107.16209199,
          -113.70716402,
          -23.86282906
        ],
        [
          -107.31924545,
          -113.46043321,
          -20.87712654
        ],
        [
          -107.4763989,
          -113.21370241,
          -17.89142212
        ],
        [
          -107.63355235,
          -112.9669716,
          -14.9057177
        ],
        [
          -107.7907058,
          -112.72024175,
          -11.92001423
        ],
        [
          -107.94785925,
          -112.47351095,
          -8.93431076
        ],
        [
          -108.1050127,
          -112.22678014,
          -5.94860729
        ],
        [
          -108.26216619,
          -111.98004934,
          -2.96290335
        ],
        [
          -108.41931962,
          -111.73331854,
          0.02280036
        ],
        [
          -108.57647304,
          -111.48658868,
          3.00850414
        ],
        [
          -108.73362647,
          -111.23985788,
          5.99420777
        ],
        [
          -108.89077996,
          -110.99312708,
          8.97991148
        ],
        [
          -109.04793345,
          -110.74639627,
          11.96561542
        ],
        [
          -109.20508681,
          -110.49966642,
          14.95131889
        ],
        [
          -109.3622403,
          -110.25293562,
          17.93702236
        ],
        [
          -109.51939379,
          -110.00620481,
          20.92272583
        ],
        [
          -109.67654716,
          -109.75947448,
          23.90843025
        ],
        [
          -109.83370076,
          -109.51274368,
          26.89413467
        ],
        [
          -109.99085413,
          -109.26601288,
          29.87983719
        ],
        [
          -110.1480075,
          -109.01928255,
          32.86554161
        ],
        [
          -110.30516111,
          -108.77255174,
          35.85124603
        ],
        [
          -110.46231447,
          -108.52582142,
          38.83694854
        ],
        [
          -110.61946784,
          -108.27909061,
          41.82265106
        ],
        [
          -110.77662145,
          -108.03236028,
          44.80835739
        ],
        [
          -110.93377482,
          -107.78562948,
          47.7940599
        ],
        [
          -111.09092818,
          -107.53889915,
          50.77976242
        ],
        [
          -111.24808179,
          -107.29216835,
          53.76546875
        ],
        [
          -111.40523516,
          -107.04543802,
          56.75117126
        ],
        [
          -111.56238877,
          -106.79870721,
          59.73687378
        ],
        [
          -111.71954189,
          -106.55197689,
          62.72258011
        ],
        [
          -111.8766955,
          -106.30524608,
          65.70828262
        ],
        [
          -112.03384911,
          -106.05851552,
          68.69398514
        ],
        [
          -112.19100224,
          -105.81178495,
          71.67968765
        ],
        [
          -112.34815584,
          -105.56505438,
          74.66539016
        ],
        [
          -112.50530945,
          -105.31832382,
          77.65110031
        ],
        [
          -112.66246258,
          -105.07159325,
          80.63680282
        ],
        [
          -112.81961619,
          -104.82486245,
          83.62250534
        ],
        [
          -112.97676979,
          -104.57813188,
          86.60820785
        ],
        [
          -113.1339234,
          -104.33140132,
          89.59391037
        ],
        [
          -113.29107653,
          -104.08467075,
          92.57961288
        ]
      ],
      "CsaImage.TimeAfterStart": [
        0.7825,
        0.5225,
        0.795,
        0.535,
        0.8075,
        0.5475,
        0.82,
        0.56,
        0.8325,
        0.5725,
        0.845,
        0.585,
        0.8575,
        0.5975,
        0.87,
        0.61,
        0.8825,
        0.6225,
        0.895,
        0.635,
        0.9075,
        0.6475,
        0.92,
        0.66,
        0.9325,
        0.6725,
        0.9425,
        0.6825,
        0.955,
        0.695,
        0.9675,
        0.7075,
        0.98,
        0.72,
        0.9925,
        0.7325,
        1.005,
        0.745,
        1.0175,
        0.7575,
        1.03,
        0.77
      ],
      "ImagePositionPatient": [
        [
          -106.84778510291,
          -114.20062467253,
          -29.834235995226
        ],
        [
          -107.00493853051,
          -113.95389386808,
          -26.848533480578
        ],
        [
          -107.16209198791,
          -113.70716401731,
          -23.862829058581
        ],
        [
          -107.31924544531,
          -113.46043321287,
          -20.877126543932
        ],
        [
          -107.47639890272,
          -113.21370240843,
          -17.891422121935
        ],
        [
          -107.63355235267,
          -112.96697160398,
          -14.905717699938
        ],
        [
          -107.79070580262,
          -112.72024175322,
          -11.920014231616
        ],
        [
          -107.94785924512,
          -112.47351094877,
          -8.9343107632928
        ],
        [
          -108.10501270253,
          -112.22678014433,
          -5.9486072949701
        ],
        [
          -108.26216618973,
          -111.98004933989,
          -2.9629033498102
        ],
        [
          -108.41931961733,
          -111.73331853544,
          0.02280035693117
        ],
        [
          -108.57647304493,
          -111.48658868467,
          3.0085041381783
        ],
        [
          -108.73362647253,
          -111.23985788023,
          5.9942077704138
        ],
        [
          -108.89077995974,
          -110.99312707579,
          8.9799114771552
        ],
        [
          -109.04793344695,
          -110.74639627134,
          11.965615422315
        ],
        [
          -109.20508681494,
          -110.49966642057,
          14.951318890638
        ],
        [
          -109.36224030215,
          -110.25293561613,
          17.937022358961
        ],
        [
          -109.51939378935,
          -110.00620481169,
          20.922725827283
        ],
        [
          -109.67654715735,
          -109.75947448408,
          23.90843024928
        ],
        [
          -109.83370076376,
          -109.51274367964,
          26.894134671277
        ],
        [
          -109.99085413176,
          -109.26601287519,
          29.879837185926
        ],
        [
          -110.14800749976,
          -109.01928254759,
          32.865541607923
        ],
        [
          -110.30516110617,
          -108.77255174314,
          35.85124602992
        ],
        [
          -110.46231447417,
          -108.52582141554,
          38.836948544569
        ],
        [
          -110.61946784216,
          -108.2790906111,
          41.822651059217
        ],
        [
          -110.77662144858,
          -108.03236028349,
          44.808357388563
        ],
        [
          -110.93377481657,
          -107.78562947905,
          47.794059903211
        ],
        [
          -111.09092818457,
          -107.53889915144,
          50.77976241786
        ],
        [
          -111.24808179099,
          -107.292168347,
          53.765468747205
        ],
        [
          -111.40523515898,
          -107.04543801939,
          56.751171261854
        ],
        [
          -111.5623887654,
          -106.79870721495,
          59.736873776502
        ],
        [
          -111.71954189497,
          -106.55197688734,
          62.722580105848
        ],
        [
          -111.87669550139,
          -106.3052460829,
          65.708282620496
        ],
        [
          -112.0338491078,
          -106.05851551687,
          68.693985135145
        ],
        [
          -112.19100223738,
          -105.81178495085,
          71.679687649793
        ],
        [
          -112.3481558438,
          -105.56505438482,
          74.665390164442
        ],
        [
          -112.50530945021,
          -105.3183238188,
          77.651100308485
        ],
        [
          -112.66246257979,
          -105.07159325277,
          80.636802823133
        ],
        [
          -112.8196161862,
          -104.82486244833,
          83.622505337781
        ],
        [
          -112.97676979262,
          -104.5781318823,
          86.60820785243
        ],
        [
          -113.13392339903,
          -104.33140131628,
          89.593910367078
        ],
        [
          -113.29107652861,
          -104.08467075026,
          92.579612881727
        ]
      ],
      "InstanceCreationTime": [
        "193921.938000",
        "193921.884000",
        "193921.940000",
        "193921.886000",
        "193921.942000",
        "193921.888000",
        "193921.944000",
        "193921.890000",
        "193921.946000",
        "193921.892000",
        "193921.949000",
        "193921.895000",
        "193921.951000",
        "193921.897000",
        "193921.953000",
        "193921.899000",
        "193921.955000",
        "193921.901000",
        "193921.957000",
        "193921.903000",
        "193921.959000",
        "193921.914000",
        "193921.961000",
        "193921.917000",
        "193921.963000",
        "193921.919000",
        "193921.966000",
        "193921.921000",
        "193921.968000",
        "193921.923000",
        "193921.970000",
        "193921.925000",
        "193921.972000",
        "193921.927000",
        "193921.974000",
        "193921.929000",
        "193921.976000",
        "193921.932000",
        "193921.978000",
        "193921.934000",
        "193921.980000",
        "193921.936000"
      ],
      "InstanceNumber": [
        1,
        2,
        3,
        4,
        5,
        6,
        7,
        8,
        9,
        10,
        11,
        12,
        13,
        14,
        15,
        16,
        17,
        18,
        19,
        20,
        21,
        22,
        23,
        24,
        25,
        26,
        27,
        28,
        29,
        30,
        31,
        32,
        33,
        34,
        35,
        36,
        37,
        38,
        39,
        40,
        41,
        42
      ],
      "LargestImagePixelValue": [
        4085,
        4095,
        4093,
        4091,
        4091,
        4092,
        4075,
        4085,
        4094,
        4089,
        4092,
        4068,
        4090,
        4043,
        4093,
        4067,
        4081,
        4090,
        4089,
        4075,
        4078,
        4087,
        4092,
        4083,
        4095,
        4089,
        4094,
        4080,
        4092,
        4088,
        4093,
        4094,
        4081,
        4094,
        4095,
        4093,
        4095,
        4095,
        4095,
        4095,
        4094,
        4094
      ],
      "SliceLocation": [
        -33.487159478167,
        -30.487160678893,
        -27.487160058232,
        -24.487161257397,
        -21.487160558302,
        -18.487159859598,
        -15.487160188457,
        -12.487160439273,
        -9.4871606893078,
        -6.4871604632169,
        -3.4871604775307,
        -0.4871604961274,
        2.512839415408,
        5.5128394042165,
        8.5128396303074,
        11.512839297155,
        14.512839048681,
        17.512838800207,
        20.512839455402,
        23.512840162302,
        26.512838958454,
        29.512839613648,
        32.512840320549,
        35.512839077483,
        38.512837873635,
        41.512840439578,
        44.51283923573,
        47.512837992665,
        50.512840597825,
        53.51283935476,
        56.512838163401,
        59.512840704365,
        62.512839513006,
        65.512838302039,
        68.512837066093,
        71.512835855125,
        74.512842237195,
        77.512841001249,
        80.51283980989,
        83.512838598923,
        86.512837387956,
        89.51283615201
      ],
      "SmallestImagePixelValue": [
        11,
        0,
        0,
        3,
        1,
        0,
        1,
        0,
        0,
        0,
        0,
        16,
        27,
        0,
        1,
        2,
        16,
        10,
        0,
        10,
        5,
        6,
        4,
        28,
        4,
        13,
        2,
        23,
        6,
        0,
        13,
        2,
        1,
        0,
        0,
        0,
        0,
        5,
        2,
        0,
        0,
        0
      ],
      "WindowCenter": [
        -184.0,
        -164.0,
        -208.0,
        -408.0,
        -376.0,
        -340.0,
        -298.0,
        -232.0,
        -40.0,
        -20.0,
        -66.0,
        -190.0,
        -304.0,
        -294.0,
        -234.0,
        -224.0,
        -208.0,
        -210.0,
        -190.0,
        -222.0,
        -208.0,
        -194.0,
        -184.0,
        -156.0,
        -176.0,
        -162.0,
        -230.0,
        -302.0,
        -292.0,
        -262.0,
        -246.0,
        -240.0,
        -266.0,
        -136.0,
        -178.0,
        -192.0,
        -226.0,
        -292.0,
        -240.0,
        -306.0,
        -286.0,
        -328.0
      ],
      "WindowWidth": [
        5648.0,
        5750.0,
        5640.0,
        4828.0,
        4742.0,
        4670.0,
        4638.0,
        4632.0,
        5412.0,
        5420.0,
        5378.0,
        5120.0,
        4572.0,
        4584.0,
        4526.0,
        4522.0,
        4480.0,
        4500.0,
        4438.0,
        4462.0,
        4430.0,
        4422.0,
        4440.0,
        4432.0,
        4478.0,
        4482.0,
        4526.0,
        4588.0,
        4604.0,
        4634.0,
        4644.0,
        4692.0,
        4740.0,
        5466.0,
        5594.0,
        5894.0,
        6070.0,
        6232.0,
        6288.0,
        6348.0,
        6336.0,
        6400.0
      ]
    }
  }
}