{
  "AcquisitionMatrixPE": 72,
  "AcquisitionNumber": 1,
  "AcquisitionTime": "17:00:52.070000",
  "BandwidthPerPixelPhaseEncode": 17.943,
  "BaseResolution": 96,
  "BodyPartExamined": "BRAIN",
  "CoilCombinationMethod": "Sum of Squares",
  "ConsistencyInfo": "N4_VE11C_LATEST_20160120",
  "ConversionSoftware": "dcm2niix",
  "ConversionSoftwareVersion": "v1.0.20211006",
  "DerivedVendorReportedEchoSpacing": 0.000552897,
  "DeviceSerialNumber": "166011",
  "EchoTime": 0.03,
  "EchoTrainLength": 58,
  "EffectiveEchoSpacing": 0.000580542,
  "FlipAngle": 62,
  "ImageOrientationPatientDICOM": [0.99997, -0.00770501, -0.000243909, 0.00767939, 0.998412, -0.0558044],
  "ImageType": [
    "ORIGINAL",
    "PRIMARY",
    "M",
    "ND",
    "MOSAIC"
],
  "ImagingFrequency": 123.259,
  "InPlanePhaseEncodingDirectionDICOM": "COL",
  "InstitutionAddress": "West 130th Street 610,NY,NYC,US,10025",
  "InstitutionName": "MBBI",
  "MRAcquisitionType": "2D",
  "MagneticFieldStrength": 3,
  "Manufacturer": "Siemens",
  "ManufacturersModelName": "Prisma",
  "Modality": "MR",
  "MultibandAccelerationFactor": 3,
  "PartialFourier": 0.75,
  "PatientPosition": "HFS",
  "PercentPhaseFOV": 100,
  "PercentSampling": 75,
  "PhaseEncodingDirection": "j-",
  "PhaseEncodingSteps": 58,
  "PhaseOversampling": 0.05,
  "PhaseResolution": 0.75,
  "PixelBandwidth": 2265,
  "ProcedureStepDescription": "White^Word_recognition",
  "ProtocolName": "func_vwfate_run7",
  "PulseSequenceDetails": "%SiemensSeq%\\ep2d_bold",
  "ReceiveCoilActiveElements": "HC1-7",
  "ReceiveCoilName": "HeadNeck_64",
  "ReconMatrixPE": 96,
  "RefLinesPE": 40,
  "RepetitionTime": 1.5,
  "SAR": 0.0439749,
  "ScanOptions": "PFP\\FS",
  "ScanningSequence": "EP",
  "SequenceName": "*epfid2d1_72",
  "SequenceVariant": "SK\\OSP",
  "SeriesDescription": "func_vwfate_run7",
  "SeriesNumber": 8,
  "ShimSetting": [-1151, -1371, 690, 634, -94, -39, 112, 3],
  "SliceThickness": 2,
  "SliceTiming": [1.075, 0, 0.74, 0.065, 0.805, 0.1325, 0.8725, 0.2, 0.94, 0.2675, 1.0075, 0.4025, 1.1425, 0.47, 1.21, 0.5375, 1.2775, 0.605, 1.345, 0.6725, 1.4125, 0.335, 1.075, 0, 0.74, 0.065, 0.805, 0.1325, 0.8725, 0.2, 0.94, 0.2675, 1.0075, 0.4025, 1.1425, 0.47, 1.21, 0.5375, 1.2775, 0.605, 1.345, 0.6725, 1.4125, 0.335, 1.075, 0, 0.74, 0.065, 0.805, 0.1325, 0.8725, 0.2, 0.94, 0.2675, 1.0075, 0.4025, 1.1425, 0.47, 1.21, 0.5375, 1.2775, 0.605, 1.345, 0.6725, 1.4125, 0.335],
  "SoftwareVersions": "syngo MR E11",
  "SpacingBetweenSlices": 2,
  "StationName": "AWP166011",
  "TaskName": "vwfate",
  "TotalReadoutTime": 0.0551515,
  "TxRefAmp": 227.963,
  "dcmmeta_affine": [
    [-1.9999405145645142, 0.01535878423601389, -0.0013469904661178589, 97.68870544433594],
    [0.015410018153488636, 1.9968243837356567, -0.11160174012184143, -66.99475860595703],
    [-0.00048781814984977245, 0.11160880327224731, 1.9968833923339844, -66.02440643310547],
    [0.0, 0.0, 0.0, 1.0]
],
  "dcmmeta_reorient_transform": [
    [0.0, -1.0, 0.0, 95.0],
    [1.0, 0.0, 0.0, 0.0],
    [0.0, 0.0, 1.0, 0.0],
    [0.0, 0.0, 0.0, 1.0]
],
  "dcmmeta_shape": [96, 96, 66, 164],
  "dcmmeta_slice_dim": 2,
  "dcmmeta_version": 0.6,
  "global": {
    "const": {
      "AcquisitionMatrix": [96, 0, 0, 72],
      "AngioFlag": "N",
      "BitsAllocated": 16,
      "BitsStored": 12,
      "BodyPartExamined": "BRAIN",
      "Columns": 864,
      "EchoNumbers": 1,
      "EchoTime": 30.0,
      "EchoTrainLength": 58,
      "FlipAngle": 62.0,
      "HighBit": 11,
      "ImageOrientationPatient": [0.99997028622949, -0.0077050091802, -0.0002439090779, 0.00767939205089, 0.99841218717462, -0.0558044034008],
      "ImagePositionPatient": [-873.02273961199, -883.56666867258, -12.376465965232],
      "ImageType": [
        "ORIGINAL",
        "PRIMARY",
        "M",
        "ND",
        "MOSAIC"
],
      "ImagedNucleus": "1H",
      "ImagingFrequency": 123.259058,
      "InPlanePhaseEncodingDirection": "COL",
      "MRAcquisitionType": "2D",
      "MagneticFieldStrength": 3.0,
      "Manufacturer": "SIEMENS",
      "ManufacturerModelName": "Prisma",
      "Modality": "MR",
      "NumberOfAverages": 1.0,
      "NumberOfPhaseEncodingSteps": 58,
      "PercentPhaseFieldOfView": 100.0,
      "PercentSampling": 75.0,
      "PerformedProcedureStepStartTime": "162628.253000",
      "PhotometricInterpretation": "MONOCHROME2",
      "PixelBandwidth": 2265.0,
      "PixelRepresentation": 0,
      "PixelSpacing": [2.0, 2.0],
      "ProtocolName": "func_vwfate_run7",
      "RepetitionTime": 1500.0,
      "Rows": 864,
      "SAR": 0.0439748749872,
      "SamplesPerPixel": 1,
      "ScanOptions": [
        "PFP",
        "FS"
],
      "ScanningSequence": "EP",
      "SequenceName": "*epfid2d1_72",
      "SequenceVariant": [
        "SK",
        "OSP"
],
      "SeriesDescription": "func_vwfate_run7",
      "SeriesNumber": 8,
      "SeriesTime": "170123.098000",
      "SliceLocation": -62.248946986132,
      "SliceThickness": 2.0,
      "SmallestImagePixelValue": 0,
      "SoftwareVersions": "syngo MR E11",
      "SpacingBetweenSlices": 1.9999999520028,
      "SpecificCharacterSet": "ISO_IR 100",
      "StudyID": "2",
      "StudyTime": "162628.179000",
      "TransmitCoilName": "Body",
      "VariableFlipAngleFlag": "N",
      "WindowCenterWidthExplanation": "Algo1",
      "dBdt": 0.0},
    "slices": {}
  },
  "time": {
    "samples": {
      "AcquisitionNumber": [1, 2, 3, 4, 5, 6, 7, 8, 9, 10, 11, 12, 13, 14, 15, 16, 17, 18, 19, 20, 21, 22, 23, 24, 25, 26, 27, 28, 29, 30, 31, 32, 33, 34, 35, 36, 37, 38, 39, 40, 41, 42, 43, 44, 45, 46, 47, 48, 49, 50, 51, 52, 53, 54, 55, 56, 57, 58, 59, 60, 61, 62, 63, 64, 65, 66, 67, 68, 69, 70, 71, 72, 73, 74, 75, 76, 77, 78, 79, 80, 81, 82, 83, 84, 85, 86, 87, 88, 89, 90, 91, 92, 93, 94, 95, 96, 97, 98, 99, 100, 101, 102, 103, 104, 105, 106, 107, 108, 109, 110, 111, 112, 113, 114, 115, 116, 117, 118, 119, 120, 121, 122, 123, 124, 125, 126, 127, 128, 129, 130, 131, 132, 133, 134, 135, 136, 137, 138, 139, 140, 141, 142, 143, 144, 145, 146, 147, 148, 149, 150, 151, 152, 153, 154, 155, 156, 157, 158, 159, 160, 161, 162, 163, 164],
      "AcquisitionTime": ["170052.070000", "170053.570000", "170055.070000", "170056.570000", "170058.070000", "170059.570000", "170101.070000", "170102.570000", "170104.070000", "170105.570000", "170107.070000", "170108.570000", "170110.070000", "170111.570000", "170113.070000", "170114.570000", "170116.070000", "170117.570000", "170119.070000", "170120.570000", "170122.070000", "170123.570000", "170125.070000", "170126.570000", "170128.070000", "170129.570000", "170131.070000", "170132.570000", "170134.070000", "170135.570000", "170137.070000", "170138.570000", "170140.070000", "170141.570000", "170143.070000", "170144.570000", "170146.070000", "170147.570000", "170149.070000", "170150.570000", "170152.070000", "170153.570000", "170155.070000", "170156.570000", "170158.070000", "170159.570000", "170201.070000", "170202.570000", "170204.070000", "170205.570000", "170207.070000", "170208.570000", "170210.070000", "170211.570000", "170213.070000", "170214.570000", "170216.070000", "170217.570000", "170219.070000", "170220.570000", "170222.070000", "170223.570000", "170225.070000", "170226.570000", "170228.070000", "170229.570000", "170231.070000", "170232.570000", "170234.070000", "170235.570000", "170237.070000", "170238.570000", "170240.070000", "170241.570000", "170243.070000", "170244.570000", "170246.070000", "170247.570000", "170249.070000", "170250.570000", "170252.070000", "170253.570000", "170255.070000", "170256.570000", "170258.070000", "170259.570000", "170301.070000", "170302.570000", "170304.070000", "170305.570000", "170307.070000", "170308.570000", "170310.070000", "170311.570000", "170313.070000", "170314.570000", "170316.070000", "170317.570000", "170319.070000", "170320.570000", "170322.070000", "170323.570000", "170325.070000", "170326.570000", "170328.070000", "170329.570000", "170331.070000", "170332.570000", "170334.070000", "170335.570000", "170337.070000", "170338.570000", "170340.070000", "170341.570000", "170343.070000", "170344.570000", "170346.070000", "170347.570000", "170349.070000", "170350.570000", "170352.070000", "170353.570000", "170355.070000", "170356.570000", "170358.070000", "170359.570000", "170401.070000", "170402.570000", "170404.070000", "170405.570000", "170407.070000", "170408.570000", "170410.070000", "170411.570000", "170413.070000", "170414.570000", "170416.070000", "170417.570000", "170419.070000", "170420.570000", "170422.070000", "170423.570000", "170425.070000", "170426.570000", "170428.070000", "170429.570000", "170431.070000", "170432.570000", "170434.070000", "170435.570000", "170437.070000", "170438.570000", "170440.070000", "170441.570000", "170443.070000", "170444.570000", "170446.070000", "170447.570000", "170449.070000", "170450.570000", "170452.070000", "170453.570000", "170455.070000", "170456.570000"],
      "ContentTime": ["170123.101000", "170123.105000", "170123.108000", "170123.111000", "170123.114000", "170123.117000", "170123.121000", "170123.124000", "170123.133000", "170123.136000", "170123.140000", "170123.142000", "170123.151000", "170123.154000", "170123.157000", "170123.160000", "170123.163000", "170123.166000", "170123.169000", "170123.172000", "170123.175000", "170203.097000", "170203.100000", "170203.103000", "170203.106000", "170203.109000", "170203.112000", "170203.116000", "170203.130000", "170203.134000", "170203.136000", "170203.139000", "170203.142000", "170203.145000", "170203.148000", "170203.151000", "170203.154000", "170203.158000", "170203.161000", "170203.163000", "170203.166000", "170203.170000", "170203.173000", "170203.176000", "170203.178000", "170203.182000", "170203.185000", "170243.098000", "170243.101000", "170243.104000", "170243.107000", "170243.110000", "170243.113000", "170243.116000", "170243.119000", "170243.122000", "170243.125000", "170243.135000", "170243.138000", "170243.141000", "170243.144000", "170243.147000", "170243.150000", "170243.153000", "170243.156000", "170243.159000", "170243.161000", "170243.165000", "170243.168000", "170243.171000", "170243.174000", "170243.177000", "170243.180000", "170243.183000", "170323.098000", "170323.101000", "170323.104000", "170323.107000", "170323.110000", "170323.113000", "170323.116000", "170323.119000", "170323.122000", "170323.125000", "170323.135000", "170323.156000", "170323.159000", "170323.161000", "170323.164000", "170323.168000", "170323.170000", "170323.173000", "170323.176000", "170323.179000", "170323.182000", "170323.185000", "170323.188000", "170323.191000", "170323.194000", "170323.197000", "170323.200000", "170403.097000", "170403.100000", "170403.103000", "170403.106000", "170403.109000", "170403.112000", "170403.116000", "170403.119000", "170403.123000", "170403.126000", "170403.128000", "170403.131000", "170403.135000", "170403.137000", "170403.140000", "170403.143000", "170403.146000", "170403.149000", "170403.152000", "170403.163000", "170403.166000", "170403.169000", "170403.172000", "170403.175000", "170403.178000", "170403.181000", "170443.098000", "170443.101000", "170443.104000", "170443.107000", "170443.110000", "170443.113000", "170443.116000", "170443.119000", "170443.122000", "170443.125000", "170443.128000", "170443.131000", "170443.134000", "170443.137000", "170443.140000", "170443.143000", "170443.146000", "170443.149000", "170443.152000", "170443.155000", "170443.158000", "170443.161000", "170443.164000", "170443.167000", "170443.171000", "170443.174000", "170443.177000", "170457.384000", "170457.388000", "170457.391000", "170457.394000", "170457.397000", "170457.401000", "170457.404000", "170457.407000", "170457.410000", "170457.413000"],
      "InstanceCreationTime": ["170123.101000", "170123.105000", "170123.108000", "170123.111000", "170123.114000", "170123.117000", "170123.121000", "170123.124000", "170123.133000", "170123.136000", "170123.140000", "170123.142000", "170123.151000", "170123.154000", "170123.157000", "170123.160000", "170123.163000", "170123.166000", "170123.169000", "170123.172000", "170123.175000", "170203.097000", "170203.100000", "170203.103000", "170203.106000", "170203.109000", "170203.112000", "170203.116000", "170203.130000", "170203.134000", "170203.136000", "170203.139000", "170203.142000", "170203.145000", "170203.148000", "170203.151000", "170203.154000", "170203.158000", "170203.161000", "170203.163000", "170203.166000", "170203.170000", "170203.173000", "170203.176000", "170203.178000", "170203.182000", "170203.185000", "170243.098000", "170243.101000", "170243.104000", "170243.107000", "170243.110000", "170243.113000", "170243.116000", "170243.119000", "170243.122000", "170243.125000", "170243.135000", "170243.138000", "170243.141000", "170243.144000", "170243.147000", "170243.150000", "170243.153000", "170243.156000", "170243.159000", "170243.161000", "170243.165000", "170243.168000", "170243.171000", "170243.174000", "170243.177000", "170243.180000", "170243.183000", "170323.098000", "170323.101000", "170323.104000", "170323.107000", "170323.110000", "170323.113000", "170323.116000", "170323.119000", "170323.122000", "170323.125000", "170323.135000", "170323.156000", "170323.159000", "170323.161000", "170323.164000", "170323.168000", "170323.170000", "170323.173000", "170323.176000", "170323.179000", "170323.182000", "170323.185000", "170323.188000", "170323.191000", "170323.194000", "170323.197000", "170323.200000", "170403.097000", "170403.100000", "170403.103000", "170403.106000", "170403.109000", "170403.112000", "170403.116000", "170403.119000", "170403.123000", "170403.126000", "170403.128000", "170403.131000", "170403.135000", "170403.137000", "170403.140000", "170403.143000", "170403.146000", "170403.149000", "170403.152000", "170403.163000", "170403.166000", "170403.169000", "170403.172000", "170403.175000", "170403.178000", "170403.181000", "170443.098000", "170443.101000", "170443.104000", "170443.107000", "170443.110000", "170443.113000", "170443.116000", "170443.119000", "170443.122000", "170443.125000", "170443.128000", "170443.131000", "170443.134000", "170443.137000", "170443.140000", "170443.143000", "170443.146000", "170443.149000", "170443.152000", "170443.155000", "170443.158000", "170443.161000", "170443.164000", "170443.167000", "170443.171000", "170443.174000", "170443.177000", "170457.384000", "170457.388000", "170457.391000", "170457.394000", "170457.397000", "170457.401000", "170457.404000", "170457.407000", "170457.410000", "170457.413000"],
      "InstanceNumber": [1, 2, 3, 4, 5, 6, 7, 8, 9, 10, 11, 12, 13, 14, 15, 16, 17, 18, 19, 20, 21, 22, 23, 24, 25, 26, 27, 28, 29, 30, 31, 32, 33, 34, 35, 36, 37, 38, 39, 40, 41, 42, 43, 44, 45, 46, 47, 48, 49, 50, 51, 52, 53, 54, 55, 56, 57, 58, 59, 60, 61, 62, 63, 64, 65, 66, 67, 68, 69, 70, 71, 72, 73, 74, 75, 76, 77, 78, 79, 80, 81, 82, 83, 84, 85, 86, 87, 88, 89, 90, 91, 92, 93, 94, 95, 96, 97, 98, 99, 100, 101, 102, 103, 104, 105, 106, 107, 108, 109, 110, 111, 112, 113, 114, 115, 116, 117, 118, 119, 120, 121, 122, 123, 124, 125, 126, 127, 128, 129, 130, 131, 132, 133, 134, 135, 136, 137, 138, 139, 140, 141, 142, 143, 144, 145, 146, 147, 148, 149, 150, 151, 152, 153, 154, 155, 156, 157, 158, 159, 160, 161, 162, 163, 164],
      "LargestImagePixelValue": [2502, 2472, 2436, 2439, 2445, 2440, 2434, 2428, 2445, 2423, 2465, 2453, 2439, 2404, 2393, 2391, 2401, 2400, 2416, 2408, 2343, 2404, 2404, 2390, 2413, 2399, 2429, 2425, 2400, 2414, 2420, 2426, 2390, 2419, 2435, 2399, 2416, 2416, 2417, 2398, 2439, 2435, 2438, 2371, 2417, 2402, 2437, 2400, 2402, 2438, 2374, 2374, 2464, 2352, 2485, 2388, 2462, 2394, 2481, 2422, 2486, 2435, 2460, 2423, 2527, 2461, 2496, 2467, 2461, 2432, 2457, 2491, 2478, 2436, 2429, 2405, 2421, 2459, 2467, 2449, 2487, 2436, 2513, 2459, 2535, 2480, 2488, 2448, 2466, 2532, 2522, 2477, 2545, 2492, 2553, 2488, 2570, 2561, 2502, 2590, 2529, 2609, 2541, 2571, 2548, 2583, 2509, 2569, 2517, 2621, 2520, 2639, 2586, 2638, 2545, 2635, 2562, 2638, 2538, 2643, 2564, 2616, 2593, 2578, 2564, 2557, 2550, 2561, 2517, 2566, 2482, 2601, 2507, 2620, 2538, 2596, 2510, 2630, 2512, 2580, 2512, 2594, 2516, 2557, 2499, 2562, 2521, 2588, 2527, 2585, 2499, 2613, 2522, 2582, 2495, 2581, 2465, 2534, 2541, 2514, 2504, 2544, 2522, 2540],
      "WindowCenter": [719.0, 717.0, 717.0, 717.0, 717.0, 717.0, 717.0, 717.0, 717.0, 717.0, 718.0, 717.0, 717.0, 717.0, 717.0, 717.0, 717.0, 717.0, 716.0, 715.0, 714.0, 715.0, 715.0, 714.0, 714.0, 715.0, 715.0, 715.0, 715.0, 715.0, 715.0, 715.0, 715.0, 715.0, 715.0, 714.0, 714.0, 714.0, 714.0, 714.0, 715.0, 716.0, 716.0, 716.0, 716.0, 716.0, 716.0, 716.0, 715.0, 716.0, 716.0, 716.0, 717.0, 717.0, 717.0, 716.0, 715.0, 715.0, 715.0, 715.0, 716.0, 716.0, 716.0, 716.0, 717.0, 716.0, 717.0, 716.0, 717.0, 716.0, 716.0, 716.0, 715.0, 714.0, 713.0, 713.0, 714.0, 715.0, 715.0, 715.0, 715.0, 715.0, 716.0, 715.0, 717.0, 715.0, 716.0, 716.0, 716.0, 717.0, 716.0, 715.0, 714.0, 714.0, 714.0, 714.0, 715.0, 715.0, 715.0, 716.0, 716.0, 717.0, 717.0, 717.0, 717.0, 718.0, 718.0, 718.0, 717.0, 717.0, 717.0, 717.0, 717.0, 718.0, 717.0, 718.0, 717.0, 717.0, 716.0, 717.0, 716.0, 717.0, 717.0, 716.0, 715.0, 715.0, 715.0, 716.0, 716.0, 716.0, 715.0, 716.0, 716.0, 717.0, 717.0, 717.0, 716.0, 718.0, 717.0, 717.0, 717.0, 717.0, 716.0, 716.0, 715.0, 715.0, 716.0, 716.0, 715.0, 716.0, 715.0, 716.0, 716.0, 716.0, 717.0, 716.0, 716.0, 717.0, 716.0, 716.0, 714.0, 715.0, 715.0, 716.0],
      "WindowWidth": [1555.0, 1549.0, 1547.0, 1548.0, 1549.0, 1548.0, 1548.0, 1548.0, 1549.0, 1548.0, 1550.0, 1549.0, 1549.0, 1547.0, 1548.0, 1548.0, 1547.0, 1547.0, 1546.0, 1543.0, 1541.0, 1542.0, 1542.0, 1541.0, 1541.0, 1542.0, 1544.0, 1544.0, 1543.0, 1543.0, 1544.0, 1544.0, 1543.0, 1543.0, 1542.0, 1541.0, 1541.0, 1541.0, 1541.0, 1541.0, 1543.0, 1545.0, 1546.0, 1545.0, 1547.0, 1546.0, 1547.0, 1545.0, 1544.0, 1545.0, 1545.0, 1546.0, 1549.0, 1548.0, 1548.0, 1545.0, 1543.0, 1542.0, 1543.0, 1542.0, 1545.0, 1546.0, 1546.0, 1546.0, 1549.0, 1546.0, 1547.0, 1545.0, 1547.0, 1546.0, 1545.0, 1544.0, 1541.0, 1540.0, 1537.0, 1538.0, 1539.0, 1541.0, 1542.0, 1543.0, 1543.0, 1543.0, 1545.0, 1542.0, 1547.0, 1543.0, 1545.0, 1545.0, 1545.0, 1547.0, 1545.0, 1542.0, 1541.0, 1539.0, 1541.0, 1539.0, 1542.0, 1542.0, 1543.0, 1545.0, 1545.0, 1547.0, 1547.0, 1548.0, 1549.0, 1551.0, 1550.0, 1551.0, 1549.0, 1548.0, 1547.0, 1549.0, 1549.0, 1550.0, 1547.0, 1551.0, 1547.0, 1547.0, 1544.0, 1547.0, 1546.0, 1547.0, 1547.0, 1545.0, 1543.0, 1542.0, 1542.0, 1544.0, 1545.0, 1545.0, 1544.0, 1546.0, 1545.0, 1548.0, 1547.0, 1548.0, 1547.0, 1550.0, 1547.0, 1549.0, 1548.0, 1548.0, 1546.0, 1545.0, 1542.0, 1544.0, 1544.0, 1545.0, 1544.0, 1545.0, 1542.0, 1546.0, 1545.0, 1547.0, 1547.0, 1547.0, 1545.0, 1547.0, 1546.0, 1544.0, 1541.0, 1542.0, 1544.0, 1546.0]
    },
    "slices": {}
  }
}