{
  "AcquisitionMatrixPE": 72,
  "AcquisitionNumber": 1,
  "AcquisitionTime": "08:31:20.250000",
  "BandwidthPerPixelPhaseEncode": 17.943,
  "BaseResolution": 96,
  "BodyPartExamined": "BRAIN",
  "CoilCombinationMethod": "Sum of Squares",
  "ConsistencyInfo": "N4_VE11C_LATEST_20160120",
  "ConversionSoftware": "dcm2niix",
  "ConversionSoftwareVersion": "v1.0.20211006",
  "DerivedVendorReportedEchoSpacing": 0.000552897,
  "DeviceSerialNumber": "166011",
  "DwellTime": 2.3e-06,
  "EchoTime": 0.03,
  "EchoTrainLength": 58,
  "EffectiveEchoSpacing": 0.000580542,
  "FlipAngle": 62,
  "ImageOrientationPatientDICOM": [0.999971, -0.0065392, 0.00391154, 0.00680666, 0.997323, -0.0728003],
  "ImageOrientationText": "Tra>Cor(-4.2)>Sag(0.2)",
  "ImageType": [
    "ORIGINAL",
    "PRIMARY",
    "M",
    "ND",
    "MOSAIC"
],
  "ImagingFrequency": 123.259,
  "InPlanePhaseEncodingDirectionDICOM": "COL",
  "InstitutionAddress": "West 130th Street 610,NY,NYC,US,10025",
  "InstitutionName": "MBBI",
  "InstitutionalDepartmentName": "Department",
  "MRAcquisitionType": "2D",
  "MagneticFieldStrength": 3,
  "Manufacturer": "Siemens",
  "ManufacturersModelName": "Prisma",
  "Modality": "MR",
  "MultibandAccelerationFactor": 3,
  "PartialFourier": 0.75,
  "PatientPosition": "HFS",
  "PercentPhaseFOV": 100,
  "PercentSampling": 75,
  "PhaseEncodingDirection": "j-",
  "PhaseEncodingSteps": 58,
  "PhaseOversampling": 0.05,
  "PhaseResolution": 0.75,
  "PixelBandwidth": 2265,
  "ProcedureStepDescription": "White^Word_recognition",
  "ProtocolName": "func_vwfate_run8",
  "PulseSequenceDetails": "%SiemensSeq%\\ep2d_bold",
  "ReceiveCoilActiveElements": "HC1-7",
  "ReceiveCoilName": "HeadNeck_64",
  "ReconMatrixPE": 96,
  "RefLinesPE": 40,
  "RepetitionTime": 1.5,
  "SAR": 0.0506928,
  "ScanOptions": "PFP\\FS",
  "ScanningSequence": "EP",
  "SequenceName": "*epfid2d1_72",
  "SequenceVariant": "SK\\OSP",
  "SeriesDescription": "func_vwfate_run8",
  "SeriesNumber": 9,
  "ShimSetting": [-1164, -1380, 676, 491, -111, -44, -31, -3],
  "SliceThickness": 2,
  "SliceTiming": [1.075, 0, 0.74, 0.065, 0.805, 0.1325, 0.8725, 0.2, 0.94, 0.2675, 1.0075, 0.4025, 1.1425, 0.47, 1.21, 0.5375, 1.2775, 0.605, 1.345, 0.6725, 1.4125, 0.335, 1.075, 0, 0.74, 0.065, 0.805, 0.1325, 0.8725, 0.2, 0.94, 0.2675, 1.0075, 0.4025, 1.1425, 0.47, 1.21, 0.5375, 1.2775, 0.605, 1.345, 0.6725, 1.4125, 0.335, 1.075, 0, 0.74, 0.065, 0.805, 0.1325, 0.8725, 0.2, 0.94, 0.2675, 1.0075, 0.4025, 1.1425, 0.47, 1.21, 0.5375, 1.2775, 0.605, 1.345, 0.6725, 1.4125, 0.335],
  "SoftwareVersions": "syngo MR E11",
  "SpacingBetweenSlices": 2,
  "StationName": "AWP166011",
  "TaskName": "vwfate",
  "TotalReadoutTime": 0.0551515,
  "TxRefAmp": 217.84,
  "dcmmeta_affine": [
    [-1.9999419450759888, 0.013613312505185604, 0.006850022356957197, 100.11261749267578],
    [0.013078401796519756, 1.994646668434143, -0.14564962685108185, -80.90928649902344],
    [0.007823074236512184, 0.1456006020307541, 1.9946776628494263, -43.19398880004883],
    [0.0, 0.0, 0.0, 1.0]
],
  "dcmmeta_reorient_transform": [
    [0.0, -1.0, 0.0, 95.0],
    [1.0, 0.0, 0.0, 0.0],
    [0.0, 0.0, 1.0, 0.0],
    [0.0, 0.0, 0.0, 1.0]
],
  "dcmmeta_shape": [96, 96, 66, 164],
  "dcmmeta_slice_dim": 2,
  "dcmmeta_version": 0.6,
  "global": {
    "const": {
      "AcquisitionMatrix": [96, 0, 0, 72],
      "AngioFlag": "N",
      "BitsAllocated": 16,
      "BitsStored": 12,
      "BodyPartExamined": "BRAIN",
      "Columns": 864,
      "EchoNumbers": 1,
      "EchoTime": 30.0,
      "EchoTrainLength": 58,
      "FlipAngle": 62.0,
      "HighBit": 11,
      "ImageOrientationPatient": [0.99997096894396, -0.0065392007578, 0.00391153713022, 0.00680665603668, 0.99732331038122, -0.0728003022236],
      "ImagePositionPatient": [-874.61109936373, -869.50433720785, 23.544638981845],
      "ImageType": [
        "ORIGINAL",
        "PRIMARY",
        "M",
        "ND",
        "MOSAIC"
],
      "ImagedNucleus": "1H",
      "ImagingFrequency": 123.259487,
      "InPlanePhaseEncodingDirection": "COL",
      "MRAcquisitionType": "2D",
      "MagneticFieldStrength": 3.0,
      "Manufacturer": "SIEMENS",
      "ManufacturerModelName": "Prisma",
      "Modality": "MR",
      "NumberOfAverages": 1.0,
      "NumberOfPhaseEncodingSteps": 58,
      "PercentPhaseFieldOfView": 100.0,
      "PercentSampling": 75.0,
      "PerformedProcedureStepStartTime": "075246.446000",
      "PhotometricInterpretation": "MONOCHROME2",
      "PixelBandwidth": 2265.0,
      "PixelRepresentation": 0,
      "PixelSpacing": [2.0, 2.0],
      "ProtocolName": "func_vwfate_run8",
      "RepetitionTime": 1500.0,
      "Rows": 864,
      "SAR": 0.05069280999839,
      "SamplesPerPixel": 1,
      "ScanOptions": [
        "PFP",
        "FS"
],
      "ScanningSequence": "EP",
      "SequenceName": "*epfid2d1_72",
      "SequenceVariant": [
        "SK",
        "OSP"
],
      "SeriesDescription": "func_vwfate_run8",
      "SeriesNumber": 9,
      "SeriesTime": "083159.003000",
      "SliceLocation": -36.843954443276,
      "SliceThickness": 2.0,
      "SmallestImagePixelValue": 0,
      "SoftwareVersions": "syngo MR E11",
      "SpacingBetweenSlices": 1.999999941407,
      "SpecificCharacterSet": "ISO_IR 100",
      "StudyID": "2",
      "StudyTime": "075246.375000",
      "TransmitCoilName": "Body",
      "VariableFlipAngleFlag": "N",
      "WindowCenterWidthExplanation": "Algo1",
      "dBdt": 0.0},
    "slices": {}
  },
  "time": {
    "samples": {
      "AcquisitionNumber": [1, 2, 3, 4, 5, 6, 7, 8, 9, 10, 11, 12, 13, 14, 15, 16, 17, 18, 19, 20, 21, 22, 23, 24, 25, 26, 27, 28, 29, 30, 31, 32, 33, 34, 35, 36, 37, 38, 39, 40, 41, 42, 43, 44, 45, 46, 47, 48, 49, 50, 51, 52, 53, 54, 55, 56, 57, 58, 59, 60, 61, 62, 63, 64, 65, 66, 67, 68, 69, 70, 71, 72, 73, 74, 75, 76, 77, 78, 79, 80, 81, 82, 83, 84, 85, 86, 87, 88, 89, 90, 91, 92, 93, 94, 95, 96, 97, 98, 99, 100, 101, 102, 103, 104, 105, 106, 107, 108, 109, 110, 111, 112, 113, 114, 115, 116, 117, 118, 119, 120, 121, 122, 123, 124, 125, 126, 127, 128, 129, 130, 131, 132, 133, 134, 135, 136, 137, 138, 139, 140, 141, 142, 143, 144, 145, 146, 147, 148, 149, 150, 151, 152, 153, 154, 155, 156, 157, 158, 159, 160, 161, 162, 163, 164],
      "AcquisitionTime": ["083120.250000", "083121.750000", "083123.250000", "083124.750000", "083126.250000", "083127.750000", "083129.250000", "083130.750000", "083132.250000", "083133.750000", "083135.250000", "083136.750000", "083138.250000", "083139.750000", "083141.250000", "083142.750000", "083144.250000", "083145.750000", "083147.250000", "083148.750000", "083150.250000", "083151.750000", "083153.250000", "083154.750000", "083156.250000", "083157.750000", "083159.250000", "083200.750000", "083202.250000", "083203.750000", "083205.250000", "083206.750000", "083208.250000", "083209.750000", "083211.250000", "083212.750000", "083214.250000", "083215.750000", "083217.250000", "083218.750000", "083220.250000", "083221.750000", "083223.250000", "083224.750000", "083226.250000", "083227.750000", "083229.250000", "083230.750000", "083232.250000", "083233.750000", "083235.250000", "083236.750000", "083238.250000", "083239.750000", "083241.250000", "083242.750000", "083244.250000", "083245.750000", "083247.250000", "083248.750000", "083250.250000", "083251.750000", "083253.250000", "083254.750000", "083256.250000", "083257.750000", "083259.250000", "083300.750000", "083302.250000", "083303.750000", "083305.250000", "083306.750000", "083308.250000", "083309.750000", "083311.250000", "083312.750000", "083314.250000", "083315.750000", "083317.250000", "083318.750000", "083320.250000", "083321.750000", "083323.250000", "083324.750000", "083326.250000", "083327.750000", "083329.250000", "083330.750000", "083332.250000", "083333.750000", "083335.250000", "083336.750000", "083338.250000", "083339.750000", "083341.250000", "083342.750000", "083344.250000", "083345.750000", "083347.250000", "083348.750000", "083350.250000", "083351.750000", "083353.250000", "083354.750000", "083356.250000", "083357.750000", "083359.250000", "083400.750000", "083402.250000", "083403.750000", "083405.250000", "083406.750000", "083408.250000", "083409.750000", "083411.250000", "083412.750000", "083414.250000", "083415.750000", "083417.250000", "083418.750000", "083420.250000", "083421.750000", "083423.250000", "083424.750000", "083426.250000", "083427.750000", "083429.250000", "083430.750000", "083432.250000", "083433.750000", "083435.250000", "083436.750000", "083438.250000", "083439.750000", "083441.250000", "083442.750000", "083444.250000", "083445.750000", "083447.250000", "083448.750000", "083450.250000", "083451.750000", "083453.250000", "083454.750000", "083456.250000", "083457.750000", "083459.250000", "083500.750000", "083502.250000", "083503.750000", "083505.250000", "083506.750000", "083508.250000", "083509.750000", "083511.250000", "083512.750000", "083514.250000", "083515.750000", "083517.250000", "083518.750000", "083520.250000", "083521.750000", "083523.250000", "083524.750000"],
      "ContentTime": ["083159.007000", "083159.011000", "083159.018000", "083159.021000", "083159.024000", "083159.027000", "083159.030000", "083159.033000", "083159.036000", "083159.039000", "083159.042000", "083159.045000", "083159.049000", "083159.052000", "083159.055000", "083159.064000", "083159.070000", "083159.073000", "083159.076000", "083159.079000", "083159.082000", "083159.085000", "083159.088000", "083159.091000", "083159.094000", "083239.002000", "083239.005000", "083239.008000", "083239.012000", "083239.015000", "083239.018000", "083239.021000", "083239.024000", "083239.027000", "083239.030000", "083239.033000", "083239.036000", "083239.056000", "083239.059000", "083239.062000", "083239.065000", "083239.073000", "083239.076000", "083239.078000", "083239.082000", "083239.085000", "083239.088000", "083239.091000", "083239.094000", "083239.097000", "083239.100000", "083239.103000", "083319.002000", "083319.005000", "083319.009000", "083319.012000", "083319.015000", "083319.018000", "083319.021000", "083319.024000", "083319.027000", "083319.030000", "083319.033000", "083319.036000", "083319.039000", "083319.042000", "083319.045000", "083319.048000", "083319.051000", "083319.054000", "083319.057000", "083319.060000", "083319.063000", "083319.070000", "083319.073000", "083319.076000", "083319.079000", "083319.082000", "083319.085000", "083359.002000", "083359.005000", "083359.008000", "083359.012000", "083359.015000", "083359.018000", "083359.021000", "083359.025000", "083359.038000", "083359.041000", "083359.044000", "083359.047000", "083359.050000", "083359.053000", "083359.056000", "083359.059000", "083359.062000", "083359.065000", "083359.068000", "083359.072000", "083359.075000", "083359.078000", "083359.081000", "083359.084000", "083359.087000", "083359.090000", "083439.002000", "083439.005000", "083439.008000", "083439.012000", "083439.015000", "083439.018000", "083439.021000", "083439.025000", "083439.028000", "083439.031000", "083439.034000", "083439.037000", "083439.040000", "083439.043000", "083439.046000", "083439.049000", "083439.052000", "083439.055000", "083439.058000", "083439.062000", "083439.064000", "083439.067000", "083439.071000", "083439.074000", "083439.077000", "083439.080000", "083439.083000", "083519.003000", "083519.006000", "083519.010000", "083519.013000", "083519.016000", "083519.033000", "083519.036000", "083519.039000", "083519.042000", "083519.045000", "083519.049000", "083519.052000", "083519.055000", "083519.058000", "083519.061000", "083519.064000", "083519.067000", "083519.070000", "083519.073000", "083519.076000", "083519.079000", "083519.082000", "083519.086000", "083519.089000", "083519.092000", "083519.095000", "083519.098000", "083526.255000", "083526.259000", "083526.262000", "083526.265000", "083526.269000"],
      "InstanceCreationTime": ["083159.007000", "083159.011000", "083159.018000", "083159.021000", "083159.024000", "083159.027000", "083159.030000", "083159.033000", "083159.036000", "083159.039000", "083159.042000", "083159.045000", "083159.049000", "083159.052000", "083159.055000", "083159.064000", "083159.070000", "083159.073000", "083159.076000", "083159.079000", "083159.082000", "083159.085000", "083159.088000", "083159.091000", "083159.094000", "083239.002000", "083239.005000", "083239.008000", "083239.012000", "083239.015000", "083239.018000", "083239.021000", "083239.024000", "083239.027000", "083239.030000", "083239.033000", "083239.036000", "083239.056000", "083239.059000", "083239.062000", "083239.065000", "083239.073000", "083239.076000", "083239.078000", "083239.082000", "083239.085000", "083239.088000", "083239.091000", "083239.094000", "083239.097000", "083239.100000", "083239.103000", "083319.002000", "083319.005000", "083319.009000", "083319.012000", "083319.015000", "083319.018000", "083319.021000", "083319.024000", "083319.027000", "083319.030000", "083319.033000", "083319.036000", "083319.039000", "083319.042000", "083319.045000", "083319.048000", "083319.051000", "083319.054000", "083319.057000", "083319.060000", "083319.063000", "083319.070000", "083319.073000", "083319.076000", "083319.079000", "083319.082000", "083319.085000", "083359.002000", "083359.005000", "083359.008000", "083359.012000", "083359.015000", "083359.018000", "083359.021000", "083359.025000", "083359.038000", "083359.041000", "083359.044000", "083359.047000", "083359.050000", "083359.053000", "083359.056000", "083359.059000", "083359.062000", "083359.065000", "083359.068000", "083359.072000", "083359.075000", "083359.078000", "083359.081000", "083359.084000", "083359.087000", "083359.090000", "083439.002000", "083439.005000", "083439.008000", "083439.012000", "083439.015000", "083439.018000", "083439.021000", "083439.025000", "083439.028000", "083439.031000", "083439.034000", "083439.037000", "083439.040000", "083439.043000", "083439.046000", "083439.049000", "083439.052000", "083439.055000", "083439.058000", "083439.062000", "083439.064000", "083439.067000", "083439.071000", "083439.074000", "083439.077000", "083439.080000", "083439.083000", "083519.003000", "083519.006000", "083519.010000", "083519.013000", "083519.016000", "083519.033000", "083519.036000", "083519.039000", "083519.042000", "083519.045000", "083519.049000", "083519.052000", "083519.055000", "083519.058000", "083519.061000", "083519.064000", "083519.067000", "083519.070000", "083519.073000", "083519.076000", "083519.079000", "083519.082000", "083519.086000", "083519.089000", "083519.092000", "083519.095000", "083519.098000", "083526.255000", "083526.259000", "083526.262000", "083526.265000", "083526.269000"],
      "InstanceNumber": [1, 2, 3, 4, 5, 6, 7, 8, 9, 10, 11, 12, 13, 14, 15, 16, 17, 18, 19, 20, 21, 22, 23, 24, 25, 26, 27, 28, 29, 30, 31, 32, 33, 34, 35, 36, 37, 38, 39, 40, 41, 42, 43, 44, 45, 46, 47, 48, 49, 50, 51, 52, 53, 54, 55, 56, 57, 58, 59, 60, 61, 62, 63, 64, 65, 66, 67, 68, 69, 70, 71, 72, 73, 74, 75, 76, 77, 78, 79, 80, 81, 82, 83, 84, 85, 86, 87, 88, 89, 90, 91, 92, 93, 94, 95, 96, 97, 98, 99, 100, 101, 102, 103, 104, 105, 106, 107, 108, 109, 110, 111, 112, 113, 114, 115, 116, 117, 118, 119, 120, 121, 122, 123, 124, 125, 126, 127, 128, 129, 130, 131, 132, 133, 134, 135, 136, 137, 138, 139, 140, 141, 142, 143, 144, 145, 146, 147, 148, 149, 150, 151, 152, 153, 154, 155, 156, 157, 158, 159, 160, 161, 162, 163, 164],
      "LargestImagePixelValue": [3525, 3505, 3429, 3383, 3374, 3363, 3383, 3332, 3391, 3375, 3369, 3364, 3384, 3384, 3398, 3350, 3389, 3360, 3420, 3347, 3405, 3366, 3439, 3357, 3361, 3371, 3362, 3383, 3358, 3387, 3390, 3352, 3394, 3387, 3381, 3376, 3379, 3342, 3396, 3346, 3325, 3375, 3355, 3380, 3386, 3360, 3366, 3361, 3387, 3376, 3376, 3359, 3368, 3373, 3385, 3347, 3420, 3382, 3360, 3383, 3364, 3357, 3374, 3342, 3426, 3337, 3435, 3514, 3586, 3550, 3571, 3587, 3566, 3533, 3487, 3449, 3445, 3481, 3448, 3491, 3436, 3436, 3455, 3417, 3436, 3433, 3456, 3437, 3439, 3479, 3456, 3499, 3494, 3440, 3428, 3459, 3444, 3445, 3500, 3450, 3440, 3444, 3420, 3428, 3406, 3436, 3408, 3470, 3336, 3336, 3319, 3363, 3386, 3351, 3372, 3394, 3361, 3367, 3389, 3355, 3349, 3394, 3353, 3403, 3392, 3362, 3386, 3347, 3381, 3412, 3385, 3389, 3373, 3382, 3431, 3440, 3387, 3372, 3383, 3398, 3394, 3385, 3412, 3401, 3498, 3425, 3440, 3429, 3422, 3438, 3397, 3424, 3446, 3466, 3468, 3462, 3465, 3446, 3463, 3467, 3456, 3477, 3472, 3479],
      "WindowCenter": [756.0, 754.0, 752.0, 751.0, 750.0, 749.0, 749.0, 748.0, 748.0, 749.0, 751.0, 753.0, 753.0, 752.0, 750.0, 749.0, 748.0, 747.0, 748.0, 747.0, 749.0, 748.0, 749.0, 749.0, 750.0, 750.0, 750.0, 750.0, 749.0, 749.0, 749.0, 749.0, 749.0, 750.0, 750.0, 750.0, 750.0, 750.0, 751.0, 750.0, 750.0, 750.0, 750.0, 750.0, 750.0, 750.0, 751.0, 752.0, 752.0, 751.0, 750.0, 749.0, 748.0, 748.0, 748.0, 750.0, 751.0, 751.0, 751.0, 751.0, 750.0, 750.0, 750.0, 749.0, 749.0, 749.0, 750.0, 753.0, 754.0, 755.0, 754.0, 753.0, 751.0, 748.0, 747.0, 747.0, 749.0, 751.0, 752.0, 752.0, 750.0, 749.0, 748.0, 747.0, 747.0, 747.0, 748.0, 749.0, 751.0, 752.0, 753.0, 753.0, 751.0, 751.0, 752.0, 753.0, 753.0, 753.0, 753.0, 752.0, 752.0, 751.0, 750.0, 750.0, 751.0, 750.0, 751.0, 752.0, 751.0, 751.0, 751.0, 751.0, 751.0, 751.0, 751.0, 750.0, 749.0, 749.0, 749.0, 748.0, 748.0, 749.0, 749.0, 750.0, 750.0, 750.0, 750.0, 749.0, 749.0, 749.0, 749.0, 748.0, 749.0, 749.0, 751.0, 751.0, 751.0, 751.0, 752.0, 751.0, 751.0, 750.0, 750.0, 750.0, 750.0, 750.0, 751.0, 752.0, 752.0, 752.0, 751.0, 750.0, 750.0, 750.0, 750.0, 750.0, 750.0, 751.0, 751.0, 751.0, 751.0, 751.0, 751.0, 751.0],
      "WindowWidth": [1664.0, 1656.0, 1652.0, 1648.0, 1643.0, 1641.0, 1640.0, 1638.0, 1637.0, 1641.0, 1649.0, 1652.0, 1653.0, 1649.0, 1644.0, 1640.0, 1639.0, 1637.0, 1638.0, 1637.0, 1640.0, 1639.0, 1642.0, 1642.0, 1643.0, 1644.0, 1644.0, 1643.0, 1643.0, 1643.0, 1642.0, 1642.0, 1642.0, 1644.0, 1645.0, 1644.0, 1644.0, 1644.0, 1646.0, 1646.0, 1646.0, 1645.0, 1646.0, 1644.0, 1644.0, 1645.0, 1647.0, 1650.0, 1649.0, 1648.0, 1645.0, 1641.0, 1639.0, 1638.0, 1640.0, 1643.0, 1647.0, 1647.0, 1647.0, 1647.0, 1644.0, 1643.0, 1645.0, 1642.0, 1642.0, 1641.0, 1645.0, 1652.0, 1658.0, 1660.0, 1657.0, 1654.0, 1647.0, 1639.0, 1636.0, 1635.0, 1641.0, 1648.0, 1650.0, 1650.0, 1644.0, 1641.0, 1639.0, 1635.0, 1634.0, 1635.0, 1637.0, 1641.0, 1646.0, 1651.0, 1653.0, 1652.0, 1647.0, 1648.0, 1649.0, 1653.0, 1653.0, 1653.0, 1652.0, 1651.0, 1648.0, 1646.0, 1646.0, 1645.0, 1646.0, 1646.0, 1646.0, 1651.0, 1648.0, 1648.0, 1647.0, 1647.0, 1648.0, 1648.0, 1648.0, 1645.0, 1642.0, 1640.0, 1640.0, 1639.0, 1638.0, 1641.0, 1642.0, 1645.0, 1645.0, 1643.0, 1644.0, 1642.0, 1642.0, 1642.0, 1641.0, 1639.0, 1641.0, 1642.0, 1647.0, 1646.0, 1648.0, 1648.0, 1649.0, 1648.0, 1645.0, 1644.0, 1644.0, 1645.0, 1643.0, 1644.0, 1648.0, 1649.0, 1650.0, 1650.0, 1648.0, 1645.0, 1645.0, 1643.0, 1644.0, 1644.0, 1645.0, 1646.0, 1646.0, 1646.0, 1646.0, 1648.0, 1647.0, 1647.0]
    },
    "slices": {}
  }
}