{
  "AcquisitionMatrixPE": 72,
  "AcquisitionNumber": 1,
  "AcquisitionTime": "08:37:17.082500",
  "BandwidthPerPixelPhaseEncode": 17.943,
  "BaseResolution": 96,
  "BodyPartExamined": "BRAIN",
  "CoilCombinationMethod": "Sum of Squares",
  "ConsistencyInfo": "N4_VE11C_LATEST_20160120",
  "ConversionSoftware": "dcm2niix",
  "ConversionSoftwareVersion": "v1.0.20211006",
  "DerivedVendorReportedEchoSpacing": 0.000552897,
  "DeviceSerialNumber": "166011",
  "DwellTime": 2.3e-06,
  "EchoTime": 0.03,
  "EchoTrainLength": 58,
  "EffectiveEchoSpacing": 0.000580542,
  "FlipAngle": 62,
  "ImageOrientationPatientDICOM": [0.999971, -0.0065392, 0.00391154, 0.00680666, 0.997323, -0.0728003],
  "ImageOrientationText": "Tra>Cor(-4.2)>Sag(0.2)",
  "ImageType": [
    "ORIGINAL",
    "PRIMARY",
    "M",
    "ND",
    "MOSAIC"
],
  "ImagingFrequency": 123.259,
  "InPlanePhaseEncodingDirectionDICOM": "COL",
  "InstitutionAddress": "West 130th Street 610,NY,NYC,US,10025",
  "InstitutionName": "MBBI",
  "InstitutionalDepartmentName": "Department",
  "MRAcquisitionType": "2D",
  "MagneticFieldStrength": 3,
  "Manufacturer": "Siemens",
  "ManufacturersModelName": "Prisma",
  "Modality": "MR",
  "MultibandAccelerationFactor": 3,
  "PartialFourier": 0.75,
  "PatientPosition": "HFS",
  "PercentPhaseFOV": 100,
  "PercentSampling": 75,
  "PhaseEncodingDirection": "j-",
  "PhaseEncodingSteps": 58,
  "PhaseOversampling": 0.05,
  "PhaseResolution": 0.75,
  "PixelBandwidth": 2265,
  "ProcedureStepDescription": "White^Word_recognition",
  "ProtocolName": "func_catLoc_run3",
  "PulseSequenceDetails": "%SiemensSeq%\\ep2d_bold",
  "ReceiveCoilActiveElements": "HC1-7",
  "ReceiveCoilName": "HeadNeck_64",
  "ReconMatrixPE": 96,
  "RefLinesPE": 40,
  "RepetitionTime": 1.5,
  "SAR": 0.0508514,
  "ScanOptions": "PFP\\FS",
  "ScanningSequence": "EP",
  "SequenceName": "*epfid2d1_72",
  "SequenceVariant": "SK\\OSP",
  "SeriesDescription": "func_catLoc_run3",
  "SeriesNumber": 10,
  "ShimSetting": [-1164, -1380, 676, 491, -111, -44, -31, -3],
  "SliceThickness": 2,
  "SliceTiming": [1.0775, 0, 0.74, 0.0675, 0.8075, 0.135, 0.875, 0.2025, 0.9425, 0.27, 1.01, 0.4025, 1.1425, 0.47, 1.21, 0.5375, 1.2775, 0.605, 1.345, 0.6725, 1.4125, 0.3375, 1.0775, 0, 0.74, 0.0675, 0.8075, 0.135, 0.875, 0.2025, 0.9425, 0.27, 1.01, 0.4025, 1.1425, 0.47, 1.21, 0.5375, 1.2775, 0.605, 1.345, 0.6725, 1.4125, 0.3375, 1.0775, 0, 0.74, 0.0675, 0.8075, 0.135, 0.875, 0.2025, 0.9425, 0.27, 1.01, 0.4025, 1.1425, 0.47, 1.21, 0.5375, 1.2775, 0.605, 1.345, 0.6725, 1.4125, 0.3375],
  "SoftwareVersions": "syngo MR E11",
  "SpacingBetweenSlices": 2,
  "StationName": "AWP166011",
  "TaskName": "catLoc",
  "TotalReadoutTime": 0.0551515,
  "TxRefAmp": 217.84,
  "dcmmeta_affine": [
    [-1.9999419450759888, 0.013613312505185604, 0.006850022356957197, 100.11261749267578],
    [0.013078401796519756, 1.994646668434143, -0.14564962685108185, -80.90928649902344],
    [0.007823074236512184, 0.1456006020307541, 1.9946776628494263, -43.19398880004883],
    [0.0, 0.0, 0.0, 1.0]
],
  "dcmmeta_reorient_transform": [
    [0.0, -1.0, 0.0, 95.0],
    [1.0, 0.0, 0.0, 0.0],
    [0.0, 0.0, 1.0, 0.0],
    [0.0, 0.0, 0.0, 1.0]
],
  "dcmmeta_shape": [96, 96, 66, 214],
  "dcmmeta_slice_dim": 2,
  "dcmmeta_version": 0.6,
  "global": {
    "const": {
      "AcquisitionMatrix": [96, 0, 0, 72],
      "AngioFlag": "N",
      "BitsAllocated": 16,
      "BitsStored": 12,
      "BodyPartExamined": "BRAIN",
      "Columns": 864,
      "EchoNumbers": 1,
      "EchoTime": 30.0,
      "EchoTrainLength": 58,
      "FlipAngle": 62.0,
      "HighBit": 11,
      "ImageOrientationPatient": [0.99997096894396, -0.0065392007578, 0.00391153713022, 0.00680665603668, 0.99732331038122, -0.0728003022236],
      "ImagePositionPatient": [-874.61109936373, -869.50433720785, 23.544638981845],
      "ImageType": [
        "ORIGINAL",
        "PRIMARY",
        "M",
        "ND",
        "MOSAIC"
],
      "ImagedNucleus": "1H",
      "ImagingFrequency": 123.259492,
      "InPlanePhaseEncodingDirection": "COL",
      "MRAcquisitionType": "2D",
      "MagneticFieldStrength": 3.0,
      "Manufacturer": "SIEMENS",
      "ManufacturerModelName": "Prisma",
      "Modality": "MR",
      "NumberOfAverages": 1.0,
      "NumberOfPhaseEncodingSteps": 58,
      "PercentPhaseFieldOfView": 100.0,
      "PercentSampling": 75.0,
      "PerformedProcedureStepStartTime": "075246.446000",
      "PhotometricInterpretation": "MONOCHROME2",
      "PixelBandwidth": 2265.0,
      "PixelRepresentation": 0,
      "PixelSpacing": [2.0, 2.0],
      "ProtocolName": "func_catLoc_run3",
      "RepetitionTime": 1500.0,
      "Rows": 864,
      "SAR": 0.05085144876191,
      "SamplesPerPixel": 1,
      "ScanOptions": [
        "PFP",
        "FS"
],
      "ScanningSequence": "EP",
      "SequenceName": "*epfid2d1_72",
      "SequenceVariant": [
        "SK",
        "OSP"
],
      "SeriesDescription": "func_catLoc_run3",
      "SeriesNumber": 10,
      "SeriesTime": "083722.616000",
      "SliceLocation": -36.843954443276,
      "SliceThickness": 2.0,
      "SmallestImagePixelValue": 0,
      "SoftwareVersions": "syngo MR E11",
      "SpacingBetweenSlices": 1.999999941407,
      "SpecificCharacterSet": "ISO_IR 100",
      "StudyID": "2",
      "StudyTime": "075246.375000",
      "TransmitCoilName": "Body",
      "VariableFlipAngleFlag": "N",
      "WindowCenterWidthExplanation": "Algo1",
      "dBdt": 0.0},
    "slices": {}
  },
  "time": {
    "samples": {
      "AcquisitionNumber": [1, 2, 3, 4, 5, 6, 7, 8, 9, 10, 11, 12, 13, 14, 15, 16, 17, 18, 19, 20, 21, 22, 23, 24, 25, 26, 27, 28, 29, 30, 31, 32, 33, 34, 35, 36, 37, 38, 39, 40, 41, 42, 43, 44, 45, 46, 47, 48, 49, 50, 51, 52, 53, 54, 55, 56, 57, 58, 59, 60, 61, 62, 63, 64, 65, 66, 67, 68, 69, 70, 71, 72, 73, 74, 75, 76, 77, 78, 79, 80, 81, 82, 83, 84, 85, 86, 87, 88, 89, 90, 91, 92, 93, 94, 95, 96, 97, 98, 99, 100, 101, 102, 103, 104, 105, 106, 107, 108, 109, 110, 111, 112, 113, 114, 115, 116, 117, 118, 119, 120, 121, 122, 123, 124, 125, 126, 127, 128, 129, 130, 131, 132, 133, 134, 135, 136, 137, 138, 139, 140, 141, 142, 143, 144, 145, 146, 147, 148, 149, 150, 151, 152, 153, 154, 155, 156, 157, 158, 159, 160, 161, 162, 163, 164, 165, 166, 167, 168, 169, 170, 171, 172, 173, 174, 175, 176, 177, 178, 179, 180, 181, 182, 183, 184, 185, 186, 187, 188, 189, 190, 191, 192, 193, 194, 195, 196, 197, 198, 199, 200, 201, 202, 203, 204, 205, 206, 207, 208, 209, 210, 211, 212, 213, 214],
      "AcquisitionTime": ["083717.082500", "083718.582500", "083720.082500", "083721.582500", "083723.082500", "083724.582500", "083726.082500", "083727.582500", "083729.082500", "083730.582500", "083732.082500", "083733.582500", "083735.082500", "083736.582500", "083738.082500", "083739.582500", "083741.082500", "083742.582500", "083744.082500", "083745.582500", "083747.082500", "083748.582500", "083750.082500", "083751.582500", "083753.082500", "083754.582500", "083756.082500", "083757.582500", "083759.082500", "083800.582500", "083802.082500", "083803.582500", "083805.082500", "083806.582500", "083808.082500", "083809.582500", "083811.082500", "083812.582500", "083814.082500", "083815.582500", "083817.082500", "083818.582500", "083820.082500", "083821.582500", "083823.082500", "083824.582500", "083826.082500", "083827.582500", "083829.082500", "083830.582500", "083832.082500", "083833.582500", "083835.082500", "083836.582500", "083838.082500", "083839.582500", "083841.082500", "083842.582500", "083844.082500", "083845.582500", "083847.082500", "083848.582500", "083850.082500", "083851.582500", "083853.082500", "083854.582500", "083856.082500", "083857.582500", "083859.082500", "083900.582500", "083902.082500", "083903.582500", "083905.082500", "083906.582500", "083908.082500", "083909.582500", "083911.082500", "083912.582500", "083914.082500", "083915.582500", "083917.082500", "083918.582500", "083920.082500", "083921.582500", "083923.082500", "083924.582500", "083926.082500", "083927.582500", "083929.082500", "083930.582500", "083932.082500", "083933.582500", "083935.082500", "083936.582500", "083938.082500", "083939.582500", "083941.082500", "083942.582500", "083944.082500", "083945.582500", "083947.082500", "083948.582500", "083950.082500", "083951.582500", "083953.082500", "083954.582500", "083956.082500", "083957.582500", "083959.082500", "084000.582500", "084002.082500", "084003.582500", "084005.082500", "084006.582500", "084008.082500", "084009.582500", "084011.082500", "084012.582500", "084014.082500", "084015.582500", "084017.082500", "084018.582500", "084020.082500", "084021.582500", "084023.082500", "084024.582500", "084026.082500", "084027.582500", "084029.082500", "084030.582500", "084032.082500", "084033.582500", "084035.082500", "084036.582500", "084038.082500", "084039.582500", "084041.082500", "084042.582500", "084044.082500", "084045.582500", "084047.082500", "084048.582500", "084050.082500", "084051.582500", "084053.082500", "084054.582500", "084056.082500", "084057.582500", "084059.082500", "084100.582500", "084102.082500", "084103.582500", "084105.082500", "084106.582500", "084108.082500", "084109.582500", "084111.082500", "084112.582500", "084114.082500", "084115.582500", "084117.082500", "084118.582500", "084120.082500", "084121.582500", "084123.082500", "084124.582500", "084126.082500", "084127.582500", "084129.082500", "084130.582500", "084132.082500", "084133.582500", "084135.082500", "084136.582500", "084138.082500", "084139.582500", "084141.082500", "084142.582500", "084144.082500", "084145.582500", "084147.082500", "084148.582500", "084150.082500", "084151.582500", "084153.082500", "084154.582500", "084156.082500", "084157.582500", "084159.082500", "084200.582500", "084202.082500", "084203.582500", "084205.082500", "084206.582500", "084208.082500", "084209.582500", "084211.082500", "084212.582500", "084214.082500", "084215.582500", "084217.082500", "084218.582500", "084220.082500", "084221.582500", "084223.082500", "084224.582500", "084226.082500", "084227.582500", "084229.082500", "084230.582500", "084232.082500", "084233.582500", "084235.082500", "084236.582500"],
      "ContentTime": ["083722.620000", "083722.624000", "083722.627000", "083722.630000", "083802.615000", "083802.618000", "083802.621000", "083802.624000", "083802.628000", "083802.631000", "083802.634000", "083802.637000", "083802.641000", "083802.644000", "083802.647000", "083802.650000", "083802.653000", "083802.656000", "083802.659000", "083802.662000", "083802.665000", "083802.668000", "083802.671000", "083802.674000", "083802.677000", "083802.680000", "083802.683000", "083802.686000", "083802.700000", "083802.703000", "083842.615000", "083842.618000", "083842.621000", "083842.624000", "083842.628000", "083842.631000", "083842.634000", "083842.662000", "083842.665000", "083842.678000", "083842.681000", "083842.684000", "083842.687000", "083842.690000", "083842.693000", "083842.696000", "083842.699000", "083842.702000", "083842.705000", "083842.708000", "083842.711000", "083842.719000", "083842.722000", "083842.725000", "083842.728000", "083842.731000", "083842.734000", "083922.615000", "083922.618000", "083922.621000", "083922.625000", "083922.628000", "083922.631000", "083922.634000", "083922.637000", "083922.640000", "083922.643000", "083922.646000", "083922.650000", "083922.653000", "083922.656000", "083922.659000", "083922.662000", "083922.665000", "083922.668000", "083922.671000", "083922.674000", "083922.677000", "083922.680000", "083922.683000", "083922.686000", "083922.689000", "083922.692000", "083922.695000", "084002.615000", "084002.618000", "084002.621000", "084002.624000", "084002.628000", "084002.631000", "084002.634000", "084002.637000", "084002.640000", "084002.643000", "084002.646000", "084002.649000", "084002.652000", "084002.655000", "084002.658000", "084002.661000", "084002.665000", "084002.668000", "084002.671000", "084002.674000", "084002.677000", "084002.680000", "084002.683000", "084002.686000", "084002.689000", "084002.692000", "084042.615000", "084042.618000", "084042.621000", "084042.624000", "084042.628000", "084042.631000", "084042.634000", "084042.637000", "084042.640000", "084042.643000", "084042.646000", "084042.649000", "084042.652000", "084042.655000", "084042.658000", "084042.661000", "084042.664000", "084042.667000", "084042.670000", "084042.673000", "084042.676000", "084042.679000", "084042.682000", "084042.685000", "084042.689000", "084042.692000", "084042.695000", "084122.615000", "084122.618000", "084122.621000", "084122.625000", "084122.628000", "084122.631000", "084122.634000", "084122.637000", "084122.640000", "084122.643000", "084122.646000", "084122.649000", "084122.652000", "084122.655000", "084122.658000", "084122.662000", "084122.665000", "084122.668000", "084122.671000", "084122.674000", "084122.677000", "084122.680000", "084122.683000", "084122.686000", "084122.689000", "084122.692000", "084122.695000", "084202.615000", "084202.618000", "084202.621000", "084202.636000", "084202.639000", "084202.642000", "084202.645000", "084202.648000", "084202.651000", "084202.654000", "084202.657000", "084202.660000", "084202.664000", "084202.667000", "084202.670000", "084202.673000", "084202.676000", "084202.679000", "084202.682000", "084202.685000", "084202.688000", "084202.691000", "084202.694000", "084202.697000", "084202.701000", "084202.704000", "084237.332000", "084237.335000", "084237.339000", "084237.342000", "084237.345000", "084237.348000", "084237.352000", "084237.355000", "084237.358000", "084237.361000", "084237.365000", "084237.368000", "084237.371000", "084237.375000", "084237.378000", "084237.381000", "084237.384000", "084237.388000", "084237.391000", "084237.395000", "084237.398000", "084237.401000", "084237.405000", "084237.408000"],
      "InstanceCreationTime": ["083722.620000", "083722.624000", "083722.627000", "083722.630000", "083802.615000", "083802.618000", "083802.621000", "083802.624000", "083802.628000", "083802.631000", "083802.634000", "083802.637000", "083802.641000", "083802.644000", "083802.647000", "083802.650000", "083802.653000", "083802.656000", "083802.659000", "083802.662000", "083802.665000", "083802.668000", "083802.671000", "083802.674000", "083802.677000", "083802.680000", "083802.683000", "083802.686000", "083802.700000", "083802.703000", "083842.615000", "083842.618000", "083842.621000", "083842.624000", "083842.628000", "083842.631000", "083842.634000", "083842.662000", "083842.665000", "083842.678000", "083842.681000", "083842.684000", "083842.687000", "083842.690000", "083842.693000", "083842.696000", "083842.699000", "083842.702000", "083842.705000", "083842.708000", "083842.711000", "083842.719000", "083842.722000", "083842.725000", "083842.728000", "083842.731000", "083842.734000", "083922.615000", "083922.618000", "083922.621000", "083922.625000", "083922.628000", "083922.631000", "083922.634000", "083922.637000", "083922.640000", "083922.643000", "083922.646000", "083922.650000", "083922.653000", "083922.656000", "083922.659000", "083922.662000", "083922.665000", "083922.668000", "083922.671000", "083922.674000", "083922.677000", "083922.680000", "083922.683000", "083922.686000", "083922.689000", "083922.692000", "083922.695000", "084002.615000", "084002.618000", "084002.621000", "084002.624000", "084002.628000", "084002.631000", "084002.634000", "084002.637000", "084002.640000", "084002.643000", "084002.646000", "084002.649000", "084002.652000", "084002.655000", "084002.658000", "084002.661000", "084002.665000", "084002.668000", "084002.671000", "084002.674000", "084002.677000", "084002.680000", "084002.683000", "084002.686000", "084002.689000", "084002.692000", "084042.615000", "084042.618000", "084042.621000", "084042.624000", "084042.628000", "084042.631000", "084042.634000", "084042.637000", "084042.640000", "084042.643000", "084042.646000", "084042.649000", "084042.652000", "084042.655000", "084042.658000", "084042.661000", "084042.664000", "084042.667000", "084042.670000", "084042.673000", "084042.676000", "084042.679000", "084042.682000", "084042.685000", "084042.689000", "084042.692000", "084042.695000", "084122.615000", "084122.618000", "084122.621000", "084122.625000", "084122.628000", "084122.631000", "084122.634000", "084122.637000", "084122.640000", "084122.643000", "084122.646000", "084122.649000", "084122.652000", "084122.655000", "084122.658000", "084122.662000", "084122.665000", "084122.668000", "084122.671000", "084122.674000", "084122.677000", "084122.680000", "084122.683000", "084122.686000", "084122.689000", "084122.692000", "084122.695000", "084202.615000", "084202.618000", "084202.621000", "084202.636000", "084202.639000", "084202.642000", "084202.645000", "084202.648000", "084202.651000", "084202.654000", "084202.657000", "084202.660000", "084202.664000", "084202.667000", "084202.670000", "084202.673000", "084202.676000", "084202.679000", "084202.682000", "084202.685000", "084202.688000", "084202.691000", "084202.694000", "084202.697000", "084202.701000", "084202.704000", "084237.332000", "084237.335000", "084237.339000", "084237.342000", "084237.345000", "084237.348000", "084237.352000", "084237.355000", "084237.358000", "084237.361000", "084237.365000", "084237.368000", "084237.371000", "084237.375000", "084237.378000", "084237.381000", "084237.384000", "084237.388000", "084237.391000", "084237.395000", "084237.398000", "084237.401000", "084237.405000", "084237.408000"],
      "InstanceNumber": [1, 2, 3, 4, 5, 6, 7, 8, 9, 10, 11, 12, 13, 14, 15, 16, 17, 18, 19, 20, 21, 22, 23, 24, 25, 26, 27, 28, 29, 30, 31, 32, 33, 34, 35, 36, 37, 38, 39, 40, 41, 42, 43, 44, 45, 46, 47, 48, 49, 50, 51, 52, 53, 54, 55, 56, 57, 58, 59, 60, 61, 62, 63, 64, 65, 66, 67, 68, 69, 70, 71, 72, 73, 74, 75, 76, 77, 78, 79, 80, 81, 82, 83, 84, 85, 86, 87, 88, 89, 90, 91, 92, 93, 94, 95, 96, 97, 98, 99, 100, 101, 102, 103, 104, 105, 106, 107, 108, 109, 110, 111, 112, 113, 114, 115, 116, 117, 118, 119, 120, 121, 122, 123, 124, 125, 126, 127, 128, 129, 130, 131, 132, 133, 134, 135, 136, 137, 138, 139, 140, 141, 142, 143, 144, 145, 146, 147, 148, 149, 150, 151, 152, 153, 154, 155, 156, 157, 158, 159, 160, 161, 162, 163, 164, 165, 166, 167, 168, 169, 170, 171, 172, 173, 174, 175, 176, 177, 178, 179, 180, 181, 182, 183, 184, 185, 186, 187, 188, 189, 190, 191, 192, 193, 194, 195, 196, 197, 198, 199, 200, 201, 202, 203, 204, 205, 206, 207, 208, 209, 210, 211, 212, 213, 214],
      "LargestImagePixelValue": [3822, 3730, 3634, 3623, 3689, 3680, 3675, 3658, 3685, 3717, 3723, 3714, 3707, 3733, 3720, 3683, 3692, 3677, 3668, 3639, 3637, 3652, 3661, 3677, 3651, 3658, 3645, 3656, 3630, 3650, 3635, 3671, 3658, 3696, 3683, 3679, 3675, 3687, 3679, 3663, 3671, 3659, 3686, 3649, 3668, 3684, 3647, 3657, 3652, 3676, 3653, 3685, 3652, 3684, 3663, 3639, 3642, 3632, 3635, 3638, 3644, 3653, 3642, 3621, 3626, 3636, 3674, 3667, 3650, 3654, 3667, 3678, 3692, 3685, 3723, 3712, 3708, 3703, 3706, 3712, 3699, 3675, 3692, 3686, 3693, 3700, 3694, 3685, 3704, 3679, 3710, 3693, 3682, 3696, 3714, 3699, 3684, 3699, 3654, 3678, 3690, 3677, 3709, 3703, 3732, 3715, 3711, 3701, 3699, 3699, 3662, 3733, 3693, 3678, 3725, 3731, 3693, 3728, 3725, 3714, 3714, 3733, 3722, 3758, 3728, 3756, 3729, 3732, 3713, 3698, 3735, 3724, 3718, 3748, 3721, 3762, 3743, 3751, 3726, 3702, 3733, 3730, 3744, 3723, 3694, 3744, 3716, 3767, 3741, 3707, 3753, 3718, 3759, 3756, 3746, 3715, 3750, 3718, 3756, 3725, 3707, 3696, 3703, 3713, 3705, 3734, 3727, 3730, 3718, 3692, 3721, 3689, 3700, 3707, 3698, 3759, 3725, 3722, 3737, 3695, 3685, 3717, 3697, 3734, 3701, 3705, 3746, 3740, 3752, 3700, 3727, 3747, 3732, 3692, 3750, 3671, 3668, 3654, 3645, 3662, 3631, 3665, 3702, 3684, 3716, 3683, 3744, 3716, 3712, 3682, 3679, 3706, 3694, 3745],
      "WindowCenter": [761.0, 756.0, 753.0, 751.0, 750.0, 750.0, 750.0, 751.0, 750.0, 749.0, 748.0, 747.0, 747.0, 748.0, 749.0, 751.0, 752.0, 751.0, 751.0, 752.0, 753.0, 754.0, 754.0, 754.0, 754.0, 752.0, 752.0, 754.0, 755.0, 756.0, 756.0, 757.0, 756.0, 755.0, 755.0, 755.0, 755.0, 754.0, 753.0, 753.0, 752.0, 752.0, 752.0, 751.0, 751.0, 752.0, 752.0, 752.0, 752.0, 751.0, 751.0, 751.0, 750.0, 751.0, 753.0, 755.0, 755.0, 754.0, 752.0, 751.0, 751.0, 752.0, 752.0, 753.0, 755.0, 756.0, 757.0, 755.0, 753.0, 754.0, 754.0, 754.0, 754.0, 753.0, 753.0, 752.0, 751.0, 751.0, 751.0, 751.0, 752.0, 753.0, 753.0, 753.0, 752.0, 752.0, 752.0, 752.0, 753.0, 753.0, 753.0, 753.0, 753.0, 754.0, 754.0, 754.0, 753.0, 752.0, 752.0, 752.0, 752.0, 752.0, 752.0, 753.0, 753.0, 753.0, 752.0, 752.0, 752.0, 753.0, 753.0, 753.0, 753.0, 752.0, 752.0, 752.0, 751.0, 751.0, 752.0, 752.0, 752.0, 752.0, 752.0, 752.0, 752.0, 752.0, 752.0, 753.0, 753.0, 753.0, 754.0, 753.0, 753.0, 753.0, 752.0, 751.0, 751.0, 750.0, 751.0, 752.0, 752.0, 752.0, 752.0, 751.0, 751.0, 751.0, 751.0, 752.0, 752.0, 751.0, 752.0, 752.0, 752.0, 751.0, 751.0, 750.0, 751.0, 752.0, 754.0, 754.0, 754.0, 753.0, 752.0, 752.0, 751.0, 751.0, 752.0, 752.0, 753.0, 753.0, 753.0, 754.0, 755.0, 755.0, 754.0, 754.0, 755.0, 754.0, 754.0, 753.0, 753.0, 754.0, 754.0, 753.0, 753.0, 753.0, 754.0, 753.0, 753.0, 753.0, 752.0, 753.0, 754.0, 754.0, 754.0, 753.0, 751.0, 754.0, 756.0, 758.0, 758.0, 756.0, 754.0, 752.0, 751.0, 751.0, 753.0, 752.0, 752.0, 751.0, 751.0, 752.0, 752.0, 752.0],
      "WindowWidth": [1677.0, 1663.0, 1652.0, 1647.0, 1643.0, 1645.0, 1646.0, 1646.0, 1644.0, 1643.0, 1638.0, 1636.0, 1636.0, 1639.0, 1643.0, 1647.0, 1649.0, 1647.0, 1648.0, 1651.0, 1654.0, 1657.0, 1657.0, 1656.0, 1655.0, 1652.0, 1652.0, 1656.0, 1659.0, 1661.0, 1662.0, 1664.0, 1661.0, 1660.0, 1661.0, 1660.0, 1659.0, 1657.0, 1654.0, 1652.0, 1651.0, 1651.0, 1650.0, 1647.0, 1648.0, 1649.0, 1650.0, 1650.0, 1650.0, 1649.0, 1647.0, 1647.0, 1644.0, 1648.0, 1653.0, 1658.0, 1659.0, 1657.0, 1651.0, 1648.0, 1648.0, 1650.0, 1650.0, 1654.0, 1660.0, 1663.0, 1664.0, 1659.0, 1654.0, 1656.0, 1656.0, 1657.0, 1655.0, 1654.0, 1653.0, 1650.0, 1648.0, 1646.0, 1646.0, 1648.0, 1651.0, 1652.0, 1654.0, 1653.0, 1651.0, 1650.0, 1650.0, 1650.0, 1652.0, 1652.0, 1652.0, 1653.0, 1653.0, 1655.0, 1656.0, 1654.0, 1652.0, 1650.0, 1649.0, 1650.0, 1650.0, 1650.0, 1652.0, 1652.0, 1653.0, 1652.0, 1651.0, 1652.0, 1651.0, 1652.0, 1653.0, 1654.0, 1653.0, 1651.0, 1651.0, 1649.0, 1648.0, 1648.0, 1649.0, 1650.0, 1650.0, 1651.0, 1650.0, 1651.0, 1650.0, 1651.0, 1651.0, 1652.0, 1653.0, 1653.0, 1654.0, 1653.0, 1653.0, 1652.0, 1649.0, 1649.0, 1646.0, 1646.0, 1647.0, 1649.0, 1650.0, 1650.0, 1650.0, 1648.0, 1647.0, 1647.0, 1648.0, 1651.0, 1651.0, 1648.0, 1649.0, 1649.0, 1649.0, 1647.0, 1646.0, 1643.0, 1646.0, 1651.0, 1655.0, 1656.0, 1655.0, 1653.0, 1651.0, 1649.0, 1647.0, 1648.0, 1649.0, 1650.0, 1652.0, 1653.0, 1654.0, 1656.0, 1657.0, 1657.0, 1656.0, 1657.0, 1657.0, 1657.0, 1656.0, 1653.0, 1654.0, 1655.0, 1654.0, 1654.0, 1653.0, 1654.0, 1655.0, 1654.0, 1653.0, 1652.0, 1651.0, 1653.0, 1655.0, 1655.0, 1656.0, 1652.0, 1648.0, 1655.0, 1662.0, 1667.0, 1666.0, 1660.0, 1655.0, 1649.0, 1646.0, 1648.0, 1651.0, 1650.0, 1649.0, 1648.0, 1647.0, 1649.0, 1651.0, 1651.0]
    },
    "slices": {}
  }
}