{
  "AcquisitionMatrixPE": 72,
  "AcquisitionNumber": 1,
  "AcquisitionTime": "09:06:24.627500",
  "BandwidthPerPixelPhaseEncode": 17.943,
  "BaseResolution": 96,
  "BodyPartExamined": "BRAIN",
  "CoilCombinationMethod": "Sum of Squares",
  "ConsistencyInfo": "N4_VE11C_LATEST_20160120",
  "ConversionSoftware": "dcm2niix",
  "ConversionSoftwareVersion": "v1.0.20211006",
  "DerivedVendorReportedEchoSpacing": 0.000552897,
  "DeviceSerialNumber": "166011",
  "DwellTime": 2.3e-06,
  "EchoTime": 0.03,
  "EchoTrainLength": 58,
  "EffectiveEchoSpacing": 0.000580542,
  "FlipAngle": 62,
  "ImageOrientationPatientDICOM": [0.999971, -0.0065392, 0.00391154, 0.00680666, 0.997323, -0.0728003],
  "ImageOrientationText": "Tra>Cor(-4.2)>Sag(0.2)",
  "ImageType": [
    "ORIGINAL",
    "PRIMARY",
    "M",
    "ND",
    "MOSAIC"
],
  "ImagingFrequency": 123.259,
  "InPlanePhaseEncodingDirectionDICOM": "COL",
  "InstitutionAddress": "West 130th Street 610,NY,NYC,US,10025",
  "InstitutionName": "MBBI",
  "InstitutionalDepartmentName": "Department",
  "MRAcquisitionType": "2D",
  "MagneticFieldStrength": 3,
  "Manufacturer": "Siemens",
  "ManufacturersModelName": "Prisma",
  "Modality": "MR",
  "MultibandAccelerationFactor": 3,
  "PartialFourier": 0.75,
  "PatientPosition": "HFS",
  "PercentPhaseFOV": 100,
  "PercentSampling": 75,
  "PhaseEncodingDirection": "j-",
  "PhaseEncodingSteps": 58,
  "PhaseOversampling": 0.05,
  "PhaseResolution": 0.75,
  "PixelBandwidth": 2265,
  "ProcedureStepDescription": "White^Word_recognition",
  "ProtocolName": "func_vwfate_run12",
  "PulseSequenceDetails": "%SiemensSeq%\\ep2d_bold",
  "ReceiveCoilActiveElements": "HC1-7",
  "ReceiveCoilName": "HeadNeck_64",
  "ReconMatrixPE": 96,
  "RefLinesPE": 40,
  "RepetitionTime": 1.5,
  "SAR": 0.0506928,
  "ScanOptions": "PFP\\FS",
  "ScanningSequence": "EP",
  "SequenceName": "*epfid2d1_72",
  "SequenceVariant": "SK\\OSP",
  "SeriesDescription": "func_vwfate_run12",
  "SeriesNumber": 15,
  "ShimSetting": [-1164, -1380, 676, 491, -111, -44, -31, -3],
  "SliceThickness": 2,
  "SliceTiming": [1.0775, 0, 0.74, 0.0675, 0.8075, 0.135, 0.875, 0.2025, 0.9425, 0.27, 1.01, 0.405, 1.145, 0.4725, 1.2125, 0.54, 1.28, 0.605, 1.345, 0.6725, 1.4125, 0.3375, 1.0775, 0, 0.74, 0.0675, 0.8075, 0.135, 0.875, 0.2025, 0.9425, 0.27, 1.01, 0.405, 1.145, 0.4725, 1.2125, 0.54, 1.28, 0.605, 1.345, 0.6725, 1.4125, 0.3375, 1.0775, 0, 0.74, 0.0675, 0.8075, 0.135, 0.875, 0.2025, 0.9425, 0.27, 1.01, 0.405, 1.145, 0.4725, 1.2125, 0.54, 1.28, 0.605, 1.345, 0.6725, 1.4125, 0.3375],
  "SoftwareVersions": "syngo MR E11",
  "SpacingBetweenSlices": 2,
  "StationName": "AWP166011",
  "TaskName": "vwfate",
  "TotalReadoutTime": 0.0551515,
  "TxRefAmp": 217.84,
  "dcmmeta_affine": [
    [-1.9999419450759888, 0.013613312505185604, 0.006850022356957197, 100.11261749267578],
    [0.013078401796519756, 1.994646668434143, -0.14564962685108185, -80.90928649902344],
    [0.007823074236512184, 0.1456006020307541, 1.9946776628494263, -43.19398880004883],
    [0.0, 0.0, 0.0, 1.0]
],
  "dcmmeta_reorient_transform": [
    [0.0, -1.0, 0.0, 95.0],
    [1.0, 0.0, 0.0, 0.0],
    [0.0, 0.0, 1.0, 0.0],
    [0.0, 0.0, 0.0, 1.0]
],
  "dcmmeta_shape": [96, 96, 66, 164],
  "dcmmeta_slice_dim": 2,
  "dcmmeta_version": 0.6,
  "global": {
    "const": {
      "AcquisitionMatrix": [96, 0, 0, 72],
      "AngioFlag": "N",
      "BitsAllocated": 16,
      "BitsStored": 12,
      "BodyPartExamined": "BRAIN",
      "Columns": 864,
      "EchoNumbers": 1,
      "EchoTime": 30.0,
      "EchoTrainLength": 58,
      "FlipAngle": 62.0,
      "HighBit": 11,
      "ImageOrientationPatient": [0.99997096894396, -0.0065392007578, 0.00391153713022, 0.00680665603668, 0.99732331038122, -0.0728003022236],
      "ImagePositionPatient": [-874.61109936373, -869.50433720785, 23.544638981845],
      "ImageType": [
        "ORIGINAL",
        "PRIMARY",
        "M",
        "ND",
        "MOSAIC"
],
      "ImagedNucleus": "1H",
      "ImagingFrequency": 123.259502,
      "InPlanePhaseEncodingDirection": "COL",
      "MRAcquisitionType": "2D",
      "MagneticFieldStrength": 3.0,
      "Manufacturer": "SIEMENS",
      "ManufacturerModelName": "Prisma",
      "Modality": "MR",
      "NumberOfAverages": 1.0,
      "NumberOfPhaseEncodingSteps": 58,
      "PercentPhaseFieldOfView": 100.0,
      "PercentSampling": 75.0,
      "PerformedProcedureStepStartTime": "075246.446000",
      "PhotometricInterpretation": "MONOCHROME2",
      "PixelBandwidth": 2265.0,
      "PixelRepresentation": 0,
      "PixelSpacing": [2.0, 2.0],
      "ProtocolName": "func_vwfate_run12",
      "RepetitionTime": 1500.0,
      "Rows": 864,
      "SAR": 0.05069280999839,
      "SamplesPerPixel": 1,
      "ScanOptions": [
        "PFP",
        "FS"
],
      "ScanningSequence": "EP",
      "SequenceName": "*epfid2d1_72",
      "SequenceVariant": [
        "SK",
        "OSP"
],
      "SeriesDescription": "func_vwfate_run12",
      "SeriesNumber": 15,
      "SeriesTime": "090639.003000",
      "SliceLocation": -36.843954443276,
      "SliceThickness": 2.0,
      "SmallestImagePixelValue": 0,
      "SoftwareVersions": "syngo MR E11",
      "SpacingBetweenSlices": 1.999999941407,
      "SpecificCharacterSet": "ISO_IR 100",
      "StudyID": "2",
      "StudyTime": "075246.375000",
      "TransmitCoilName": "Body",
      "VariableFlipAngleFlag": "N",
      "WindowCenterWidthExplanation": "Algo1",
      "dBdt": 0.0},
    "slices": {}
  },
  "time": {
    "samples": {
      "AcquisitionNumber": [1, 2, 3, 4, 5, 6, 7, 8, 9, 10, 11, 12, 13, 14, 15, 16, 17, 18, 19, 20, 21, 22, 23, 24, 25, 26, 27, 28, 29, 30, 31, 32, 33, 34, 35, 36, 37, 38, 39, 40, 41, 42, 43, 44, 45, 46, 47, 48, 49, 50, 51, 52, 53, 54, 55, 56, 57, 58, 59, 60, 61, 62, 63, 64, 65, 66, 67, 68, 69, 70, 71, 72, 73, 74, 75, 76, 77, 78, 79, 80, 81, 82, 83, 84, 85, 86, 87, 88, 89, 90, 91, 92, 93, 94, 95, 96, 97, 98, 99, 100, 101, 102, 103, 104, 105, 106, 107, 108, 109, 110, 111, 112, 113, 114, 115, 116, 117, 118, 119, 120, 121, 122, 123, 124, 125, 126, 127, 128, 129, 130, 131, 132, 133, 134, 135, 136, 137, 138, 139, 140, 141, 142, 143, 144, 145, 146, 147, 148, 149, 150, 151, 152, 153, 154, 155, 156, 157, 158, 159, 160, 161, 162, 163, 164],
      "AcquisitionTime": ["090624.627500", "090626.127500", "090627.627500", "090629.127500", "090630.627500", "090632.127500", "090633.627500", "090635.127500", "090636.627500", "090638.127500", "090639.627500", "090641.127500", "090642.627500", "090644.127500", "090645.627500", "090647.127500", "090648.627500", "090650.127500", "090651.627500", "090653.127500", "090654.627500", "090656.127500", "090657.627500", "090659.127500", "090700.627500", "090702.127500", "090703.627500", "090705.127500", "090706.627500", "090708.127500", "090709.627500", "090711.127500", "090712.627500", "090714.127500", "090715.627500", "090717.127500", "090718.627500", "090720.127500", "090721.627500", "090723.127500", "090724.627500", "090726.127500", "090727.627500", "090729.127500", "090730.627500", "090732.127500", "090733.627500", "090735.127500", "090736.627500", "090738.127500", "090739.627500", "090741.127500", "090742.627500", "090744.127500", "090745.627500", "090747.127500", "090748.627500", "090750.127500", "090751.627500", "090753.127500", "090754.627500", "090756.127500", "090757.627500", "090759.127500", "090800.627500", "090802.127500", "090803.627500", "090805.127500", "090806.627500", "090808.127500", "090809.627500", "090811.127500", "090812.627500", "090814.127500", "090815.627500", "090817.127500", "090818.627500", "090820.127500", "090821.627500", "090823.127500", "090824.627500", "090826.127500", "090827.627500", "090829.127500", "090830.627500", "090832.127500", "090833.627500", "090835.127500", "090836.627500", "090838.127500", "090839.627500", "090841.127500", "090842.627500", "090844.127500", "090845.627500", "090847.127500", "090848.627500", "090850.127500", "090851.627500", "090853.127500", "090854.627500", "090856.127500", "090857.627500", "090859.127500", "090900.627500", "090902.127500", "090903.627500", "090905.127500", "090906.627500", "090908.127500", "090909.627500", "090911.127500", "090912.627500", "090914.127500", "090915.627500", "090917.127500", "090918.627500", "090920.127500", "090921.627500", "090923.127500", "090924.627500", "090926.127500", "090927.627500", "090929.127500", "090930.627500", "090932.127500", "090933.627500", "090935.127500", "090936.627500", "090938.127500", "090939.627500", "090941.127500", "090942.627500", "090944.127500", "090945.627500", "090947.127500", "090948.627500", "090950.127500", "090951.627500", "090953.127500", "090954.627500", "090956.127500", "090957.627500", "090959.127500", "091000.627500", "091002.127500", "091003.627500", "091005.127500", "091006.627500", "091008.127500", "091009.627500", "091011.127500", "091012.627500", "091014.127500", "091015.627500", "091017.127500", "091018.627500", "091020.127500", "091021.627500", "091023.127500", "091024.627500", "091026.127500", "091027.627500", "091029.127500"],
      "ContentTime": ["090639.007000", "090639.011000", "090639.015000", "090639.018000", "090639.021000", "090639.035000", "090639.038000", "090639.041000", "090639.044000", "090719.002000", "090719.012000", "090719.015000", "090719.019000", "090719.022000", "090719.025000", "090719.028000", "090719.031000", "090719.034000", "090719.041000", "090719.044000", "090719.048000", "090719.051000", "090719.054000", "090719.057000", "090719.060000", "090719.063000", "090719.066000", "090719.069000", "090719.072000", "090719.076000", "090719.078000", "090719.082000", "090719.085000", "090719.088000", "090719.091000", "090719.094000", "090759.002000", "090759.005000", "090759.008000", "090759.011000", "090759.021000", "090759.026000", "090759.030000", "090759.033000", "090759.036000", "090759.039000", "090759.042000", "090759.045000", "090759.048000", "090759.052000", "090759.055000", "090759.069000", "090759.072000", "090759.075000", "090759.079000", "090759.082000", "090759.084000", "090759.087000", "090759.091000", "090759.094000", "090759.097000", "090759.100000", "090839.002000", "090839.005000", "090839.008000", "090839.011000", "090839.015000", "090839.018000", "090839.021000", "090839.024000", "090839.027000", "090839.030000", "090839.033000", "090839.036000", "090839.039000", "090839.042000", "090839.045000", "090839.048000", "090839.052000", "090839.055000", "090839.058000", "090839.061000", "090839.064000", "090839.067000", "090839.070000", "090839.073000", "090839.076000", "090839.079000", "090839.082000", "090919.002000", "090919.005000", "090919.008000", "090919.011000", "090919.014000", "090919.018000", "090919.020000", "090919.024000", "090919.027000", "090919.030000", "090919.033000", "090919.036000", "090919.039000", "090919.042000", "090919.045000", "090919.048000", "090919.051000", "090919.054000", "090919.057000", "090919.060000", "090919.063000", "090919.066000", "090919.069000", "090919.072000", "090919.075000", "090919.078000", "090919.081000", "090959.003000", "090959.006000", "090959.009000", "090959.012000", "090959.016000", "090959.019000", "090959.022000", "090959.025000", "090959.045000", "090959.049000", "090959.053000", "090959.056000", "090959.059000", "090959.062000", "090959.065000", "090959.068000", "090959.071000", "090959.074000", "090959.077000", "090959.080000", "090959.083000", "090959.086000", "090959.090000", "090959.093000", "090959.096000", "090959.099000", "091030.538000", "091030.541000", "091030.544000", "091030.547000", "091030.550000", "091030.554000", "091030.557000", "091030.560000", "091030.563000", "091030.566000", "091030.569000", "091030.572000", "091030.575000", "091030.578000", "091030.581000", "091030.585000", "091030.588000", "091030.591000", "091030.594000", "091030.597000", "091030.602000", "091030.605000"],
      "InstanceCreationTime": ["090639.007000", "090639.011000", "090639.015000", "090639.018000", "090639.021000", "090639.035000", "090639.038000", "090639.041000", "090639.044000", "090719.002000", "090719.012000", "090719.015000", "090719.019000", "090719.022000", "090719.025000", "090719.028000", "090719.031000", "090719.034000", "090719.041000", "090719.044000", "090719.048000", "090719.051000", "090719.054000", "090719.057000", "090719.060000", "090719.063000", "090719.066000", "090719.069000", "090719.072000", "090719.076000", "090719.078000", "090719.082000", "090719.085000", "090719.088000", "090719.091000", "090719.094000", "090759.002000", "090759.005000", "090759.008000", "090759.011000", "090759.021000", "090759.026000", "090759.030000", "090759.033000", "090759.036000", "090759.039000", "090759.042000", "090759.045000", "090759.048000", "090759.052000", "090759.055000", "090759.069000", "090759.072000", "090759.075000", "090759.079000", "090759.082000", "090759.084000", "090759.087000", "090759.091000", "090759.094000", "090759.097000", "090759.100000", "090839.002000", "090839.005000", "090839.008000", "090839.011000", "090839.015000", "090839.018000", "090839.021000", "090839.024000", "090839.027000", "090839.030000", "090839.033000", "090839.036000", "090839.039000", "090839.042000", "090839.045000", "090839.048000", "090839.052000", "090839.055000", "090839.058000", "090839.061000", "090839.064000", "090839.067000", "090839.070000", "090839.073000", "090839.076000", "090839.079000", "090839.082000", "090919.002000", "090919.005000", "090919.008000", "090919.011000", "090919.014000", "090919.018000", "090919.020000", "090919.024000", "090919.027000", "090919.030000", "090919.033000", "090919.036000", "090919.039000", "090919.042000", "090919.045000", "090919.048000", "090919.051000", "090919.054000", "090919.057000", "090919.060000", "090919.063000", "090919.066000", "090919.069000", "090919.072000", "090919.075000", "090919.078000", "090919.081000", "090959.003000", "090959.006000", "090959.009000", "090959.012000", "090959.016000", "090959.019000", "090959.022000", "090959.025000", "090959.045000", "090959.049000", "090959.053000", "090959.056000", "090959.059000", "090959.062000", "090959.065000", "090959.068000", "090959.071000", "090959.074000", "090959.077000", "090959.080000", "090959.083000", "090959.086000", "090959.090000", "090959.093000", "090959.096000", "090959.099000", "091030.538000", "091030.541000", "091030.544000", "091030.547000", "091030.550000", "091030.554000", "091030.557000", "091030.560000", "091030.563000", "091030.566000", "091030.569000", "091030.572000", "091030.575000", "091030.578000", "091030.581000", "091030.585000", "091030.588000", "091030.591000", "091030.594000", "091030.597000", "091030.602000", "091030.605000"],
      "InstanceNumber": [1, 2, 3, 4, 5, 6, 7, 8, 9, 10, 11, 12, 13, 14, 15, 16, 17, 18, 19, 20, 21, 22, 23, 24, 25, 26, 27, 28, 29, 30, 31, 32, 33, 34, 35, 36, 37, 38, 39, 40, 41, 42, 43, 44, 45, 46, 47, 48, 49, 50, 51, 52, 53, 54, 55, 56, 57, 58, 59, 60, 61, 62, 63, 64, 65, 66, 67, 68, 69, 70, 71, 72, 73, 74, 75, 76, 77, 78, 79, 80, 81, 82, 83, 84, 85, 86, 87, 88, 89, 90, 91, 92, 93, 94, 95, 96, 97, 98, 99, 100, 101, 102, 103, 104, 105, 106, 107, 108, 109, 110, 111, 112, 113, 114, 115, 116, 117, 118, 119, 120, 121, 122, 123, 124, 125, 126, 127, 128, 129, 130, 131, 132, 133, 134, 135, 136, 137, 138, 139, 140, 141, 142, 143, 144, 145, 146, 147, 148, 149, 150, 151, 152, 153, 154, 155, 156, 157, 158, 159, 160, 161, 162, 163, 164],
      "LargestImagePixelValue": [3711, 3631, 3659, 3608, 3544, 3623, 3576, 3573, 3600, 3559, 3564, 3560, 3625, 3605, 3612, 3634, 3619, 3595, 3570, 3623, 3595, 3600, 3628, 3595, 3634, 3597, 3612, 3555, 3544, 3575, 3550, 3545, 3563, 3574, 3571, 3600, 3545, 3558, 3579, 3582, 3576, 3625, 3594, 3581, 3610, 3588, 3583, 3577, 3570, 3594, 3587, 3599, 3600, 3623, 3679, 3601, 3607, 3640, 3600, 3611, 3648, 3642, 3629, 3583, 3591, 3571, 3594, 3582, 3587, 3574, 3601, 3592, 3568, 3555, 3536, 3551, 3581, 3555, 3550, 3519, 3487, 3531, 3509, 3564, 3534, 3581, 3555, 3557, 3574, 3547, 3569, 3574, 3573, 3583, 3571, 3543, 3589, 3561, 3568, 3591, 3565, 3557, 3580, 3569, 3541, 3569, 3580, 3578, 3539, 3573, 3556, 3552, 3531, 3576, 3555, 3576, 3609, 3594, 3568, 3625, 3611, 3591, 3567, 3619, 3581, 3590, 3551, 3558, 3619, 3596, 3593, 3600, 3621, 3619, 3560, 3607, 3582, 3555, 3591, 3576, 3633, 3613, 3593, 3604, 3616, 3576, 3591, 3543, 3593, 3604, 3567, 3597, 3597, 3574, 3587, 3592, 3582, 3571, 3583, 3598, 3641, 3610, 3623, 3596],
      "WindowCenter": [755.0, 751.0, 749.0, 748.0, 747.0, 747.0, 748.0, 750.0, 750.0, 749.0, 750.0, 749.0, 750.0, 749.0, 749.0, 750.0, 749.0, 750.0, 750.0, 751.0, 751.0, 751.0, 751.0, 751.0, 751.0, 750.0, 751.0, 752.0, 753.0, 753.0, 752.0, 751.0, 749.0, 748.0, 748.0, 749.0, 750.0, 751.0, 751.0, 750.0, 750.0, 750.0, 749.0, 749.0, 750.0, 750.0, 750.0, 751.0, 750.0, 750.0, 750.0, 750.0, 750.0, 750.0, 750.0, 750.0, 751.0, 751.0, 751.0, 750.0, 749.0, 749.0, 749.0, 749.0, 749.0, 749.0, 750.0, 750.0, 749.0, 748.0, 748.0, 749.0, 750.0, 752.0, 751.0, 751.0, 750.0, 749.0, 751.0, 753.0, 754.0, 754.0, 753.0, 752.0, 751.0, 751.0, 750.0, 750.0, 750.0, 749.0, 749.0, 749.0, 749.0, 749.0, 750.0, 750.0, 749.0, 749.0, 748.0, 748.0, 748.0, 748.0, 749.0, 748.0, 748.0, 748.0, 748.0, 748.0, 748.0, 749.0, 749.0, 750.0, 751.0, 751.0, 752.0, 751.0, 751.0, 751.0, 750.0, 750.0, 750.0, 751.0, 751.0, 752.0, 752.0, 751.0, 751.0, 751.0, 751.0, 750.0, 749.0, 749.0, 748.0, 748.0, 749.0, 751.0, 752.0, 753.0, 752.0, 751.0, 750.0, 749.0, 749.0, 749.0, 750.0, 751.0, 751.0, 752.0, 752.0, 751.0, 751.0, 751.0, 750.0, 750.0, 750.0, 750.0, 750.0, 750.0, 750.0, 750.0, 750.0, 749.0, 750.0, 750.0],
      "WindowWidth": [1660.0, 1647.0, 1641.0, 1638.0, 1636.0, 1637.0, 1640.0, 1643.0, 1643.0, 1642.0, 1643.0, 1642.0, 1643.0, 1642.0, 1642.0, 1643.0, 1643.0, 1644.0, 1645.0, 1648.0, 1648.0, 1647.0, 1647.0, 1646.0, 1646.0, 1645.0, 1646.0, 1649.0, 1653.0, 1654.0, 1651.0, 1647.0, 1641.0, 1639.0, 1639.0, 1641.0, 1643.0, 1646.0, 1647.0, 1645.0, 1643.0, 1643.0, 1642.0, 1642.0, 1644.0, 1645.0, 1645.0, 1646.0, 1644.0, 1644.0, 1643.0, 1643.0, 1643.0, 1644.0, 1644.0, 1643.0, 1645.0, 1647.0, 1647.0, 1644.0, 1642.0, 1641.0, 1642.0, 1641.0, 1642.0, 1642.0, 1643.0, 1643.0, 1640.0, 1639.0, 1639.0, 1640.0, 1645.0, 1649.0, 1648.0, 1647.0, 1645.0, 1642.0, 1646.0, 1653.0, 1657.0, 1657.0, 1652.0, 1650.0, 1645.0, 1646.0, 1644.0, 1644.0, 1643.0, 1641.0, 1641.0, 1640.0, 1640.0, 1642.0, 1643.0, 1642.0, 1642.0, 1640.0, 1639.0, 1639.0, 1637.0, 1639.0, 1640.0, 1640.0, 1640.0, 1639.0, 1638.0, 1638.0, 1638.0, 1640.0, 1642.0, 1644.0, 1646.0, 1648.0, 1649.0, 1647.0, 1646.0, 1645.0, 1644.0, 1644.0, 1645.0, 1647.0, 1647.0, 1648.0, 1648.0, 1645.0, 1646.0, 1646.0, 1646.0, 1645.0, 1641.0, 1640.0, 1639.0, 1638.0, 1640.0, 1646.0, 1650.0, 1651.0, 1649.0, 1645.0, 1643.0, 1642.0, 1642.0, 1642.0, 1643.0, 1645.0, 1648.0, 1648.0, 1649.0, 1647.0, 1646.0, 1646.0, 1644.0, 1643.0, 1643.0, 1642.0, 1643.0, 1643.0, 1644.0, 1643.0, 1642.0, 1641.0, 1642.0, 1643.0]
    },
    "slices": {}
  }
}