{
  "AcquisitionMatrixPE": 72,
  "AcquisitionNumber": 1,
  "AcquisitionTime": "09:01:1.687500",
  "BandwidthPerPixelPhaseEncode": 17.943,
  "BaseResolution": 96,
  "BodyPartExamined": "BRAIN",
  "CoilCombinationMethod": "Sum of Squares",
  "ConsistencyInfo": "N4_VE11C_LATEST_20160120",
  "ConversionSoftware": "dcm2niix",
  "ConversionSoftwareVersion": "v1.0.20211006",
  "DerivedVendorReportedEchoSpacing": 0.000552897,
  "DeviceSerialNumber": "166011",
  "DwellTime": 2.3e-06,
  "EchoTime": 0.03,
  "EchoTrainLength": 58,
  "EffectiveEchoSpacing": 0.000580542,
  "FlipAngle": 62,
  "ImageOrientationPatientDICOM": [0.999971, -0.0065392, 0.00391154, 0.00680666, 0.997323, -0.0728003],
  "ImageOrientationText": "Tra>Cor(-4.2)>Sag(0.2)",
  "ImageType": [
    "ORIGINAL",
    "PRIMARY",
    "M",
    "ND",
    "MOSAIC"
],
  "ImagingFrequency": 123.259,
  "InPlanePhaseEncodingDirectionDICOM": "COL",
  "InstitutionAddress": "West 130th Street 610,NY,NYC,US,10025",
  "InstitutionName": "MBBI",
  "InstitutionalDepartmentName": "Department",
  "MRAcquisitionType": "2D",
  "MagneticFieldStrength": 3,
  "Manufacturer": "Siemens",
  "ManufacturersModelName": "Prisma",
  "Modality": "MR",
  "MultibandAccelerationFactor": 3,
  "PartialFourier": 0.75,
  "PatientPosition": "HFS",
  "PercentPhaseFOV": 100,
  "PercentSampling": 75,
  "PhaseEncodingDirection": "j-",
  "PhaseEncodingSteps": 58,
  "PhaseOversampling": 0.05,
  "PhaseResolution": 0.75,
  "PixelBandwidth": 2265,
  "ProcedureStepDescription": "White^Word_recognition",
  "ProtocolName": "func_vwfate_run11",
  "PulseSequenceDetails": "%SiemensSeq%\\ep2d_bold",
  "ReceiveCoilActiveElements": "HC1-7",
  "ReceiveCoilName": "HeadNeck_64",
  "ReconMatrixPE": 96,
  "RefLinesPE": 40,
  "RepetitionTime": 1.5,
  "SAR": 0.0506928,
  "ScanOptions": "PFP\\FS",
  "ScanningSequence": "EP",
  "SequenceName": "*epfid2d1_72",
  "SequenceVariant": "SK\\OSP",
  "SeriesDescription": "func_vwfate_run11",
  "SeriesNumber": 14,
  "ShimSetting": [-1164, -1380, 676, 491, -111, -44, -31, -3],
  "SliceThickness": 2,
  "SliceTiming": [1.075, 0, 0.74, 0.065, 0.805, 0.1325, 0.8725, 0.2, 0.94, 0.2675, 1.0075, 0.4025, 1.1425, 0.47, 1.21, 0.5375, 1.2775, 0.605, 1.345, 0.6725, 1.4125, 0.335, 1.075, 0, 0.74, 0.065, 0.805, 0.1325, 0.8725, 0.2, 0.94, 0.2675, 1.0075, 0.4025, 1.1425, 0.47, 1.21, 0.5375, 1.2775, 0.605, 1.345, 0.6725, 1.4125, 0.335, 1.075, 0, 0.74, 0.065, 0.805, 0.1325, 0.8725, 0.2, 0.94, 0.2675, 1.0075, 0.4025, 1.1425, 0.47, 1.21, 0.5375, 1.2775, 0.605, 1.345, 0.6725, 1.4125, 0.335],
  "SoftwareVersions": "syngo MR E11",
  "SpacingBetweenSlices": 2,
  "StationName": "AWP166011",
  "TaskName": "vwfate",
  "TotalReadoutTime": 0.0551515,
  "TxRefAmp": 217.84,
  "dcmmeta_affine": [
    [-1.9999419450759888, 0.013613312505185604, 0.006850022356957197, 100.11261749267578],
    [0.013078401796519756, 1.994646668434143, -0.14564962685108185, -80.90928649902344],
    [0.007823074236512184, 0.1456006020307541, 1.9946776628494263, -43.19398880004883],
    [0.0, 0.0, 0.0, 1.0]
],
  "dcmmeta_reorient_transform": [
    [0.0, -1.0, 0.0, 95.0],
    [1.0, 0.0, 0.0, 0.0],
    [0.0, 0.0, 1.0, 0.0],
    [0.0, 0.0, 0.0, 1.0]
],
  "dcmmeta_shape": [96, 96, 66, 164],
  "dcmmeta_slice_dim": 2,
  "dcmmeta_version": 0.6,
  "global": {
    "const": {
      "AcquisitionMatrix": [96, 0, 0, 72],
      "AngioFlag": "N",
      "BitsAllocated": 16,
      "BitsStored": 12,
      "BodyPartExamined": "BRAIN",
      "Columns": 864,
      "EchoNumbers": 1,
      "EchoTime": 30.0,
      "EchoTrainLength": 58,
      "FlipAngle": 62.0,
      "HighBit": 11,
      "ImageOrientationPatient": [0.99997096894396, -0.0065392007578, 0.00391153713022, 0.00680665603668, 0.99732331038122, -0.0728003022236],
      "ImagePositionPatient": [-874.61109936373, -869.50433720785, 23.544638981845],
      "ImageType": [
        "ORIGINAL",
        "PRIMARY",
        "M",
        "ND",
        "MOSAIC"
],
      "ImagedNucleus": "1H",
      "ImagingFrequency": 123.2595,
      "InPlanePhaseEncodingDirection": "COL",
      "MRAcquisitionType": "2D",
      "MagneticFieldStrength": 3.0,
      "Manufacturer": "SIEMENS",
      "ManufacturerModelName": "Prisma",
      "Modality": "MR",
      "NumberOfAverages": 1.0,
      "NumberOfPhaseEncodingSteps": 58,
      "PercentPhaseFieldOfView": 100.0,
      "PercentSampling": 75.0,
      "PerformedProcedureStepStartTime": "075246.446000",
      "PhotometricInterpretation": "MONOCHROME2",
      "PixelBandwidth": 2265.0,
      "PixelRepresentation": 0,
      "PixelSpacing": [2.0, 2.0],
      "ProtocolName": "func_vwfate_run11",
      "RepetitionTime": 1500.0,
      "Rows": 864,
      "SAR": 0.05069280999839,
      "SamplesPerPixel": 1,
      "ScanOptions": [
        "PFP",
        "FS"
],
      "ScanningSequence": "EP",
      "SequenceName": "*epfid2d1_72",
      "SequenceVariant": [
        "SK",
        "OSP"
],
      "SeriesDescription": "func_vwfate_run11",
      "SeriesNumber": 14,
      "SeriesTime": "090138.907000",
      "SliceLocation": -36.843954443276,
      "SliceThickness": 2.0,
      "SmallestImagePixelValue": 0,
      "SoftwareVersions": "syngo MR E11",
      "SpacingBetweenSlices": 1.999999941407,
      "SpecificCharacterSet": "ISO_IR 100",
      "StudyID": "2",
      "StudyTime": "075246.375000",
      "TransmitCoilName": "Body",
      "VariableFlipAngleFlag": "N",
      "WindowCenterWidthExplanation": "Algo1",
      "dBdt": 0.0},
    "slices": {}
  },
  "time": {
    "samples": {
      "AcquisitionNumber": [1, 2, 3, 4, 5, 6, 7, 8, 9, 10, 11, 12, 13, 14, 15, 16, 17, 18, 19, 20, 21, 22, 23, 24, 25, 26, 27, 28, 29, 30, 31, 32, 33, 34, 35, 36, 37, 38, 39, 40, 41, 42, 43, 44, 45, 46, 47, 48, 49, 50, 51, 52, 53, 54, 55, 56, 57, 58, 59, 60, 61, 62, 63, 64, 65, 66, 67, 68, 69, 70, 71, 72, 73, 74, 75, 76, 77, 78, 79, 80, 81, 82, 83, 84, 85, 86, 87, 88, 89, 90, 91, 92, 93, 94, 95, 96, 97, 98, 99, 100, 101, 102, 103, 104, 105, 106, 107, 108, 109, 110, 111, 112, 113, 114, 115, 116, 117, 118, 119, 120, 121, 122, 123, 124, 125, 126, 127, 128, 129, 130, 131, 132, 133, 134, 135, 136, 137, 138, 139, 140, 141, 142, 143, 144, 145, 146, 147, 148, 149, 150, 151, 152, 153, 154, 155, 156, 157, 158, 159, 160, 161, 162, 163, 164],
      "AcquisitionTime": ["090101.687500", "090103.187500", "090104.687500", "090106.187500", "090107.687500", "090109.187500", "090110.687500", "090112.187500", "090113.687500", "090115.187500", "090116.687500", "090118.187500", "090119.687500", "090121.187500", "090122.687500", "090124.187500", "090125.687500", "090127.187500", "090128.687500", "090130.187500", "090131.687500", "090133.187500", "090134.687500", "090136.187500", "090137.687500", "090139.187500", "090140.687500", "090142.187500", "090143.687500", "090145.187500", "090146.687500", "090148.187500", "090149.687500", "090151.187500", "090152.687500", "090154.187500", "090155.687500", "090157.187500", "090158.687500", "090200.187500", "090201.687500", "090203.187500", "090204.687500", "090206.187500", "090207.687500", "090209.187500", "090210.687500", "090212.187500", "090213.687500", "090215.187500", "090216.687500", "090218.187500", "090219.687500", "090221.187500", "090222.687500", "090224.187500", "090225.687500", "090227.187500", "090228.687500", "090230.187500", "090231.687500", "090233.187500", "090234.687500", "090236.187500", "090237.687500", "090239.187500", "090240.687500", "090242.187500", "090243.687500", "090245.187500", "090246.687500", "090248.187500", "090249.687500", "090251.187500", "090252.687500", "090254.187500", "090255.687500", "090257.187500", "090258.687500", "090300.187500", "090301.687500", "090303.187500", "090304.687500", "090306.187500", "090307.687500", "090309.187500", "090310.687500", "090312.187500", "090313.687500", "090315.187500", "090316.687500", "090318.187500", "090319.687500", "090321.187500", "090322.687500", "090324.187500", "090325.687500", "090327.187500", "090328.687500", "090330.187500", "090331.687500", "090333.187500", "090334.687500", "090336.187500", "090337.687500", "090339.187500", "090340.687500", "090342.187500", "090343.687500", "090345.187500", "090346.687500", "090348.187500", "090349.687500", "090351.187500", "090352.687500", "090354.187500", "090355.687500", "090357.187500", "090358.687500", "090400.187500", "090401.687500", "090403.187500", "090404.687500", "090406.187500", "090407.687500", "090409.187500", "090410.687500", "090412.187500", "090413.687500", "090415.187500", "090416.687500", "090418.187500", "090419.687500", "090421.187500", "090422.687500", "090424.187500", "090425.687500", "090427.187500", "090428.687500", "090430.187500", "090431.687500", "090433.187500", "090434.687500", "090436.187500", "090437.687500", "090439.187500", "090440.687500", "090442.187500", "090443.687500", "090445.187500", "090446.687500", "090448.187500", "090449.687500", "090451.187500", "090452.687500", "090454.187500", "090455.687500", "090457.187500", "090458.687500", "090500.187500", "090501.687500", "090503.187500", "090504.687500", "090506.187500"],
      "ContentTime": ["090138.911000", "090138.915000", "090138.918000", "090138.921000", "090138.924000", "090138.927000", "090138.930000", "090138.933000", "090138.936000", "090138.939000", "090138.942000", "090138.946000", "090138.949000", "090138.952000", "090138.955000", "090138.958000", "090138.961000", "090138.964000", "090138.976000", "090138.979000", "090138.989000", "090138.992000", "090138.995000", "090138.998000", "090139.003000", "090218.906000", "090218.909000", "090218.912000", "090218.915000", "090218.918000", "090218.921000", "090218.924000", "090218.927000", "090218.930000", "090218.933000", "090218.936000", "090218.940000", "090218.943000", "090218.946000", "090218.949000", "090218.952000", "090218.955000", "090218.958000", "090218.961000", "090218.964000", "090218.967000", "090218.970000", "090218.973000", "090218.976000", "090218.986000", "090218.989000", "090258.907000", "090258.910000", "090258.913000", "090258.916000", "090258.919000", "090258.923000", "090258.926000", "090258.929000", "090258.932000", "090258.935000", "090258.938000", "090258.941000", "090258.944000", "090258.947000", "090258.950000", "090258.953000", "090258.956000", "090258.967000", "090258.970000", "090258.973000", "090258.976000", "090258.990000", "090258.993000", "090258.996000", "090258.999000", "090259.003000", "090259.006000", "090338.906000", "090338.909000", "090338.912000", "090338.916000", "090338.919000", "090338.922000", "090338.925000", "090338.928000", "090338.931000", "090338.934000", "090338.937000", "090338.940000", "090338.944000", "090338.946000", "090338.949000", "090338.952000", "090338.956000", "090338.959000", "090338.962000", "090338.965000", "090338.968000", "090338.971000", "090338.974000", "090338.977000", "090338.980000", "090338.983000", "090338.986000", "090418.906000", "090418.910000", "090418.913000", "090418.916000", "090418.919000", "090418.923000", "090418.926000", "090418.929000", "090418.932000", "090418.935000", "090418.938000", "090418.941000", "090418.944000", "090418.947000", "090418.950000", "090418.954000", "090418.957000", "090418.960000", "090418.963000", "090418.975000", "090418.978000", "090418.981000", "090418.984000", "090418.987000", "090418.990000", "090418.993000", "090458.906000", "090458.909000", "090458.913000", "090458.916000", "090458.919000", "090458.922000", "090458.925000", "090458.929000", "090458.932000", "090458.935000", "090458.938000", "090458.941000", "090458.944000", "090458.954000", "090458.957000", "090458.960000", "090458.963000", "090458.966000", "090458.969000", "090458.972000", "090458.975000", "090458.979000", "090458.982000", "090458.985000", "090458.988000", "090458.991000", "090458.994000", "090506.903000", "090506.907000", "090506.910000", "090506.913000", "090506.917000", "090506.920000"],
      "InstanceCreationTime": ["090138.911000", "090138.915000", "090138.918000", "090138.921000", "090138.924000", "090138.927000", "090138.930000", "090138.933000", "090138.936000", "090138.939000", "090138.942000", "090138.946000", "090138.949000", "090138.952000", "090138.955000", "090138.958000", "090138.961000", "090138.964000", "090138.976000", "090138.979000", "090138.989000", "090138.992000", "090138.995000", "090138.998000", "090139.003000", "090218.906000", "090218.909000", "090218.912000", "090218.915000", "090218.918000", "090218.921000", "090218.924000", "090218.927000", "090218.930000", "090218.933000", "090218.936000", "090218.940000", "090218.943000", "090218.946000", "090218.949000", "090218.952000", "090218.955000", "090218.958000", "090218.961000", "090218.964000", "090218.967000", "090218.970000", "090218.973000", "090218.976000", "090218.986000", "090218.989000", "090258.907000", "090258.910000", "090258.913000", "090258.916000", "090258.919000", "090258.923000", "090258.926000", "090258.929000", "090258.932000", "090258.935000", "090258.938000", "090258.941000", "090258.944000", "090258.947000", "090258.950000", "090258.953000", "090258.956000", "090258.967000", "090258.970000", "090258.973000", "090258.976000", "090258.990000", "090258.993000", "090258.996000", "090258.999000", "090259.003000", "090259.006000", "090338.906000", "090338.909000", "090338.912000", "090338.916000", "090338.919000", "090338.922000", "090338.925000", "090338.928000", "090338.931000", "090338.934000", "090338.937000", "090338.940000", "090338.944000", "090338.946000", "090338.949000", "090338.952000", "090338.956000", "090338.959000", "090338.962000", "090338.965000", "090338.968000", "090338.971000", "090338.974000", "090338.977000", "090338.980000", "090338.983000", "090338.986000", "090418.906000", "090418.910000", "090418.913000", "090418.916000", "090418.919000", "090418.923000", "090418.926000", "090418.929000", "090418.932000", "090418.935000", "090418.938000", "090418.941000", "090418.944000", "090418.947000", "090418.950000", "090418.954000", "090418.957000", "090418.960000", "090418.963000", "090418.975000", "090418.978000", "090418.981000", "090418.984000", "090418.987000", "090418.990000", "090418.993000", "090458.906000", "090458.909000", "090458.913000", "090458.916000", "090458.919000", "090458.922000", "090458.925000", "090458.929000", "090458.932000", "090458.935000", "090458.938000", "090458.941000", "090458.944000", "090458.954000", "090458.957000", "090458.960000", "090458.963000", "090458.966000", "090458.969000", "090458.972000", "090458.975000", "090458.979000", "090458.982000", "090458.985000", "090458.988000", "090458.991000", "090458.994000", "090506.903000", "090506.907000", "090506.910000", "090506.913000", "090506.917000", "090506.920000"],
      "InstanceNumber": [1, 2, 3, 4, 5, 6, 7, 8, 9, 10, 11, 12, 13, 14, 15, 16, 17, 18, 19, 20, 21, 22, 23, 24, 25, 26, 27, 28, 29, 30, 31, 32, 33, 34, 35, 36, 37, 38, 39, 40, 41, 42, 43, 44, 45, 46, 47, 48, 49, 50, 51, 52, 53, 54, 55, 56, 57, 58, 59, 60, 61, 62, 63, 64, 65, 66, 67, 68, 69, 70, 71, 72, 73, 74, 75, 76, 77, 78, 79, 80, 81, 82, 83, 84, 85, 86, 87, 88, 89, 90, 91, 92, 93, 94, 95, 96, 97, 98, 99, 100, 101, 102, 103, 104, 105, 106, 107, 108, 109, 110, 111, 112, 113, 114, 115, 116, 117, 118, 119, 120, 121, 122, 123, 124, 125, 126, 127, 128, 129, 130, 131, 132, 133, 134, 135, 136, 137, 138, 139, 140, 141, 142, 143, 144, 145, 146, 147, 148, 149, 150, 151, 152, 153, 154, 155, 156, 157, 158, 159, 160, 161, 162, 163, 164],
      "LargestImagePixelValue": [3823, 3813, 3703, 3709, 3654, 3541, 3611, 3542, 3581, 3543, 3524, 3575, 3527, 3524, 3575, 3577, 3581, 3603, 3562, 3551, 3551, 3632, 3551, 3561, 3558, 3584, 3520, 3591, 3549, 3596, 3575, 3585, 3600, 3604, 3552, 3545, 3559, 3582, 3548, 3517, 3539, 3580, 3550, 3492, 3458, 3444, 3486, 3469, 3476, 3549, 3540, 3551, 3657, 3610, 3572, 3551, 3535, 3582, 3562, 3556, 3550, 3576, 3498, 3573, 3544, 3513, 3603, 3578, 3564, 3578, 3575, 3522, 3546, 3550, 3536, 3637, 3565, 3530, 3485, 3521, 3510, 3553, 3516, 3503, 3501, 3466, 3505, 3454, 3465, 3537, 3529, 3511, 3553, 3562, 3530, 3574, 3541, 3531, 3607, 3560, 3523, 3562, 3539, 3500, 3606, 3526, 3554, 3506, 3445, 3441, 3501, 3502, 3553, 3560, 3518, 3515, 3553, 3545, 3491, 3580, 3520, 3492, 3555, 3526, 3581, 3535, 3599, 3528, 3519, 3525, 3497, 3545, 3458, 3433, 3519, 3549, 3673, 3464, 3484, 3500, 3501, 3510, 3576, 3545, 3583, 3547, 3512, 3480, 3577, 3530, 3493, 3563, 3524, 3496, 3583, 3528, 3524, 3562, 3510, 3567, 3523, 3583, 3521, 3545],
      "WindowCenter": [750.0, 747.0, 747.0, 747.0, 747.0, 749.0, 751.0, 752.0, 753.0, 753.0, 754.0, 754.0, 753.0, 752.0, 752.0, 753.0, 753.0, 753.0, 753.0, 753.0, 753.0, 753.0, 753.0, 753.0, 754.0, 754.0, 754.0, 755.0, 754.0, 754.0, 754.0, 754.0, 754.0, 754.0, 754.0, 754.0, 754.0, 754.0, 753.0, 752.0, 753.0, 754.0, 755.0, 756.0, 756.0, 755.0, 754.0, 753.0, 752.0, 751.0, 751.0, 751.0, 752.0, 751.0, 750.0, 752.0, 752.0, 753.0, 752.0, 751.0, 751.0, 752.0, 752.0, 753.0, 753.0, 753.0, 754.0, 753.0, 753.0, 754.0, 754.0, 754.0, 755.0, 755.0, 754.0, 751.0, 750.0, 752.0, 754.0, 756.0, 754.0, 753.0, 753.0, 753.0, 753.0, 754.0, 755.0, 754.0, 753.0, 753.0, 753.0, 752.0, 752.0, 751.0, 751.0, 751.0, 751.0, 752.0, 752.0, 752.0, 752.0, 752.0, 752.0, 752.0, 753.0, 752.0, 752.0, 753.0, 754.0, 755.0, 755.0, 754.0, 754.0, 753.0, 752.0, 753.0, 753.0, 753.0, 752.0, 752.0, 752.0, 753.0, 754.0, 753.0, 752.0, 749.0, 750.0, 751.0, 752.0, 753.0, 753.0, 753.0, 753.0, 752.0, 752.0, 753.0, 753.0, 752.0, 754.0, 754.0, 753.0, 752.0, 751.0, 751.0, 751.0, 751.0, 751.0, 751.0, 752.0, 751.0, 752.0, 752.0, 752.0, 752.0, 751.0, 751.0, 751.0, 751.0, 751.0, 752.0, 752.0, 752.0, 752.0, 752.0],
      "WindowWidth": [1644.0, 1637.0, 1635.0, 1636.0, 1636.0, 1641.0, 1648.0, 1650.0, 1653.0, 1654.0, 1655.0, 1655.0, 1653.0, 1652.0, 1651.0, 1654.0, 1654.0, 1654.0, 1654.0, 1653.0, 1653.0, 1654.0, 1653.0, 1654.0, 1655.0, 1656.0, 1655.0, 1658.0, 1655.0, 1656.0, 1655.0, 1655.0, 1656.0, 1656.0, 1656.0, 1657.0, 1656.0, 1655.0, 1653.0, 1651.0, 1653.0, 1656.0, 1658.0, 1661.0, 1663.0, 1659.0, 1656.0, 1653.0, 1649.0, 1647.0, 1646.0, 1647.0, 1651.0, 1648.0, 1646.0, 1649.0, 1651.0, 1652.0, 1650.0, 1649.0, 1648.0, 1649.0, 1649.0, 1652.0, 1652.0, 1653.0, 1655.0, 1654.0, 1654.0, 1655.0, 1655.0, 1656.0, 1660.0, 1658.0, 1654.0, 1646.0, 1643.0, 1650.0, 1655.0, 1662.0, 1656.0, 1652.0, 1652.0, 1652.0, 1654.0, 1656.0, 1658.0, 1656.0, 1652.0, 1652.0, 1652.0, 1650.0, 1651.0, 1648.0, 1646.0, 1647.0, 1648.0, 1648.0, 1650.0, 1649.0, 1650.0, 1649.0, 1650.0, 1650.0, 1651.0, 1649.0, 1649.0, 1652.0, 1655.0, 1657.0, 1657.0, 1656.0, 1655.0, 1653.0, 1650.0, 1651.0, 1652.0, 1652.0, 1651.0, 1651.0, 1651.0, 1653.0, 1654.0, 1652.0, 1648.0, 1642.0, 1643.0, 1646.0, 1650.0, 1653.0, 1653.0, 1654.0, 1653.0, 1651.0, 1651.0, 1651.0, 1652.0, 1650.0, 1656.0, 1656.0, 1654.0, 1651.0, 1648.0, 1646.0, 1646.0, 1647.0, 1648.0, 1647.0, 1649.0, 1648.0, 1649.0, 1650.0, 1650.0, 1649.0, 1648.0, 1646.0, 1646.0, 1646.0, 1647.0, 1648.0, 1649.0, 1651.0, 1650.0, 1649.0]
    },
    "slices": {}
  }
}