{
  "AcquisitionMatrixPE": 72,
  "AcquisitionNumber": 1,
  "AcquisitionTime": "17:51:16.522500",
  "BandwidthPerPixelPhaseEncode": 17.943,
  "BaseResolution": 96,
  "BodyPartExamined": "BRAIN",
  "CoilCombinationMethod": "Sum of Squares",
  "ConsistencyInfo": "N4_VE11C_LATEST_20160120",
  "ConversionSoftware": "dcm2niix",
  "ConversionSoftwareVersion": "v1.0.20211006",
  "DerivedVendorReportedEchoSpacing": 0.000552897,
  "DeviceSerialNumber": "166011",
  "EchoTime": 0.03,
  "EchoTrainLength": 58,
  "EffectiveEchoSpacing": 0.000580542,
  "FlipAngle": 62,
  "ImageOrientationPatientDICOM": [0.999053, -0.0417432, 0.0122578, 0.0416981, 0.999123, 0.00391491],
  "ImageType": [
    "ORIGINAL",
    "PRIMARY",
    "M",
    "ND",
    "MOSAIC"
],
  "ImagingFrequency": 123.259,
  "InPlanePhaseEncodingDirectionDICOM": "COL",
  "InstitutionAddress": "West 130th Street 610,NY,NYC,US,10025",
  "InstitutionName": "MBBI",
  "MRAcquisitionType": "2D",
  "MagneticFieldStrength": 3,
  "Manufacturer": "Siemens",
  "ManufacturersModelName": "Prisma",
  "Modality": "MR",
  "MultibandAccelerationFactor": 3,
  "PartialFourier": 0.75,
  "PatientPosition": "HFS",
  "PercentPhaseFOV": 100,
  "PercentSampling": 75,
  "PhaseEncodingDirection": "j-",
  "PhaseEncodingSteps": 58,
  "PhaseOversampling": 0.05,
  "PhaseResolution": 0.75,
  "PixelBandwidth": 2265,
  "ProcedureStepDescription": "White^Word_recognition",
  "ProtocolName": "func_catLoc_run4",
  "PulseSequenceDetails": "%SiemensSeq%\\ep2d_bold",
  "ReceiveCoilActiveElements": "HC1-7",
  "ReceiveCoilName": "HeadNeck_64",
  "ReconMatrixPE": 96,
  "RefLinesPE": 40,
  "RepetitionTime": 1.5,
  "SAR": 0.0455647,
  "ScanOptions": "PFP\\FS",
  "ScanningSequence": "EP",
  "SequenceName": "*epfid2d1_72",
  "SequenceVariant": "SK\\OSP",
  "SeriesDescription": "func_catLoc_run4",
  "SeriesNumber": 13,
  "ShimSetting": [-1156, -1365, 710, 650, -107, -46, 75, 63],
  "SliceThickness": 2,
  "SliceTiming": [1.0775, 0, 0.74, 0.0675, 0.8075, 0.135, 0.875, 0.2025, 0.9425, 0.27, 1.01, 0.405, 1.145, 0.4725, 1.2125, 0.54, 1.28, 0.605, 1.345, 0.6725, 1.4125, 0.3375, 1.0775, 0, 0.74, 0.0675, 0.8075, 0.135, 0.875, 0.2025, 0.9425, 0.27, 1.01, 0.405, 1.145, 0.4725, 1.2125, 0.54, 1.28, 0.605, 1.345, 0.6725, 1.4125, 0.3375, 1.0775, 0, 0.74, 0.0675, 0.8075, 0.135, 0.875, 0.2025, 0.9425, 0.27, 1.01, 0.405, 1.145, 0.4725, 1.2125, 0.54, 1.28, 0.605, 1.345, 0.6725, 1.4125, 0.3375],
  "SoftwareVersions": "syngo MR E11",
  "SpacingBetweenSlices": 2,
  "StationName": "AWP166011",
  "TaskName": "catLoc",
  "TotalReadoutTime": 0.0551515,
  "TxRefAmp": 217.308,
  "dcmmeta_affine": [
    [-1.9981063604354858, 0.08339618146419525, 0.02482086978852749, 95.5181884765625],
    [0.08348644524812698, 1.998245120048523, 0.006800159811973572, -80.54553985595703],
    [0.024515537545084953, -0.007829824462532997, 1.999834418296814, -35.26945495605469],
    [0.0, 0.0, 0.0, 1.0]
],
  "dcmmeta_reorient_transform": [
    [0.0, -1.0, 0.0, 95.0],
    [1.0, 0.0, 0.0, 0.0],
    [0.0, 0.0, 1.0, 0.0],
    [0.0, 0.0, 0.0, 1.0]
],
  "dcmmeta_shape": [96, 96, 66, 214],
  "dcmmeta_slice_dim": 2,
  "dcmmeta_version": 0.6,
  "global": {
    "const": {
      "AcquisitionMatrix": [96, 0, 0, 72],
      "AngioFlag": "N",
      "BitsAllocated": 16,
      "BitsStored": 12,
      "BodyPartExamined": "BRAIN",
      "Columns": 864,
      "EchoNumbers": 1,
      "EchoTime": 30.0,
      "EchoTrainLength": 58,
      "FlipAngle": 62.0,
      "HighBit": 11,
      "ImageOrientationPatient": [0.99905317694977, -0.0417432237723, 0.01225776878833, 0.04169809032711, 0.99912258643583, 0.00391491211396],
      "ImagePositionPatient": [-902.73779957047, -844.55510093003, -48.433908732436],
      "ImageType": [
        "ORIGINAL",
        "PRIMARY",
        "M",
        "ND",
        "MOSAIC"
],
      "ImagedNucleus": "1H",
      "ImagingFrequency": 123.259493,
      "InPlanePhaseEncodingDirection": "COL",
      "MRAcquisitionType": "2D",
      "MagneticFieldStrength": 3.0,
      "Manufacturer": "SIEMENS",
      "ManufacturerModelName": "Prisma",
      "Modality": "MR",
      "NumberOfAverages": 1.0,
      "NumberOfPhaseEncodingSteps": 58,
      "PercentPhaseFieldOfView": 100.0,
      "PercentSampling": 75.0,
      "PerformedProcedureStepStartTime": "165701.657000",
      "PhotometricInterpretation": "MONOCHROME2",
      "PixelBandwidth": 2265.0,
      "PixelRepresentation": 0,
      "PixelSpacing": [2.0, 2.0],
      "ProtocolName": "func_catLoc_run4",
      "RepetitionTime": 1500.0,
      "Rows": 864,
      "SAR": 0.04556472179936,
      "SamplesPerPixel": 1,
      "ScanOptions": [
        "PFP",
        "FS"
],
      "ScanningSequence": "EP",
      "SequenceName": "*epfid2d1_72",
      "SequenceVariant": [
        "SK",
        "OSP"
],
      "SeriesDescription": "func_catLoc_run4",
      "SeriesNumber": 13,
      "SeriesTime": "175202.616000",
      "SliceLocation": -34.354975448691,
      "SliceThickness": 2.0,
      "SmallestImagePixelValue": 0,
      "SoftwareVersions": "syngo MR E11",
      "SpacingBetweenSlices": 2.0000000284647,
      "SpecificCharacterSet": "ISO_IR 100",
      "StudyID": "2",
      "StudyTime": "165701.580000",
      "TransmitCoilName": "Body",
      "VariableFlipAngleFlag": "N",
      "WindowCenterWidthExplanation": "Algo1",
      "dBdt": 0.0},
    "slices": {}
  },
  "time": {
    "samples": {
      "AcquisitionNumber": [1, 2, 3, 4, 5, 6, 7, 8, 9, 10, 11, 12, 13, 14, 15, 16, 17, 18, 19, 20, 21, 22, 23, 24, 25, 26, 27, 28, 29, 30, 31, 32, 33, 34, 35, 36, 37, 38, 39, 40, 41, 42, 43, 44, 45, 46, 47, 48, 49, 50, 51, 52, 53, 54, 55, 56, 57, 58, 59, 60, 61, 62, 63, 64, 65, 66, 67, 68, 69, 70, 71, 72, 73, 74, 75, 76, 77, 78, 79, 80, 81, 82, 83, 84, 85, 86, 87, 88, 89, 90, 91, 92, 93, 94, 95, 96, 97, 98, 99, 100, 101, 102, 103, 104, 105, 106, 107, 108, 109, 110, 111, 112, 113, 114, 115, 116, 117, 118, 119, 120, 121, 122, 123, 124, 125, 126, 127, 128, 129, 130, 131, 132, 133, 134, 135, 136, 137, 138, 139, 140, 141, 142, 143, 144, 145, 146, 147, 148, 149, 150, 151, 152, 153, 154, 155, 156, 157, 158, 159, 160, 161, 162, 163, 164, 165, 166, 167, 168, 169, 170, 171, 172, 173, 174, 175, 176, 177, 178, 179, 180, 181, 182, 183, 184, 185, 186, 187, 188, 189, 190, 191, 192, 193, 194, 195, 196, 197, 198, 199, 200, 201, 202, 203, 204, 205, 206, 207, 208, 209, 210, 211, 212, 213, 214],
      "AcquisitionTime": ["175116.522500", "175118.022500", "175119.522500", "175121.022500", "175122.522500", "175124.022500", "175125.522500", "175127.022500", "175128.522500", "175130.022500", "175131.522500", "175133.022500", "175134.522500", "175136.022500", "175137.522500", "175139.022500", "175140.522500", "175142.022500", "175143.522500", "175145.022500", "175146.522500", "175148.022500", "175149.522500", "175151.022500", "175152.522500", "175154.022500", "175155.522500", "175157.022500", "175158.522500", "175200.022500", "175201.522500", "175203.022500", "175204.522500", "175206.022500", "175207.522500", "175209.022500", "175210.522500", "175212.022500", "175213.522500", "175215.022500", "175216.522500", "175218.022500", "175219.522500", "175221.022500", "175222.522500", "175224.022500", "175225.522500", "175227.022500", "175228.522500", "175230.022500", "175231.522500", "175233.022500", "175234.522500", "175236.022500", "175237.522500", "175239.022500", "175240.522500", "175242.022500", "175243.522500", "175245.022500", "175246.522500", "175248.022500", "175249.522500", "175251.022500", "175252.522500", "175254.022500", "175255.522500", "175257.022500", "175258.522500", "175300.022500", "175301.522500", "175303.022500", "175304.522500", "175306.022500", "175307.522500", "175309.022500", "175310.522500", "175312.022500", "175313.522500", "175315.022500", "175316.522500", "175318.022500", "175319.522500", "175321.022500", "175322.522500", "175324.022500", "175325.522500", "175327.022500", "175328.522500", "175330.022500", "175331.522500", "175333.022500", "175334.522500", "175336.022500", "175337.522500", "175339.022500", "175340.522500", "175342.022500", "175343.522500", "175345.022500", "175346.522500", "175348.022500", "175349.522500", "175351.022500", "175352.522500", "175354.022500", "175355.522500", "175357.022500", "175358.522500", "175400.022500", "175401.522500", "175403.022500", "175404.522500", "175406.022500", "175407.522500", "175409.022500", "175410.522500", "175412.022500", "175413.522500", "175415.022500", "175416.522500", "175418.022500", "175419.522500", "175421.022500", "175422.522500", "175424.022500", "175425.522500", "175427.022500", "175428.522500", "175430.022500", "175431.522500", "175433.022500", "175434.522500", "175436.022500", "175437.522500", "175439.022500", "175440.522500", "175442.022500", "175443.522500", "175445.022500", "175446.522500", "175448.022500", "175449.522500", "175451.022500", "175452.522500", "175454.022500", "175455.522500", "175457.022500", "175458.522500", "175500.022500", "175501.522500", "175503.022500", "175504.522500", "175506.022500", "175507.522500", "175509.022500", "175510.522500", "175512.022500", "175513.522500", "175515.022500", "175516.522500", "175518.022500", "175519.522500", "175521.022500", "175522.522500", "175524.022500", "175525.522500", "175527.022500", "175528.522500", "175530.022500", "175531.522500", "175533.022500", "175534.522500", "175536.022500", "175537.522500", "175539.022500", "175540.522500", "175542.022500", "175543.522500", "175545.022500", "175546.522500", "175548.022500", "175549.522500", "175551.022500", "175552.522500", "175554.022500", "175555.522500", "175557.022500", "175558.522500", "175600.022500", "175601.522500", "175603.022500", "175604.522500", "175606.022500", "175607.522500", "175609.022500", "175610.522500", "175612.022500", "175613.522500", "175615.022500", "175616.522500", "175618.022500", "175619.522500", "175621.022500", "175622.522500", "175624.022500", "175625.522500", "175627.022500", "175628.522500", "175630.022500", "175631.522500", "175633.022500", "175634.522500", "175636.022500"],
      "ContentTime": ["175202.620000", "175202.624000", "175202.627000", "175202.630000", "175202.639000", "175202.642000", "175202.645000", "175202.649000", "175202.652000", "175202.655000", "175202.658000", "175202.661000", "175202.664000", "175202.669000", "175202.672000", "175202.675000", "175202.678000", "175202.681000", "175202.684000", "175202.687000", "175202.690000", "175202.694000", "175202.696000", "175202.699000", "175202.703000", "175202.706000", "175202.709000", "175202.712000", "175202.715000", "175202.718000", "175202.721000", "175242.615000", "175242.618000", "175242.621000", "175242.624000", "175242.627000", "175242.631000", "175242.634000", "175242.637000", "175242.640000", "175242.643000", "175242.646000", "175242.649000", "175242.652000", "175242.667000", "175242.670000", "175242.673000", "175242.676000", "175242.679000", "175242.683000", "175242.685000", "175242.688000", "175242.692000", "175242.695000", "175242.698000", "175242.701000", "175242.704000", "175322.615000", "175322.618000", "175322.622000", "175322.625000", "175322.628000", "175322.631000", "175322.634000", "175322.637000", "175322.640000", "175322.643000", "175322.646000", "175322.649000", "175322.652000", "175322.655000", "175322.658000", "175322.661000", "175322.664000", "175322.668000", "175322.671000", "175322.674000", "175322.677000", "175322.680000", "175322.683000", "175322.686000", "175322.689000", "175322.692000", "175322.695000", "175402.615000", "175402.618000", "175402.621000", "175402.625000", "175402.628000", "175402.631000", "175402.634000", "175402.637000", "175402.640000", "175402.643000", "175402.646000", "175402.649000", "175402.652000", "175402.655000", "175402.658000", "175402.661000", "175402.665000", "175402.668000", "175402.671000", "175402.674000", "175402.677000", "175402.680000", "175402.683000", "175402.686000", "175402.689000", "175402.692000", "175402.695000", "175442.615000", "175442.619000", "175442.622000", "175442.625000", "175442.628000", "175442.631000", "175442.634000", "175442.637000", "175442.640000", "175442.643000", "175442.646000", "175442.649000", "175442.652000", "175442.655000", "175442.659000", "175442.662000", "175442.665000", "175442.668000", "175442.671000", "175442.674000", "175442.677000", "175442.680000", "175442.683000", "175442.686000", "175442.689000", "175442.693000", "175522.615000", "175522.618000", "175522.622000", "175522.625000", "175522.628000", "175522.631000", "175522.634000", "175522.637000", "175522.640000", "175522.643000", "175522.646000", "175522.649000", "175522.652000", "175522.656000", "175522.659000", "175522.661000", "175522.665000", "175522.668000", "175522.671000", "175522.674000", "175522.677000", "175522.680000", "175522.683000", "175522.686000", "175522.689000", "175522.692000", "175522.695000", "175602.615000", "175602.618000", "175602.621000", "175602.624000", "175602.628000", "175602.631000", "175602.634000", "175602.637000", "175602.640000", "175602.643000", "175602.662000", "175602.665000", "175602.668000", "175602.671000", "175602.674000", "175602.677000", "175602.681000", "175602.684000", "175602.687000", "175602.690000", "175602.693000", "175602.696000", "175602.699000", "175602.702000", "175602.705000", "175602.708000", "175602.711000", "175622.615000", "175622.618000", "175622.621000", "175622.625000", "175622.628000", "175622.631000", "175622.634000", "175622.637000", "175622.640000", "175622.643000", "175622.646000", "175622.649000", "175622.652000", "175637.004000", "175637.007000", "175637.011000", "175637.014000", "175637.017000", "175637.020000", "175637.024000", "175637.027000", "175637.030000", "175637.033000"],
      "InstanceCreationTime": ["175202.620000", "175202.624000", "175202.627000", "175202.630000", "175202.639000", "175202.642000", "175202.645000", "175202.649000", "175202.652000", "175202.655000", "175202.658000", "175202.661000", "175202.664000", "175202.669000", "175202.672000", "175202.675000", "175202.678000", "175202.681000", "175202.684000", "175202.687000", "175202.690000", "175202.694000", "175202.696000", "175202.699000", "175202.703000", "175202.706000", "175202.709000", "175202.712000", "175202.715000", "175202.718000", "175202.721000", "175242.615000", "175242.618000", "175242.621000", "175242.624000", "175242.627000", "175242.631000", "175242.634000", "175242.637000", "175242.640000", "175242.643000", "175242.646000", "175242.649000", "175242.652000", "175242.667000", "175242.670000", "175242.673000", "175242.676000", "175242.679000", "175242.683000", "175242.685000", "175242.688000", "175242.692000", "175242.695000", "175242.698000", "175242.701000", "175242.704000", "175322.615000", "175322.618000", "175322.622000", "175322.625000", "175322.628000", "175322.631000", "175322.634000", "175322.637000", "175322.640000", "175322.643000", "175322.646000", "175322.649000", "175322.652000", "175322.655000", "175322.658000", "175322.661000", "175322.664000", "175322.668000", "175322.671000", "175322.674000", "175322.677000", "175322.680000", "175322.683000", "175322.686000", "175322.689000", "175322.692000", "175322.695000", "175402.615000", "175402.618000", "175402.621000", "175402.625000", "175402.628000", "175402.631000", "175402.634000", "175402.637000", "175402.640000", "175402.643000", "175402.646000", "175402.649000", "175402.652000", "175402.655000", "175402.658000", "175402.661000", "175402.665000", "175402.668000", "175402.671000", "175402.674000", "175402.677000", "175402.680000", "175402.683000", "175402.686000", "175402.689000", "175402.692000", "175402.695000", "175442.615000", "175442.619000", "175442.622000", "175442.625000", "175442.628000", "175442.631000", "175442.634000", "175442.637000", "175442.640000", "175442.643000", "175442.646000", "175442.649000", "175442.652000", "175442.655000", "175442.659000", "175442.662000", "175442.665000", "175442.668000", "175442.671000", "175442.674000", "175442.677000", "175442.680000", "175442.683000", "175442.686000", "175442.689000", "175442.693000", "175522.615000", "175522.618000", "175522.622000", "175522.625000", "175522.628000", "175522.631000", "175522.634000", "175522.637000", "175522.640000", "175522.643000", "175522.646000", "175522.649000", "175522.652000", "175522.656000", "175522.659000", "175522.661000", "175522.665000", "175522.668000", "175522.671000", "175522.674000", "175522.677000", "175522.680000", "175522.683000", "175522.686000", "175522.689000", "175522.692000", "175522.695000", "175602.615000", "175602.618000", "175602.621000", "175602.624000", "175602.628000", "175602.631000", "175602.634000", "175602.637000", "175602.640000", "175602.643000", "175602.662000", "175602.665000", "175602.668000", "175602.671000", "175602.674000", "175602.677000", "175602.681000", "175602.684000", "175602.687000", "175602.690000", "175602.693000", "175602.696000", "175602.699000", "175602.702000", "175602.705000", "175602.708000", "175602.711000", "175622.615000", "175622.618000", "175622.621000", "175622.625000", "175622.628000", "175622.631000", "175622.634000", "175622.637000", "175622.640000", "175622.643000", "175622.646000", "175622.649000", "175622.652000", "175637.004000", "175637.007000", "175637.011000", "175637.014000", "175637.017000", "175637.020000", "175637.024000", "175637.027000", "175637.030000", "175637.033000"],
      "InstanceNumber": [1, 2, 3, 4, 5, 6, 7, 8, 9, 10, 11, 12, 13, 14, 15, 16, 17, 18, 19, 20, 21, 22, 23, 24, 25, 26, 27, 28, 29, 30, 31, 32, 33, 34, 35, 36, 37, 38, 39, 40, 41, 42, 43, 44, 45, 46, 47, 48, 49, 50, 51, 52, 53, 54, 55, 56, 57, 58, 59, 60, 61, 62, 63, 64, 65, 66, 67, 68, 69, 70, 71, 72, 73, 74, 75, 76, 77, 78, 79, 80, 81, 82, 83, 84, 85, 86, 87, 88, 89, 90, 91, 92, 93, 94, 95, 96, 97, 98, 99, 100, 101, 102, 103, 104, 105, 106, 107, 108, 109, 110, 111, 112, 113, 114, 115, 116, 117, 118, 119, 120, 121, 122, 123, 124, 125, 126, 127, 128, 129, 130, 131, 132, 133, 134, 135, 136, 137, 138, 139, 140, 141, 142, 143, 144, 145, 146, 147, 148, 149, 150, 151, 152, 153, 154, 155, 156, 157, 158, 159, 160, 161, 162, 163, 164, 165, 166, 167, 168, 169, 170, 171, 172, 173, 174, 175, 176, 177, 178, 179, 180, 181, 182, 183, 184, 185, 186, 187, 188, 189, 190, 191, 192, 193, 194, 195, 196, 197, 198, 199, 200, 201, 202, 203, 204, 205, 206, 207, 208, 209, 210, 211, 212, 213, 214],
      "LargestImagePixelValue": [2909, 2781, 2725, 2719, 2602, 2668, 2690, 2641, 2663, 2634, 2634, 2591, 2599, 2732, 2747, 2778, 2791, 2845, 2867, 2752, 2837, 2761, 2759, 2722, 2756, 2724, 2731, 2739, 2806, 2753, 2775, 2770, 2836, 2794, 2834, 2881, 2899, 2885, 2892, 2927, 2891, 2962, 2997, 2910, 2798, 2682, 2727, 2722, 2696, 2766, 2731, 2761, 2785, 2877, 2757, 2837, 2800, 2854, 2854, 2797, 2847, 2823, 2882, 2801, 2845, 2737, 2792, 2738, 2769, 2847, 2780, 2775, 2718, 2776, 2722, 2749, 2707, 2793, 2694, 2788, 2763, 2837, 2783, 2810, 2782, 2938, 2949, 2864, 2888, 2911, 2847, 2916, 2892, 2790, 2790, 2901, 2862, 2851, 2867, 2871, 2835, 2810, 2891, 2918, 2916, 2937, 2956, 2965, 2947, 2976, 3003, 3003, 2932, 2513, 2311, 2420, 2607, 2801, 2850, 2667, 2621, 2627, 2695, 2668, 2681, 2684, 2657, 2700, 2671, 2711, 2717, 2672, 2707, 2657, 2661, 2639, 2650, 2645, 2702, 2642, 2626, 2588, 2643, 2657, 2660, 2676, 2655, 2665, 2687, 2682, 2662, 2657, 2675, 2657, 2648, 2690, 2697, 2692, 2718, 2694, 2655, 2698, 2678, 2692, 2688, 2672, 2688, 2677, 2688, 2688, 2679, 2714, 2723, 2714, 2704, 2670, 2657, 2666, 2661, 2631, 2644, 2659, 2672, 2659, 2670, 2647, 2652, 2652, 2686, 2696, 2710, 2681, 2668, 2672, 2683, 2700, 2690, 2666, 2663, 2651, 2657, 2664, 2691, 2643, 2624, 2652, 2688, 2706, 2713, 2678, 2676, 2699, 2971, 2710],
      "WindowCenter": [726.0, 724.0, 723.0, 719.0, 701.0, 712.0, 711.0, 710.0, 709.0, 710.0, 710.0, 712.0, 713.0, 713.0, 718.0, 721.0, 721.0, 721.0, 715.0, 725.0, 726.0, 726.0, 726.0, 726.0, 725.0, 725.0, 725.0, 725.0, 726.0, 726.0, 727.0, 727.0, 728.0, 728.0, 728.0, 728.0, 728.0, 729.0, 729.0, 728.0, 727.0, 725.0, 728.0, 724.0, 724.0, 722.0, 722.0, 721.0, 722.0, 722.0, 722.0, 722.0, 721.0, 723.0, 722.0, 723.0, 722.0, 723.0, 724.0, 724.0, 724.0, 725.0, 725.0, 725.0, 724.0, 722.0, 722.0, 721.0, 721.0, 721.0, 721.0, 721.0, 722.0, 722.0, 722.0, 722.0, 722.0, 723.0, 723.0, 724.0, 725.0, 725.0, 726.0, 725.0, 724.0, 725.0, 725.0, 726.0, 725.0, 724.0, 723.0, 722.0, 721.0, 721.0, 721.0, 722.0, 722.0, 722.0, 722.0, 718.0, 716.0, 722.0, 722.0, 722.0, 723.0, 724.0, 725.0, 724.0, 724.0, 724.0, 724.0, 717.0, 727.0, 687.0, 666.0, 696.0, 709.0, 706.0, 710.0, 710.0, 712.0, 712.0, 712.0, 712.0, 712.0, 712.0, 713.0, 714.0, 715.0, 715.0, 714.0, 713.0, 713.0, 713.0, 713.0, 713.0, 713.0, 712.0, 712.0, 712.0, 712.0, 711.0, 711.0, 710.0, 710.0, 710.0, 709.0, 709.0, 709.0, 710.0, 711.0, 711.0, 712.0, 712.0, 711.0, 710.0, 710.0, 711.0, 712.0, 712.0, 712.0, 713.0, 714.0, 714.0, 713.0, 713.0, 712.0, 711.0, 711.0, 712.0, 713.0, 714.0, 715.0, 715.0, 714.0, 712.0, 711.0, 711.0, 711.0, 711.0, 711.0, 711.0, 711.0, 710.0, 710.0, 710.0, 709.0, 710.0, 710.0, 710.0, 710.0, 710.0, 711.0, 712.0, 712.0, 713.0, 712.0, 712.0, 712.0, 713.0, 713.0, 713.0, 712.0, 712.0, 711.0, 711.0, 712.0, 712.0, 712.0, 713.0, 712.0, 701.0, 679.0, 686.0],
      "WindowWidth": [1588.0, 1582.0, 1579.0, 1568.0, 1518.0, 1545.0, 1542.0, 1539.0, 1539.0, 1540.0, 1541.0, 1546.0, 1549.0, 1552.0, 1564.0, 1574.0, 1574.0, 1573.0, 1557.0, 1584.0, 1588.0, 1587.0, 1587.0, 1586.0, 1585.0, 1584.0, 1585.0, 1586.0, 1587.0, 1587.0, 1589.0, 1591.0, 1592.0, 1592.0, 1592.0, 1592.0, 1594.0, 1596.0, 1595.0, 1593.0, 1589.0, 1585.0, 1591.0, 1582.0, 1580.0, 1576.0, 1574.0, 1573.0, 1574.0, 1575.0, 1575.0, 1575.0, 1572.0, 1578.0, 1576.0, 1577.0, 1577.0, 1578.0, 1581.0, 1581.0, 1583.0, 1585.0, 1585.0, 1583.0, 1581.0, 1576.0, 1575.0, 1573.0, 1572.0, 1572.0, 1573.0, 1573.0, 1574.0, 1574.0, 1575.0, 1576.0, 1574.0, 1577.0, 1577.0, 1581.0, 1583.0, 1585.0, 1586.0, 1584.0, 1580.0, 1585.0, 1585.0, 1586.0, 1583.0, 1580.0, 1577.0, 1575.0, 1571.0, 1572.0, 1573.0, 1575.0, 1574.0, 1574.0, 1575.0, 1564.0, 1559.0, 1575.0, 1574.0, 1576.0, 1579.0, 1581.0, 1583.0, 1581.0, 1580.0, 1582.0, 1582.0, 1563.0, 1590.0, 1479.0, 1426.0, 1506.0, 1539.0, 1530.0, 1541.0, 1540.0, 1545.0, 1545.0, 1546.0, 1547.0, 1547.0, 1547.0, 1549.0, 1551.0, 1555.0, 1555.0, 1551.0, 1548.0, 1548.0, 1548.0, 1550.0, 1548.0, 1548.0, 1546.0, 1546.0, 1546.0, 1546.0, 1544.0, 1543.0, 1541.0, 1539.0, 1540.0, 1538.0, 1537.0, 1538.0, 1540.0, 1543.0, 1544.0, 1545.0, 1545.0, 1543.0, 1540.0, 1541.0, 1542.0, 1545.0, 1546.0, 1546.0, 1549.0, 1551.0, 1552.0, 1549.0, 1547.0, 1544.0, 1543.0, 1543.0, 1545.0, 1548.0, 1550.0, 1553.0, 1554.0, 1551.0, 1547.0, 1543.0, 1543.0, 1542.0, 1542.0, 1543.0, 1543.0, 1542.0, 1540.0, 1539.0, 1539.0, 1538.0, 1540.0, 1540.0, 1540.0, 1540.0, 1540.0, 1542.0, 1545.0, 1547.0, 1549.0, 1547.0, 1547.0, 1547.0, 1549.0, 1549.0, 1548.0, 1547.0, 1546.0, 1543.0, 1543.0, 1545.0, 1546.0, 1547.0, 1547.0, 1546.0, 1520.0, 1458.0, 1476.0]
    },
    "slices": {}
  }
}