{
  "AcquisitionMatrixPE": 72,
  "AcquisitionNumber": 1,
  "AcquisitionTime": "18:45:46.567500",
  "BandwidthPerPixelPhaseEncode": 17.943,
  "BaseResolution": 96,
  "BodyPartExamined": "BRAIN",
  "CoilCombinationMethod": "Sum of Squares",
  "ConsistencyInfo": "N4_VE11C_LATEST_20160120",
  "ConversionSoftware": "dcm2niix",
  "ConversionSoftwareVersion": "v1.0.20211006",
  "DerivedVendorReportedEchoSpacing": 0.000552897,
  "DeviceSerialNumber": "166011",
  "EchoTime": 0.03,
  "EchoTrainLength": 58,
  "EffectiveEchoSpacing": 0.000580542,
  "FlipAngle": 62,
  "ImageOrientationPatientDICOM": [0.998183, 0.0178568, 0.0575566, -0.0174234, 0.999816, -0.00802286],
  "ImageType": [
    "ORIGINAL",
    "PRIMARY",
    "M",
    "ND",
    "MOSAIC"
],
  "ImagingFrequency": 123.259,
  "InPlanePhaseEncodingDirectionDICOM": "COL",
  "InstitutionAddress": "West 130th Street 610,NY,NYC,US,10025",
  "InstitutionName": "MBBI",
  "MRAcquisitionType": "2D",
  "MagneticFieldStrength": 3,
  "Manufacturer": "Siemens",
  "ManufacturersModelName": "Prisma",
  "Modality": "MR",
  "MultibandAccelerationFactor": 3,
  "PartialFourier": 0.75,
  "PatientPosition": "HFS",
  "PercentPhaseFOV": 100,
  "PercentSampling": 75,
  "PhaseEncodingDirection": "j-",
  "PhaseEncodingSteps": 58,
  "PhaseOversampling": 0.05,
  "PhaseResolution": 0.75,
  "PixelBandwidth": 2265,
  "ProcedureStepDescription": "White^Word_recognition",
  "ProtocolName": "func_language_run2",
  "PulseSequenceDetails": "%SiemensSeq%\\ep2d_bold",
  "ReceiveCoilActiveElements": "HC1-7",
  "ReceiveCoilName": "HeadNeck_64",
  "ReconMatrixPE": 96,
  "RefLinesPE": 40,
  "RepetitionTime": 1.5,
  "SAR": 0.0503577,
  "ScanOptions": "PFP\\FS",
  "ScanningSequence": "EP",
  "SequenceName": "*epfid2d1_72",
  "SequenceVariant": "SK\\OSP",
  "SeriesDescription": "func_language_run2",
  "SeriesNumber": 12,
  "ShimSetting": [-1136, -1386, 689, 581, -71, -103, -44, -18],
  "SliceThickness": 2,
  "SliceTiming": [1.0775, 0, 0.74, 0.0675, 0.8075, 0.135, 0.875, 0.2025, 0.9425, 0.27, 1.01, 0.405, 1.145, 0.4725, 1.2125, 0.54, 1.28, 0.6075, 1.3475, 0.675, 1.415, 0.3375, 1.0775, 0, 0.74, 0.0675, 0.8075, 0.135, 0.875, 0.2025, 0.9425, 0.27, 1.01, 0.405, 1.145, 0.4725, 1.2125, 0.54, 1.28, 0.6075, 1.3475, 0.675, 1.415, 0.3375, 1.0775, 0, 0.74, 0.0675, 0.8075, 0.135, 0.875, 0.2025, 0.9425, 0.27, 1.01, 0.405, 1.145, 0.4725, 1.2125, 0.54, 1.28, 0.6075, 1.3475, 0.675, 1.415, 0.3375],
  "SoftwareVersions": "syngo MR E11",
  "SpacingBetweenSlices": 2,
  "StationName": "AWP166011",
  "TaskName": "langLoc",
  "TotalReadoutTime": 0.0551515,
  "TxRefAmp": 217.565,
  "dcmmeta_affine": [
    [-1.9963650703430176, -0.03484679013490677, 0.11537857353687286, 97.50405883789062],
    [-0.0357135646045208, 1.9996320009231567, -0.014010893180966377, -75.61785888671875],
    [0.11511322855949402, 0.016045719385147095, 1.9966200590133667, -46.63097381591797],
    [0.0, 0.0, 0.0, 1.0]
],
  "dcmmeta_reorient_transform": [
    [0.0, -1.0, 0.0, 95.0],
    [1.0, 0.0, 0.0, 0.0],
    [0.0, 0.0, 1.0, 0.0],
    [0.0, 0.0, 0.0, 1.0]
],
  "dcmmeta_shape": [96, 96, 66, 239],
  "dcmmeta_slice_dim": 2,
  "dcmmeta_version": 0.6,
  "global": {
    "const": {
      "AcquisitionMatrix": [96, 0, 0, 72],
      "AngioFlag": "N",
      "BitsAllocated": 16,
      "BitsStored": 12,
      "BodyPartExamined": "BRAIN",
      "Columns": 864,
      "EchoNumbers": 1,
      "EchoTime": 30.0,
      "EchoTrainLength": 58,
      "FlipAngle": 62.0,
      "HighBit": 11,
      "ImageOrientationPatient": [0.99818253404803, 0.01785678245405, 0.05755661596935, -0.0174233948182, 0.99981601259405, -0.0080228594372],
      "ImagePositionPatient": [-847.41663029879, -895.91988772551, -83.148556482428],
      "ImageType": [
        "ORIGINAL",
        "PRIMARY",
        "M",
        "ND",
        "MOSAIC"
],
      "ImagedNucleus": "1H",
      "ImagingFrequency": 123.259499,
      "InPlanePhaseEncodingDirection": "COL",
      "MRAcquisitionType": "2D",
      "MagneticFieldStrength": 3.0,
      "Manufacturer": "SIEMENS",
      "ManufacturerModelName": "Prisma",
      "Modality": "MR",
      "NumberOfAverages": 1.0,
      "NumberOfPhaseEncodingSteps": 58,
      "PercentPhaseFieldOfView": 100.0,
      "PercentSampling": 75.0,
      "PerformedProcedureStepStartTime": "180110.988000",
      "PhotometricInterpretation": "MONOCHROME2",
      "PixelBandwidth": 2265.0,
      "PixelRepresentation": 0,
      "PixelSpacing": [2.0, 2.0],
      "ProtocolName": "func_language_run2",
      "RepetitionTime": 1500.0,
      "Rows": 864,
      "SAR": 0.05035767277631,
      "SamplesPerPixel": 1,
      "ScanOptions": [
        "PFP",
        "FS"
],
      "ScanningSequence": "EP",
      "SequenceName": "*epfid2d1_72",
      "SequenceVariant": [
        "SK",
        "OSP"
],
      "SeriesDescription": "func_language_run2",
      "SeriesNumber": 12,
      "SeriesTime": "184619.003000",
      "SliceLocation": -40.397492184313,
      "SliceThickness": 2.0,
      "SmallestImagePixelValue": 0,
      "SoftwareVersions": "syngo MR E11",
      "SpacingBetweenSlices": 1.9999999885712,
      "SpecificCharacterSet": "ISO_IR 100",
      "StudyID": "3",
      "StudyTime": "180110.867000",
      "TransmitCoilName": "Body",
      "VariableFlipAngleFlag": "N",
      "WindowCenterWidthExplanation": "Algo1",
      "dBdt": 0.0},
    "slices": {}
  },
  "time": {
    "samples": {
      "AcquisitionNumber": [1, 2, 3, 4, 5, 6, 7, 8, 9, 10, 11, 12, 13, 14, 15, 16, 17, 18, 19, 20, 21, 22, 23, 24, 25, 26, 27, 28, 29, 30, 31, 32, 33, 34, 35, 36, 37, 38, 39, 40, 41, 42, 43, 44, 45, 46, 47, 48, 49, 50, 51, 52, 53, 54, 55, 56, 57, 58, 59, 60, 61, 62, 63, 64, 65, 66, 67, 68, 69, 70, 71, 72, 73, 74, 75, 76, 77, 78, 79, 80, 81, 82, 83, 84, 85, 86, 87, 88, 89, 90, 91, 92, 93, 94, 95, 96, 97, 98, 99, 100, 101, 102, 103, 104, 105, 106, 107, 108, 109, 110, 111, 112, 113, 114, 115, 116, 117, 118, 119, 120, 121, 122, 123, 124, 125, 126, 127, 128, 129, 130, 131, 132, 133, 134, 135, 136, 137, 138, 139, 140, 141, 142, 143, 144, 145, 146, 147, 148, 149, 150, 151, 152, 153, 154, 155, 156, 157, 158, 159, 160, 161, 162, 163, 164, 165, 166, 167, 168, 169, 170, 171, 172, 173, 174, 175, 176, 177, 178, 179, 180, 181, 182, 183, 184, 185, 186, 187, 188, 189, 190, 191, 192, 193, 194, 195, 196, 197, 198, 199, 200, 201, 202, 203, 204, 205, 206, 207, 208, 209, 210, 211, 212, 213, 214, 215, 216, 217, 218, 219, 220, 221, 222, 223, 224, 225, 226, 227, 228, 229, 230, 231, 232, 233, 234, 235, 236, 237, 238, 239],
      "AcquisitionTime": ["184546.567500", "184548.067500", "184549.567500", "184551.067500", "184552.567500", "184554.067500", "184555.567500", "184557.067500", "184558.567500", "184600.067500", "184601.567500", "184603.067500", "184604.567500", "184606.067500", "184607.567500", "184609.067500", "184610.567500", "184612.067500", "184613.567500", "184615.067500", "184616.567500", "184618.067500", "184619.567500", "184621.067500", "184622.567500", "184624.067500", "184625.567500", "184627.067500", "184628.567500", "184630.067500", "184631.567500", "184633.067500", "184634.567500", "184636.067500", "184637.567500", "184639.067500", "184640.567500", "184642.067500", "184643.567500", "184645.067500", "184646.567500", "184648.067500", "184649.567500", "184651.067500", "184652.567500", "184654.067500", "184655.567500", "184657.067500", "184658.567500", "184700.067500", "184701.567500", "184703.067500", "184704.567500", "184706.067500", "184707.567500", "184709.067500", "184710.567500", "184712.067500", "184713.567500", "184715.067500", "184716.567500", "184718.067500", "184719.567500", "184721.067500", "184722.567500", "184724.067500", "184725.567500", "184727.067500", "184728.567500", "184730.067500", "184731.567500", "184733.067500", "184734.567500", "184736.067500", "184737.567500", "184739.067500", "184740.567500", "184742.067500", "184743.567500", "184745.067500", "184746.567500", "184748.067500", "184749.567500", "184751.067500", "184752.567500", "184754.067500", "184755.567500", "184757.067500", "184758.567500", "184800.067500", "184801.567500", "184803.067500", "184804.567500", "184806.067500", "184807.567500", "184809.067500", "184810.567500", "184812.067500", "184813.567500", "184815.067500", "184816.567500", "184818.067500", "184819.567500", "184821.067500", "184822.567500", "184824.067500", "184825.567500", "184827.067500", "184828.567500", "184830.067500", "184831.567500", "184833.067500", "184834.567500", "184836.067500", "184837.567500", "184839.067500", "184840.567500", "184842.067500", "184843.567500", "184845.067500", "184846.567500", "184848.067500", "184849.567500", "184851.067500", "184852.567500", "184854.067500", "184855.567500", "184857.067500", "184858.567500", "184900.067500", "184901.567500", "184903.067500", "184904.567500", "184906.067500", "184907.567500", "184909.067500", "184910.567500", "184912.067500", "184913.567500", "184915.067500", "184916.567500", "184918.067500", "184919.567500", "184921.067500", "184922.567500", "184924.067500", "184925.567500", "184927.067500", "184928.567500", "184930.067500", "184931.567500", "184933.067500", "184934.567500", "184936.067500", "184937.567500", "184939.067500", "184940.567500", "184942.067500", "184943.567500", "184945.067500", "184946.567500", "184948.067500", "184949.567500", "184951.067500", "184952.567500", "184954.067500", "184955.567500", "184957.067500", "184958.567500", "185000.067500", "185001.567500", "185003.067500", "185004.567500", "185006.067500", "185007.567500", "185009.067500", "185010.567500", "185012.067500", "185013.567500", "185015.067500", "185016.567500", "185018.067500", "185019.567500", "185021.067500", "185022.567500", "185024.067500", "185025.567500", "185027.067500", "185028.567500", "185030.067500", "185031.567500", "185033.067500", "185034.567500", "185036.067500", "185037.567500", "185039.067500", "185040.567500", "185042.067500", "185043.567500", "185045.067500", "185046.567500", "185048.067500", "185049.567500", "185051.067500", "185052.567500", "185054.067500", "185055.567500", "185057.067500", "185058.567500", "185100.067500", "185101.567500", "185103.067500", "185104.567500", "185106.067500", "185107.567500", "185109.067500", "185110.567500", "185112.067500", "185113.567500", "185115.067500", "185116.567500", "185118.067500", "185119.567500", "185121.067500", "185122.567500", "185124.067500", "185125.567500", "185127.067500", "185128.567500", "185130.067500", "185131.567500", "185133.067500", "185134.567500", "185136.067500", "185137.567500", "185139.067500", "185140.567500", "185142.067500", "185143.567500"],
      "ContentTime": ["184619.007000", "184619.011000", "184619.014000", "184619.017000", "184619.021000", "184619.024000", "184619.027000", "184619.030000", "184619.033000", "184619.036000", "184619.039000", "184619.050000", "184619.053000", "184619.056000", "184619.059000", "184619.069000", "184619.073000", "184619.076000", "184619.079000", "184619.082000", "184619.085000", "184639.002000", "184639.005000", "184639.008000", "184639.011000", "184639.015000", "184639.018000", "184639.021000", "184639.024000", "184639.027000", "184639.030000", "184639.033000", "184639.042000", "184639.046000", "184719.002000", "184719.006000", "184719.009000", "184719.012000", "184719.015000", "184719.022000", "184719.025000", "184719.028000", "184719.031000", "184719.034000", "184719.037000", "184719.040000", "184719.043000", "184719.047000", "184719.050000", "184719.077000", "184719.080000", "184719.083000", "184719.086000", "184719.089000", "184719.092000", "184719.095000", "184719.098000", "184719.101000", "184719.104000", "184719.108000", "184719.111000", "184759.002000", "184759.005000", "184759.008000", "184759.011000", "184759.015000", "184759.017000", "184759.020000", "184759.023000", "184759.027000", "184759.030000", "184759.033000", "184759.036000", "184759.039000", "184759.042000", "184759.045000", "184759.048000", "184759.051000", "184759.054000", "184759.057000", "184759.060000", "184759.063000", "184759.066000", "184759.069000", "184759.072000", "184759.075000", "184759.078000", "184759.081000", "184839.002000", "184839.012000", "184839.015000", "184839.018000", "184839.021000", "184839.024000", "184839.027000", "184839.031000", "184839.034000", "184839.037000", "184839.040000", "184839.053000", "184839.056000", "184839.060000", "184839.063000", "184839.066000", "184839.069000", "184839.072000", "184839.075000", "184839.078000", "184839.081000", "184839.084000", "184839.087000", "184839.090000", "184839.093000", "184839.096000", "184919.002000", "184919.005000", "184919.009000", "184919.012000", "184919.015000", "184919.018000", "184919.021000", "184919.024000", "184919.027000", "184919.030000", "184919.033000", "184919.036000", "184919.039000", "184919.042000", "184919.046000", "184919.049000", "184919.052000", "184919.055000", "184919.067000", "184919.070000", "184919.073000", "184919.076000", "184919.079000", "184919.082000", "184919.086000", "184919.089000", "184919.092000", "184959.002000", "184959.005000", "184959.008000", "184959.011000", "184959.015000", "184959.018000", "184959.021000", "184959.024000", "184959.027000", "184959.030000", "184959.033000", "184959.036000", "184959.039000", "184959.042000", "184959.045000", "184959.048000", "184959.051000", "184959.054000", "184959.057000", "184959.060000", "184959.063000", "184959.066000", "184959.069000", "184959.072000", "184959.076000", "184959.079000", "184959.081000", "185039.002000", "185039.005000", "185039.009000", "185039.012000", "185039.015000", "185039.018000", "185039.021000", "185039.024000", "185039.027000", "185039.030000", "185039.033000", "185039.036000", "185039.039000", "185039.043000", "185039.046000", "185039.049000", "185039.052000", "185039.055000", "185039.058000", "185039.061000", "185039.064000", "185039.067000", "185039.070000", "185039.073000", "185039.076000", "185039.079000", "185119.002000", "185119.006000", "185119.009000", "185119.012000", "185119.015000", "185119.018000", "185119.021000", "185119.024000", "185119.027000", "185119.030000", "185119.033000", "185119.036000", "185119.039000", "185119.043000", "185119.046000", "185119.049000", "185119.052000", "185119.055000", "185119.058000", "185119.061000", "185119.064000", "185119.067000", "185119.070000", "185119.073000", "185119.076000", "185119.079000", "185119.082000", "185145.201000", "185145.204000", "185145.208000", "185145.211000", "185145.214000", "185145.218000", "185145.221000", "185145.224000", "185145.228000", "185145.231000", "185145.235000", "185145.239000", "185145.243000", "185145.246000", "185145.250000", "185145.253000", "185145.256000", "185145.260000"],
      "InstanceCreationTime": ["184619.007000", "184619.011000", "184619.014000", "184619.017000", "184619.021000", "184619.024000", "184619.027000", "184619.030000", "184619.033000", "184619.036000", "184619.039000", "184619.050000", "184619.053000", "184619.056000", "184619.059000", "184619.069000", "184619.073000", "184619.076000", "184619.079000", "184619.082000", "184619.085000", "184639.002000", "184639.005000", "184639.008000", "184639.011000", "184639.015000", "184639.018000", "184639.021000", "184639.024000", "184639.027000", "184639.030000", "184639.033000", "184639.042000", "184639.046000", "184719.002000", "184719.006000", "184719.009000", "184719.012000", "184719.015000", "184719.022000", "184719.025000", "184719.028000", "184719.031000", "184719.034000", "184719.037000", "184719.040000", "184719.043000", "184719.047000", "184719.050000", "184719.077000", "184719.080000", "184719.083000", "184719.086000", "184719.089000", "184719.092000", "184719.095000", "184719.098000", "184719.101000", "184719.104000", "184719.108000", "184719.111000", "184759.002000", "184759.005000", "184759.008000", "184759.011000", "184759.015000", "184759.017000", "184759.020000", "184759.023000", "184759.027000", "184759.030000", "184759.033000", "184759.036000", "184759.039000", "184759.042000", "184759.045000", "184759.048000", "184759.051000", "184759.054000", "184759.057000", "184759.060000", "184759.063000", "184759.066000", "184759.069000", "184759.072000", "184759.075000", "184759.078000", "184759.081000", "184839.002000", "184839.012000", "184839.015000", "184839.018000", "184839.021000", "184839.024000", "184839.027000", "184839.031000", "184839.034000", "184839.037000", "184839.040000", "184839.053000", "184839.056000", "184839.060000", "184839.063000", "184839.066000", "184839.069000", "184839.072000", "184839.075000", "184839.078000", "184839.081000", "184839.084000", "184839.087000", "184839.090000", "184839.093000", "184839.096000", "184919.002000", "184919.005000", "184919.009000", "184919.012000", "184919.015000", "184919.018000", "184919.021000", "184919.024000", "184919.027000", "184919.030000", "184919.033000", "184919.036000", "184919.039000", "184919.042000", "184919.046000", "184919.049000", "184919.052000", "184919.055000", "184919.067000", "184919.070000", "184919.073000", "184919.076000", "184919.079000", "184919.082000", "184919.086000", "184919.089000", "184919.092000", "184959.002000", "184959.005000", "184959.008000", "184959.011000", "184959.015000", "184959.018000", "184959.021000", "184959.024000", "184959.027000", "184959.030000", "184959.033000", "184959.036000", "184959.039000", "184959.042000", "184959.045000", "184959.048000", "184959.051000", "184959.054000", "184959.057000", "184959.060000", "184959.063000", "184959.066000", "184959.069000", "184959.072000", "184959.076000", "184959.079000", "184959.081000", "185039.002000", "185039.005000", "185039.009000", "185039.012000", "185039.015000", "185039.018000", "185039.021000", "185039.024000", "185039.027000", "185039.030000", "185039.033000", "185039.036000", "185039.039000", "185039.043000", "185039.046000", "185039.049000", "185039.052000", "185039.055000", "185039.058000", "185039.061000", "185039.064000", "185039.067000", "185039.070000", "185039.073000", "185039.076000", "185039.079000", "185119.002000", "185119.006000", "185119.009000", "185119.012000", "185119.015000", "185119.018000", "185119.021000", "185119.024000", "185119.027000", "185119.030000", "185119.033000", "185119.036000", "185119.039000", "185119.043000", "185119.046000", "185119.049000", "185119.052000", "185119.055000", "185119.058000", "185119.061000", "185119.064000", "185119.067000", "185119.070000", "185119.073000", "185119.076000", "185119.079000", "185119.082000", "185145.201000", "185145.204000", "185145.208000", "185145.211000", "185145.214000", "185145.218000", "185145.221000", "185145.224000", "185145.228000", "185145.231000", "185145.235000", "185145.239000", "185145.243000", "185145.246000", "185145.250000", "185145.253000", "185145.256000", "185145.260000"],
      "InstanceNumber": [1, 2, 3, 4, 5, 6, 7, 8, 9, 10, 11, 12, 13, 14, 15, 16, 17, 18, 19, 20, 21, 22, 23, 24, 25, 26, 27, 28, 29, 30, 31, 32, 33, 34, 35, 36, 37, 38, 39, 40, 41, 42, 43, 44, 45, 46, 47, 48, 49, 50, 51, 52, 53, 54, 55, 56, 57, 58, 59, 60, 61, 62, 63, 64, 65, 66, 67, 68, 69, 70, 71, 72, 73, 74, 75, 76, 77, 78, 79, 80, 81, 82, 83, 84, 85, 86, 87, 88, 89, 90, 91, 92, 93, 94, 95, 96, 97, 98, 99, 100, 101, 102, 103, 104, 105, 106, 107, 108, 109, 110, 111, 112, 113, 114, 115, 116, 117, 118, 119, 120, 121, 122, 123, 124, 125, 126, 127, 128, 129, 130, 131, 132, 133, 134, 135, 136, 137, 138, 139, 140, 141, 142, 143, 144, 145, 146, 147, 148, 149, 150, 151, 152, 153, 154, 155, 156, 157, 158, 159, 160, 161, 162, 163, 164, 165, 166, 167, 168, 169, 170, 171, 172, 173, 174, 175, 176, 177, 178, 179, 180, 181, 182, 183, 184, 185, 186, 187, 188, 189, 190, 191, 192, 193, 194, 195, 196, 197, 198, 199, 200, 201, 202, 203, 204, 205, 206, 207, 208, 209, 210, 211, 212, 213, 214, 215, 216, 217, 218, 219, 220, 221, 222, 223, 224, 225, 226, 227, 228, 229, 230, 231, 232, 233, 234, 235, 236, 237, 238, 239],
      "LargestImagePixelValue": [3649, 3487, 3479, 3391, 3774, 3597, 3378, 3349, 3417, 3428, 3441, 3414, 3430, 3426, 3459, 3396, 3418, 3442, 3454, 3423, 3439, 3423, 3462, 3400, 3406, 3408, 3447, 3461, 3480, 3463, 3435, 3430, 3443, 3501, 3530, 3382, 3379, 3373, 3396, 3419, 3410, 3394, 3435, 3448, 3436, 3440, 3479, 3460, 3467, 3464, 3434, 3445, 3469, 3463, 3452, 3440, 3469, 3449, 3441, 3447, 3453, 3482, 3460, 3491, 3451, 3452, 3464, 3423, 3482, 3326, 3351, 3304, 3349, 3340, 3396, 3398, 3399, 3383, 3397, 3402, 3436, 3439, 3419, 3446, 3416, 3448, 3405, 3434, 3426, 3430, 3415, 3416, 3440, 3407, 3424, 3429, 3428, 3475, 3416, 3479, 3426, 3486, 3446, 3509, 3501, 3401, 3431, 3357, 3404, 3401, 3462, 3398, 3431, 3474, 3478, 3472, 3463, 3472, 3488, 3421, 3453, 3432, 3501, 3599, 3506, 3415, 3455, 3356, 3469, 3366, 3397, 3337, 3346, 3400, 3333, 3391, 3344, 3406, 3383, 3435, 3414, 3423, 3415, 3396, 3407, 3409, 3404, 3395, 3362, 3435, 3346, 3385, 3374, 3395, 3362, 3390, 3409, 3382, 3408, 3433, 3427, 3454, 3399, 3435, 3453, 3368, 3419, 3369, 3352, 3431, 3350, 3423, 3397, 3390, 3418, 3414, 3466, 3387, 3426, 3366, 3446, 3460, 3470, 3391, 3441, 3434, 3439, 3413, 3424, 3447, 3413, 3439, 3400, 3412, 3442, 3420, 3428, 3427, 3402, 3464, 3432, 3478, 3473, 3457, 3463, 3458, 3462, 3470, 3444, 3430, 3469, 3425, 3502, 3471, 3403, 3455, 3432, 3452, 3480, 3452, 3472, 3461, 3507, 3457, 3473, 3441, 3467, 3435, 3475, 3462, 3513, 3482, 3512, 3474, 3581, 3500, 3538, 3542, 3554],
      "WindowCenter": [766.0, 763.0, 761.0, 762.0, 761.0, 757.0, 763.0, 761.0, 760.0, 758.0, 757.0, 756.0, 756.0, 757.0, 758.0, 759.0, 760.0, 761.0, 761.0, 761.0, 761.0, 761.0, 760.0, 761.0, 761.0, 762.0, 762.0, 762.0, 761.0, 761.0, 761.0, 762.0, 762.0, 763.0, 762.0, 762.0, 762.0, 763.0, 762.0, 761.0, 760.0, 759.0, 758.0, 760.0, 761.0, 761.0, 761.0, 761.0, 761.0, 761.0, 761.0, 761.0, 761.0, 761.0, 761.0, 761.0, 761.0, 761.0, 761.0, 761.0, 762.0, 763.0, 763.0, 763.0, 762.0, 761.0, 761.0, 761.0, 760.0, 761.0, 762.0, 762.0, 761.0, 759.0, 758.0, 757.0, 757.0, 758.0, 759.0, 759.0, 759.0, 759.0, 759.0, 759.0, 760.0, 760.0, 761.0, 761.0, 761.0, 761.0, 761.0, 760.0, 761.0, 761.0, 761.0, 761.0, 760.0, 760.0, 760.0, 761.0, 762.0, 763.0, 763.0, 762.0, 762.0, 761.0, 762.0, 761.0, 761.0, 760.0, 760.0, 759.0, 759.0, 759.0, 759.0, 760.0, 759.0, 759.0, 759.0, 760.0, 760.0, 761.0, 761.0, 761.0, 761.0, 760.0, 761.0, 763.0, 764.0, 762.0, 761.0, 760.0, 759.0, 759.0, 760.0, 759.0, 758.0, 758.0, 758.0, 758.0, 758.0, 758.0, 758.0, 758.0, 758.0, 758.0, 759.0, 760.0, 760.0, 761.0, 761.0, 760.0, 759.0, 759.0, 759.0, 760.0, 760.0, 760.0, 760.0, 759.0, 759.0, 759.0, 759.0, 760.0, 761.0, 760.0, 760.0, 760.0, 760.0, 761.0, 760.0, 760.0, 759.0, 759.0, 759.0, 759.0, 759.0, 759.0, 759.0, 761.0, 762.0, 761.0, 760.0, 758.0, 759.0, 759.0, 759.0, 759.0, 759.0, 759.0, 758.0, 758.0, 759.0, 760.0, 761.0, 760.0, 760.0, 760.0, 759.0, 760.0, 760.0, 760.0, 759.0, 759.0, 759.0, 759.0, 760.0, 760.0, 760.0, 760.0, 761.0, 760.0, 760.0, 760.0, 759.0, 760.0, 760.0, 760.0, 760.0, 759.0, 759.0, 759.0, 759.0, 759.0, 760.0, 761.0, 761.0, 760.0, 759.0, 759.0, 760.0, 760.0, 762.0, 762.0, 762.0, 761.0, 761.0, 760.0, 760.0],
      "WindowWidth": [1693.0, 1683.0, 1679.0, 1679.0, 1678.0, 1667.0, 1684.0, 1678.0, 1674.0, 1669.0, 1666.0, 1664.0, 1664.0, 1666.0, 1669.0, 1672.0, 1675.0, 1678.0, 1678.0, 1679.0, 1679.0, 1677.0, 1676.0, 1677.0, 1679.0, 1680.0, 1680.0, 1679.0, 1679.0, 1678.0, 1679.0, 1681.0, 1681.0, 1684.0, 1681.0, 1679.0, 1680.0, 1683.0, 1680.0, 1679.0, 1674.0, 1670.0, 1670.0, 1674.0, 1677.0, 1678.0, 1678.0, 1678.0, 1676.0, 1676.0, 1677.0, 1678.0, 1678.0, 1678.0, 1677.0, 1678.0, 1678.0, 1678.0, 1678.0, 1679.0, 1681.0, 1682.0, 1682.0, 1682.0, 1680.0, 1678.0, 1677.0, 1676.0, 1674.0, 1678.0, 1680.0, 1680.0, 1676.0, 1672.0, 1669.0, 1666.0, 1666.0, 1668.0, 1671.0, 1672.0, 1673.0, 1671.0, 1671.0, 1671.0, 1674.0, 1676.0, 1677.0, 1679.0, 1678.0, 1676.0, 1676.0, 1676.0, 1677.0, 1677.0, 1678.0, 1677.0, 1675.0, 1676.0, 1674.0, 1678.0, 1680.0, 1685.0, 1684.0, 1682.0, 1679.0, 1678.0, 1680.0, 1678.0, 1679.0, 1675.0, 1675.0, 1672.0, 1672.0, 1672.0, 1672.0, 1673.0, 1672.0, 1671.0, 1672.0, 1673.0, 1675.0, 1676.0, 1677.0, 1678.0, 1677.0, 1674.0, 1679.0, 1683.0, 1687.0, 1681.0, 1678.0, 1673.0, 1672.0, 1671.0, 1673.0, 1673.0, 1668.0, 1668.0, 1667.0, 1669.0, 1669.0, 1670.0, 1669.0, 1668.0, 1668.0, 1669.0, 1672.0, 1674.0, 1675.0, 1677.0, 1675.0, 1673.0, 1672.0, 1671.0, 1671.0, 1673.0, 1674.0, 1673.0, 1673.0, 1672.0, 1671.0, 1670.0, 1672.0, 1675.0, 1677.0, 1675.0, 1676.0, 1674.0, 1674.0, 1676.0, 1674.0, 1674.0, 1672.0, 1671.0, 1671.0, 1671.0, 1672.0, 1671.0, 1672.0, 1677.0, 1678.0, 1678.0, 1674.0, 1668.0, 1670.0, 1671.0, 1671.0, 1670.0, 1671.0, 1670.0, 1668.0, 1669.0, 1670.0, 1674.0, 1676.0, 1675.0, 1672.0, 1673.0, 1672.0, 1675.0, 1675.0, 1674.0, 1672.0, 1671.0, 1671.0, 1672.0, 1674.0, 1675.0, 1675.0, 1675.0, 1676.0, 1676.0, 1675.0, 1673.0, 1672.0, 1674.0, 1674.0, 1674.0, 1673.0, 1672.0, 1673.0, 1672.0, 1671.0, 1672.0, 1676.0, 1677.0, 1676.0, 1673.0, 1672.0, 1672.0, 1674.0, 1676.0, 1679.0, 1679.0, 1681.0, 1678.0, 1677.0, 1674.0, 1675.0]
    },
    "slices": {}
  }
}