{
  "AcquisitionMatrixPE": 72,
  "AcquisitionNumber": 1,
  "AcquisitionTime": "14:17:22.085000",
  "BandwidthPerPixelPhaseEncode": 17.943,
  "BaseResolution": 96,
  "BodyPartExamined": "BRAIN",
  "CoilCombinationMethod": "Sum of Squares",
  "ConsistencyInfo": "N4_VE11C_LATEST_20160120",
  "ConversionSoftware": "dcm2niix",
  "ConversionSoftwareVersion": "v1.0.20211006",
  "DerivedVendorReportedEchoSpacing": 0.000552897,
  "DeviceSerialNumber": "166011",
  "EchoTime": 0.03,
  "EchoTrainLength": 58,
  "EffectiveEchoSpacing": 0.000580542,
  "FlipAngle": 62,
  "ImageOrientationPatientDICOM": [0.99721, 0.0256127, 0.0701164, -0.00887652, 0.973316, -0.229297],
  "ImageType": [
    "ORIGINAL",
    "PRIMARY",
    "M",
    "ND",
    "MOSAIC"
],
  "ImagingFrequency": 123.259,
  "InPlanePhaseEncodingDirectionDICOM": "COL",
  "InstitutionAddress": "West 130th Street 610,NY,NYC,US,10025",
  "InstitutionName": "MBBI",
  "MRAcquisitionType": "2D",
  "MagneticFieldStrength": 3,
  "Manufacturer": "Siemens",
  "ManufacturersModelName": "Prisma",
  "Modality": "MR",
  "MultibandAccelerationFactor": 3,
  "PartialFourier": 0.75,
  "PatientPosition": "HFS",
  "PercentPhaseFOV": 100,
  "PercentSampling": 75,
  "PhaseEncodingDirection": "j-",
  "PhaseEncodingSteps": 58,
  "PhaseOversampling": 0.05,
  "PhaseResolution": 0.75,
  "PixelBandwidth": 2265,
  "ProcedureStepDescription": "White^Word_recognition",
  "ProtocolName": "func_vwfate_run4",
  "PulseSequenceDetails": "%SiemensSeq%\\ep2d_bold",
  "ReceiveCoilActiveElements": "HC1-7",
  "ReceiveCoilName": "HeadNeck_64",
  "ReconMatrixPE": 96,
  "RefLinesPE": 40,
  "RepetitionTime": 1.5,
  "SAR": 0.0501957,
  "ScanOptions": "PFP\\FS",
  "ScanningSequence": "EP",
  "SequenceName": "*epfid2d1_72",
  "SequenceVariant": "SK\\OSP",
  "SeriesDescription": "func_vwfate_run4",
  "SeriesNumber": 12,
  "ShimSetting": [-1143, -1321, 650, 400, -69, -65, -66, -8],
  "SliceThickness": 2,
  "SliceTiming": [1.075, 0, 0.74, 0.065, 0.805, 0.1325, 0.8725, 0.2, 0.94, 0.2675, 1.0075, 0.4025, 1.1425, 0.47, 1.21, 0.5375, 1.2775, 0.605, 1.345, 0.6725, 1.4125, 0.335, 1.075, 0, 0.74, 0.065, 0.805, 0.1325, 0.8725, 0.2, 0.94, 0.2675, 1.0075, 0.4025, 1.1425, 0.47, 1.21, 0.5375, 1.2775, 0.605, 1.345, 0.6725, 1.4125, 0.335, 1.075, 0, 0.74, 0.065, 0.805, 0.1325, 0.8725, 0.2, 0.94, 0.2675, 1.0075, 0.4025, 1.1425, 0.47, 1.21, 0.5375, 1.2775, 0.605, 1.345, 0.6725, 1.4125, 0.335],
  "SoftwareVersions": "syngo MR E11",
  "SpacingBetweenSlices": 2,
  "StationName": "AWP166011",
  "TaskName": "vwfate",
  "TotalReadoutTime": 0.0551515,
  "TxRefAmp": 242.786,
  "dcmmeta_affine": [
    [-1.9944199323654175, -0.01775304041802883, 0.14823664724826813, 99.9979476928711],
    [-0.051225364208221436, 1.9466320276260376, -0.4560697376728058, -54.68618392944336],
    [0.14023278653621674, 0.45859402418136597, 1.9416555166244507, -96.10363006591797],
    [0.0, 0.0, 0.0, 1.0]
],
  "dcmmeta_reorient_transform": [
    [0.0, -1.0, 0.0, 95.0],
    [1.0, 0.0, 0.0, 0.0],
    [0.0, 0.0, 1.0, 0.0],
    [0.0, 0.0, 0.0, 1.0]
],
  "dcmmeta_shape": [96, 96, 66, 164],
  "dcmmeta_slice_dim": 2,
  "dcmmeta_version": 0.6,
  "global": {
    "const": {
      "AcquisitionMatrix": [96, 0, 0, 72],
      "AngioFlag": "N",
      "BitsAllocated": 16,
      "BitsStored": 12,
      "BodyPartExamined": "BRAIN",
      "Columns": 864,
      "EchoNumbers": 1,
      "EchoTime": 30.0,
      "EchoTrainLength": 58,
      "FlipAngle": 62.0,
      "HighBit": 11,
      "ImageOrientationPatient": [0.99720994864603, 0.0256126825442, 0.07011639476089, -0.0088765202685, 0.97331602577555, -0.2292970155855],
      "ImagePositionPatient": [-857.35148551672, -897.42111037864, 69.713521541378],
      "ImageType": [
        "ORIGINAL",
        "PRIMARY",
        "M",
        "ND",
        "MOSAIC"
],
      "ImagedNucleus": "1H",
      "ImagingFrequency": 123.259414,
      "InPlanePhaseEncodingDirection": "COL",
      "MRAcquisitionType": "2D",
      "MagneticFieldStrength": 3.0,
      "Manufacturer": "SIEMENS",
      "ManufacturerModelName": "Prisma",
      "Modality": "MR",
      "NumberOfAverages": 1.0,
      "NumberOfPhaseEncodingSteps": 58,
      "PercentPhaseFieldOfView": 100.0,
      "PercentSampling": 75.0,
      "PerformedProcedureStepStartTime": "132525.019000",
      "PhotometricInterpretation": "MONOCHROME2",
      "PixelBandwidth": 2265.0,
      "PixelRepresentation": 0,
      "PixelSpacing": [2.0, 2.0],
      "ProtocolName": "func_vwfate_run4",
      "RepetitionTime": 1500.0,
      "Rows": 864,
      "SAR": 0.05019573612505,
      "SamplesPerPixel": 1,
      "ScanOptions": [
        "PFP",
        "FS"
],
      "ScanningSequence": "EP",
      "SequenceName": "*epfid2d1_72",
      "SequenceVariant": [
        "SK",
        "OSP"
],
      "SeriesDescription": "func_vwfate_run4",
      "SeriesNumber": 12,
      "SeriesTime": "141804.729000",
      "SliceLocation": -73.418034385891,
      "SliceThickness": 2.0,
      "SmallestImagePixelValue": 0,
      "SoftwareVersions": "syngo MR E11",
      "SpacingBetweenSlices": 2.000000003212,
      "SpecificCharacterSet": "ISO_IR 100",
      "StudyID": "1",
      "StudyTime": "132524.946000",
      "TransmitCoilName": "Body",
      "VariableFlipAngleFlag": "N",
      "WindowCenterWidthExplanation": "Algo1",
      "dBdt": 0.0},
    "slices": {}
  },
  "time": {
    "samples": {
      "AcquisitionNumber": [1, 2, 3, 4, 5, 6, 7, 8, 9, 10, 11, 12, 13, 14, 15, 16, 17, 18, 19, 20, 21, 22, 23, 24, 25, 26, 27, 28, 29, 30, 31, 32, 33, 34, 35, 36, 37, 38, 39, 40, 41, 42, 43, 44, 45, 46, 47, 48, 49, 50, 51, 52, 53, 54, 55, 56, 57, 58, 59, 60, 61, 62, 63, 64, 65, 66, 67, 68, 69, 70, 71, 72, 73, 74, 75, 76, 77, 78, 79, 80, 81, 82, 83, 84, 85, 86, 87, 88, 89, 90, 91, 92, 93, 94, 95, 96, 97, 98, 99, 100, 101, 102, 103, 104, 105, 106, 107, 108, 109, 110, 111, 112, 113, 114, 115, 116, 117, 118, 119, 120, 121, 122, 123, 124, 125, 126, 127, 128, 129, 130, 131, 132, 133, 134, 135, 136, 137, 138, 139, 140, 141, 142, 143, 144, 145, 146, 147, 148, 149, 150, 151, 152, 153, 154, 155, 156, 157, 158, 159, 160, 161, 162, 163, 164],
      "AcquisitionTime": ["141722.085000", "141723.585000", "141725.085000", "141726.585000", "141728.085000", "141729.585000", "141731.085000", "141732.585000", "141734.085000", "141735.585000", "141737.085000", "141738.585000", "141740.085000", "141741.585000", "141743.085000", "141744.585000", "141746.085000", "141747.585000", "141749.085000", "141750.585000", "141752.085000", "141753.585000", "141755.085000", "141756.585000", "141758.085000", "141759.585000", "141801.085000", "141802.585000", "141804.085000", "141805.585000", "141807.085000", "141808.585000", "141810.085000", "141811.585000", "141813.085000", "141814.585000", "141816.085000", "141817.585000", "141819.085000", "141820.585000", "141822.085000", "141823.585000", "141825.085000", "141826.585000", "141828.085000", "141829.585000", "141831.085000", "141832.585000", "141834.085000", "141835.585000", "141837.085000", "141838.585000", "141840.085000", "141841.585000", "141843.085000", "141844.585000", "141846.085000", "141847.585000", "141849.085000", "141850.585000", "141852.085000", "141853.585000", "141855.085000", "141856.585000", "141858.085000", "141859.585000", "141901.085000", "141902.585000", "141904.085000", "141905.585000", "141907.085000", "141908.585000", "141910.085000", "141911.585000", "141913.085000", "141914.585000", "141916.085000", "141917.585000", "141919.085000", "141920.585000", "141922.085000", "141923.585000", "141925.085000", "141926.585000", "141928.085000", "141929.585000", "141931.085000", "141932.585000", "141934.085000", "141935.585000", "141937.085000", "141938.585000", "141940.085000", "141941.585000", "141943.085000", "141944.585000", "141946.085000", "141947.585000", "141949.085000", "141950.585000", "141952.085000", "141953.585000", "141955.085000", "141956.585000", "141958.085000", "141959.585000", "142001.085000", "142002.585000", "142004.085000", "142005.585000", "142007.085000", "142008.585000", "142010.085000", "142011.585000", "142013.085000", "142014.585000", "142016.085000", "142017.585000", "142019.085000", "142020.585000", "142022.085000", "142023.585000", "142025.085000", "142026.585000", "142028.085000", "142029.585000", "142031.085000", "142032.585000", "142034.085000", "142035.585000", "142037.085000", "142038.585000", "142040.085000", "142041.585000", "142043.085000", "142044.585000", "142046.085000", "142047.585000", "142049.085000", "142050.585000", "142052.085000", "142053.585000", "142055.085000", "142056.585000", "142058.085000", "142059.585000", "142101.085000", "142102.585000", "142104.085000", "142105.585000", "142107.085000", "142108.585000", "142110.085000", "142111.585000", "142113.085000", "142114.585000", "142116.085000", "142117.585000", "142119.085000", "142120.585000", "142122.085000", "142123.585000", "142125.085000", "142126.585000"],
      "ContentTime": ["141804.733000", "141804.737000", "141804.750000", "141804.753000", "141804.756000", "141804.764000", "141804.768000", "141804.771000", "141804.774000", "141804.777000", "141804.780000", "141804.783000", "141804.790000", "141804.793000", "141804.803000", "141804.806000", "141804.809000", "141804.812000", "141804.815000", "141804.818000", "141804.822000", "141804.825000", "141804.829000", "141804.832000", "141804.835000", "141804.838000", "141804.841000", "141804.844000", "141844.729000", "141844.741000", "141844.744000", "141844.747000", "141844.750000", "141844.752000", "141844.756000", "141844.759000", "141844.761000", "141844.764000", "141844.768000", "141844.770000", "141844.773000", "141844.776000", "141844.781000", "141844.784000", "141844.787000", "141844.790000", "141844.793000", "141844.796000", "141844.799000", "141844.802000", "141844.805000", "141844.808000", "141844.810000", "141844.813000", "141844.816000", "141924.729000", "141924.732000", "141924.735000", "141924.738000", "141924.741000", "141924.744000", "141924.747000", "141924.754000", "141924.757000", "141924.760000", "141924.763000", "141924.766000", "141924.768000", "141924.772000", "141924.774000", "141924.777000", "141924.780000", "141924.783000", "141924.786000", "141924.789000", "141924.792000", "141924.795000", "141924.798000", "141924.801000", "141924.804000", "141924.807000", "141924.810000", "142004.728000", "142004.731000", "142004.734000", "142004.737000", "142004.740000", "142004.743000", "142004.747000", "142004.749000", "142004.752000", "142004.755000", "142004.758000", "142004.761000", "142004.764000", "142004.767000", "142004.770000", "142004.773000", "142004.776000", "142004.779000", "142004.782000", "142004.785000", "142004.788000", "142004.791000", "142004.794000", "142004.797000", "142004.800000", "142004.803000", "142044.728000", "142044.731000", "142044.734000", "142044.737000", "142044.740000", "142044.743000", "142044.746000", "142044.749000", "142044.752000", "142044.755000", "142044.758000", "142044.761000", "142044.764000", "142044.767000", "142044.770000", "142044.773000", "142044.800000", "142044.803000", "142044.806000", "142044.809000", "142044.812000", "142044.815000", "142044.818000", "142044.821000", "142044.824000", "142044.827000", "142044.830000", "142124.729000", "142124.732000", "142124.735000", "142124.738000", "142124.741000", "142124.744000", "142124.747000", "142124.750000", "142124.753000", "142124.756000", "142124.759000", "142124.762000", "142124.765000", "142124.768000", "142124.771000", "142124.774000", "142124.777000", "142124.781000", "142124.783000", "142124.786000", "142124.789000", "142124.793000", "142124.795000", "142124.798000", "142124.801000", "142124.804000", "142124.807000", "142127.598000", "142127.601000"],
      "InstanceCreationTime": ["141804.733000", "141804.737000", "141804.750000", "141804.753000", "141804.756000", "141804.764000", "141804.768000", "141804.771000", "141804.774000", "141804.777000", "141804.780000", "141804.783000", "141804.790000", "141804.793000", "141804.803000", "141804.806000", "141804.809000", "141804.812000", "141804.815000", "141804.818000", "141804.822000", "141804.825000", "141804.829000", "141804.832000", "141804.835000", "141804.838000", "141804.841000", "141804.844000", "141844.729000", "141844.741000", "141844.744000", "141844.747000", "141844.750000", "141844.752000", "141844.756000", "141844.759000", "141844.761000", "141844.764000", "141844.768000", "141844.770000", "141844.773000", "141844.776000", "141844.781000", "141844.784000", "141844.787000", "141844.790000", "141844.793000", "141844.796000", "141844.799000", "141844.802000", "141844.805000", "141844.808000", "141844.810000", "141844.813000", "141844.816000", "141924.729000", "141924.732000", "141924.735000", "141924.738000", "141924.741000", "141924.744000", "141924.747000", "141924.754000", "141924.757000", "141924.760000", "141924.763000", "141924.766000", "141924.768000", "141924.772000", "141924.774000", "141924.777000", "141924.780000", "141924.783000", "141924.786000", "141924.789000", "141924.792000", "141924.795000", "141924.798000", "141924.801000", "141924.804000", "141924.807000", "141924.810000", "142004.728000", "142004.731000", "142004.734000", "142004.737000", "142004.740000", "142004.743000", "142004.747000", "142004.749000", "142004.752000", "142004.755000", "142004.758000", "142004.761000", "142004.764000", "142004.767000", "142004.770000", "142004.773000", "142004.776000", "142004.779000", "142004.782000", "142004.785000", "142004.788000", "142004.791000", "142004.794000", "142004.797000", "142004.800000", "142004.803000", "142044.728000", "142044.731000", "142044.734000", "142044.737000", "142044.740000", "142044.743000", "142044.746000", "142044.749000", "142044.752000", "142044.755000", "142044.758000", "142044.761000", "142044.764000", "142044.767000", "142044.770000", "142044.773000", "142044.800000", "142044.803000", "142044.806000", "142044.809000", "142044.812000", "142044.815000", "142044.818000", "142044.821000", "142044.824000", "142044.827000", "142044.830000", "142124.729000", "142124.732000", "142124.735000", "142124.738000", "142124.741000", "142124.744000", "142124.747000", "142124.750000", "142124.753000", "142124.756000", "142124.759000", "142124.762000", "142124.765000", "142124.768000", "142124.771000", "142124.774000", "142124.777000", "142124.781000", "142124.783000", "142124.786000", "142124.789000", "142124.793000", "142124.795000", "142124.798000", "142124.801000", "142124.804000", "142124.807000", "142127.598000", "142127.601000"],
      "InstanceNumber": [1, 2, 3, 4, 5, 6, 7, 8, 9, 10, 11, 12, 13, 14, 15, 16, 17, 18, 19, 20, 21, 22, 23, 24, 25, 26, 27, 28, 29, 30, 31, 32, 33, 34, 35, 36, 37, 38, 39, 40, 41, 42, 43, 44, 45, 46, 47, 48, 49, 50, 51, 52, 53, 54, 55, 56, 57, 58, 59, 60, 61, 62, 63, 64, 65, 66, 67, 68, 69, 70, 71, 72, 73, 74, 75, 76, 77, 78, 79, 80, 81, 82, 83, 84, 85, 86, 87, 88, 89, 90, 91, 92, 93, 94, 95, 96, 97, 98, 99, 100, 101, 102, 103, 104, 105, 106, 107, 108, 109, 110, 111, 112, 113, 114, 115, 116, 117, 118, 119, 120, 121, 122, 123, 124, 125, 126, 127, 128, 129, 130, 131, 132, 133, 134, 135, 136, 137, 138, 139, 140, 141, 142, 143, 144, 145, 146, 147, 148, 149, 150, 151, 152, 153, 154, 155, 156, 157, 158, 159, 160, 161, 162, 163, 164],
      "LargestImagePixelValue": [2887, 2814, 2821, 2818, 2826, 2793, 2794, 2808, 2780, 2773, 2801, 2766, 2786, 2819, 2771, 2797, 2750, 2704, 2685, 2717, 2729, 2730, 2724, 2710, 2759, 2763, 2734, 2762, 2747, 2803, 2766, 2782, 2741, 2700, 2677, 2677, 2702, 2700, 2750, 2732, 2739, 2723, 2741, 2764, 2761, 2750, 2793, 2723, 2731, 2713, 2754, 2757, 2709, 2677, 2701, 2711, 2730, 2706, 2708, 2732, 2727, 2739, 2739, 2747, 2735, 2739, 2784, 2737, 2761, 2784, 2754, 2750, 2751, 2751, 2755, 2760, 2774, 2746, 2778, 2746, 2718, 2722, 2721, 2788, 2736, 2743, 2724, 2718, 2725, 2717, 2712, 2724, 2742, 2741, 2749, 2738, 2720, 2739, 2745, 2701, 2693, 2700, 2695, 2702, 2703, 2717, 2721, 2719, 2686, 2733, 2731, 2734, 2690, 2722, 2680, 2722, 2702, 2729, 2667, 2707, 2692, 2668, 2681, 2696, 2692, 2716, 2738, 2731, 2750, 2680, 2732, 2723, 2713, 2704, 2692, 2673, 2666, 2694, 2689, 2676, 2682, 2659, 2696, 2678, 2712, 2763, 2747, 2735, 2770, 2746, 2748, 2743, 2739, 2716, 2729, 2729, 2765, 2751, 2769, 2847, 2751, 2823, 2800, 2847],
      "WindowCenter": [758.0, 756.0, 755.0, 755.0, 755.0, 755.0, 756.0, 756.0, 755.0, 754.0, 755.0, 755.0, 756.0, 757.0, 757.0, 757.0, 755.0, 754.0, 754.0, 755.0, 755.0, 756.0, 756.0, 757.0, 756.0, 755.0, 755.0, 754.0, 754.0, 756.0, 756.0, 756.0, 755.0, 753.0, 752.0, 752.0, 753.0, 754.0, 754.0, 754.0, 754.0, 754.0, 754.0, 755.0, 755.0, 756.0, 757.0, 757.0, 757.0, 756.0, 755.0, 754.0, 754.0, 754.0, 754.0, 754.0, 754.0, 754.0, 753.0, 754.0, 755.0, 755.0, 755.0, 756.0, 756.0, 756.0, 755.0, 754.0, 754.0, 754.0, 755.0, 755.0, 755.0, 755.0, 755.0, 755.0, 755.0, 756.0, 756.0, 756.0, 755.0, 755.0, 755.0, 756.0, 756.0, 756.0, 756.0, 756.0, 755.0, 755.0, 756.0, 757.0, 758.0, 757.0, 755.0, 754.0, 754.0, 754.0, 755.0, 756.0, 756.0, 755.0, 754.0, 753.0, 753.0, 753.0, 754.0, 754.0, 753.0, 753.0, 754.0, 754.0, 754.0, 755.0, 754.0, 755.0, 754.0, 755.0, 754.0, 754.0, 754.0, 754.0, 754.0, 754.0, 754.0, 754.0, 755.0, 755.0, 756.0, 755.0, 756.0, 755.0, 754.0, 754.0, 754.0, 754.0, 754.0, 754.0, 754.0, 753.0, 753.0, 753.0, 753.0, 754.0, 755.0, 755.0, 754.0, 754.0, 755.0, 755.0, 754.0, 753.0, 753.0, 753.0, 754.0, 754.0, 754.0, 752.0, 752.0, 753.0, 753.0, 754.0, 755.0, 755.0],
      "WindowWidth": [1618.0, 1611.0, 1610.0, 1609.0, 1610.0, 1610.0, 1613.0, 1612.0, 1610.0, 1608.0, 1609.0, 1609.0, 1612.0, 1615.0, 1615.0, 1614.0, 1611.0, 1608.0, 1607.0, 1608.0, 1609.0, 1611.0, 1612.0, 1613.0, 1612.0, 1610.0, 1608.0, 1608.0, 1607.0, 1611.0, 1612.0, 1613.0, 1609.0, 1605.0, 1602.0, 1602.0, 1605.0, 1607.0, 1608.0, 1608.0, 1608.0, 1608.0, 1607.0, 1609.0, 1610.0, 1612.0, 1614.0, 1614.0, 1616.0, 1611.0, 1610.0, 1608.0, 1607.0, 1607.0, 1607.0, 1607.0, 1606.0, 1606.0, 1606.0, 1608.0, 1609.0, 1610.0, 1611.0, 1612.0, 1613.0, 1613.0, 1611.0, 1607.0, 1607.0, 1607.0, 1609.0, 1610.0, 1611.0, 1610.0, 1610.0, 1609.0, 1610.0, 1611.0, 1612.0, 1612.0, 1610.0, 1610.0, 1609.0, 1613.0, 1613.0, 1613.0, 1612.0, 1612.0, 1610.0, 1611.0, 1613.0, 1615.0, 1616.0, 1614.0, 1609.0, 1607.0, 1607.0, 1608.0, 1611.0, 1613.0, 1613.0, 1610.0, 1608.0, 1605.0, 1604.0, 1605.0, 1606.0, 1607.0, 1605.0, 1606.0, 1607.0, 1608.0, 1608.0, 1609.0, 1608.0, 1609.0, 1608.0, 1609.0, 1606.0, 1607.0, 1607.0, 1607.0, 1606.0, 1606.0, 1606.0, 1607.0, 1610.0, 1610.0, 1612.0, 1609.0, 1611.0, 1609.0, 1608.0, 1606.0, 1606.0, 1607.0, 1607.0, 1607.0, 1606.0, 1605.0, 1604.0, 1604.0, 1605.0, 1606.0, 1608.0, 1610.0, 1606.0, 1606.0, 1608.0, 1608.0, 1607.0, 1604.0, 1604.0, 1604.0, 1606.0, 1606.0, 1605.0, 1602.0, 1600.0, 1603.0, 1603.0, 1607.0, 1608.0, 1608.0]
    },
    "slices": {}
  }
}