{
  "AcquisitionMatrixPE": 72,
  "AcquisitionNumber": 1,
  "AcquisitionTime": "13:52:51.545000",
  "BandwidthPerPixelPhaseEncode": 17.943,
  "BaseResolution": 96,
  "BodyPartExamined": "BRAIN",
  "CoilCombinationMethod": "Sum of Squares",
  "ConsistencyInfo": "N4_VE11C_LATEST_20160120",
  "ConversionSoftware": "dcm2niix",
  "ConversionSoftwareVersion": "v1.0.20211006",
  "DerivedVendorReportedEchoSpacing": 0.000552897,
  "DeviceSerialNumber": "166011",
  "EchoTime": 0.03,
  "EchoTrainLength": 58,
  "EffectiveEchoSpacing": 0.000580542,
  "FlipAngle": 62,
  "ImageOrientationPatientDICOM": [0.99721, 0.0256127, 0.0701164, -0.00887652, 0.973316, -0.229297],
  "ImageType": [
    "ORIGINAL",
    "PRIMARY",
    "M",
    "ND",
    "MOSAIC"
],
  "ImagingFrequency": 123.259,
  "InPlanePhaseEncodingDirectionDICOM": "COL",
  "InstitutionAddress": "West 130th Street 610,NY,NYC,US,10025",
  "InstitutionName": "MBBI",
  "MRAcquisitionType": "2D",
  "MagneticFieldStrength": 3,
  "Manufacturer": "Siemens",
  "ManufacturersModelName": "Prisma",
  "Modality": "MR",
  "MultibandAccelerationFactor": 3,
  "PartialFourier": 0.75,
  "PatientPosition": "HFS",
  "PercentPhaseFOV": 100,
  "PercentSampling": 75,
  "PhaseEncodingDirection": "j-",
  "PhaseEncodingSteps": 58,
  "PhaseOversampling": 0.05,
  "PhaseResolution": 0.75,
  "PixelBandwidth": 2265,
  "ProcedureStepDescription": "White^Word_recognition",
  "ProtocolName": "func_vwfate_run1",
  "PulseSequenceDetails": "%SiemensSeq%\\ep2d_bold",
  "ReceiveCoilActiveElements": "HC1-7",
  "ReceiveCoilName": "HeadNeck_64",
  "ReconMatrixPE": 96,
  "RefLinesPE": 40,
  "RepetitionTime": 1.5,
  "SAR": 0.0501957,
  "ScanOptions": "PFP\\FS",
  "ScanningSequence": "EP",
  "SequenceName": "*epfid2d1_72",
  "SequenceVariant": "SK\\OSP",
  "SeriesDescription": "func_vwfate_run1",
  "SeriesNumber": 8,
  "ShimSetting": [-1143, -1321, 650, 400, -69, -65, -66, -8],
  "SliceThickness": 2,
  "SliceTiming": [1.0775, 0, 0.74, 0.0675, 0.8075, 0.135, 0.875, 0.2025, 0.9425, 0.27, 1.01, 0.405, 1.145, 0.4725, 1.2125, 0.54, 1.28, 0.6075, 1.3475, 0.675, 1.415, 0.3375, 1.0775, 0, 0.74, 0.0675, 0.8075, 0.135, 0.875, 0.2025, 0.9425, 0.27, 1.01, 0.405, 1.145, 0.4725, 1.2125, 0.54, 1.28, 0.6075, 1.3475, 0.675, 1.415, 0.3375, 1.0775, 0, 0.74, 0.0675, 0.8075, 0.135, 0.875, 0.2025, 0.9425, 0.27, 1.01, 0.405, 1.145, 0.4725, 1.2125, 0.54, 1.28, 0.6075, 1.3475, 0.675, 1.415, 0.3375],
  "SoftwareVersions": "syngo MR E11",
  "SpacingBetweenSlices": 2,
  "StationName": "AWP166011",
  "TaskName": "vwfate",
  "TotalReadoutTime": 0.0551515,
  "TxRefAmp": 242.786,
  "dcmmeta_affine": [
    [-1.9944199323654175, -0.01775304041802883, 0.14823664724826813, 99.9979476928711],
    [-0.051225364208221436, 1.9466320276260376, -0.4560697376728058, -54.68618392944336],
    [0.14023278653621674, 0.45859402418136597, 1.9416555166244507, -96.10363006591797],
    [0.0, 0.0, 0.0, 1.0]
],
  "dcmmeta_reorient_transform": [
    [0.0, -1.0, 0.0, 95.0],
    [1.0, 0.0, 0.0, 0.0],
    [0.0, 0.0, 1.0, 0.0],
    [0.0, 0.0, 0.0, 1.0]
],
  "dcmmeta_shape": [96, 96, 66, 164],
  "dcmmeta_slice_dim": 2,
  "dcmmeta_version": 0.6,
  "global": {
    "const": {
      "AcquisitionMatrix": [96, 0, 0, 72],
      "AngioFlag": "N",
      "BitsAllocated": 16,
      "BitsStored": 12,
      "BodyPartExamined": "BRAIN",
      "Columns": 864,
      "EchoNumbers": 1,
      "EchoTime": 30.0,
      "EchoTrainLength": 58,
      "FlipAngle": 62.0,
      "HighBit": 11,
      "ImageOrientationPatient": [0.99720994864603, 0.0256126825442, 0.07011639476089, -0.0088765202685, 0.97331602577555, -0.2292970155855],
      "ImagePositionPatient": [-857.35148551672, -897.42111037864, 69.713521541378],
      "ImageType": [
        "ORIGINAL",
        "PRIMARY",
        "M",
        "ND",
        "MOSAIC"
],
      "ImagedNucleus": "1H",
      "ImagingFrequency": 123.259401,
      "InPlanePhaseEncodingDirection": "COL",
      "MRAcquisitionType": "2D",
      "MagneticFieldStrength": 3.0,
      "Manufacturer": "SIEMENS",
      "ManufacturerModelName": "Prisma",
      "Modality": "MR",
      "NumberOfAverages": 1.0,
      "NumberOfPhaseEncodingSteps": 58,
      "PercentPhaseFieldOfView": 100.0,
      "PercentSampling": 75.0,
      "PerformedProcedureStepStartTime": "132525.019000",
      "PhotometricInterpretation": "MONOCHROME2",
      "PixelBandwidth": 2265.0,
      "PixelRepresentation": 0,
      "PixelSpacing": [2.0, 2.0],
      "ProtocolName": "func_vwfate_run1",
      "RepetitionTime": 1500.0,
      "Rows": 864,
      "SAR": 0.05019573612505,
      "SamplesPerPixel": 1,
      "ScanOptions": [
        "PFP",
        "FS"
],
      "ScanningSequence": "EP",
      "SequenceName": "*epfid2d1_72",
      "SequenceVariant": [
        "SK",
        "OSP"
],
      "SeriesDescription": "func_vwfate_run1",
      "SeriesNumber": 8,
      "SeriesTime": "135324.656000",
      "SliceLocation": -73.418034385891,
      "SliceThickness": 2.0,
      "SmallestImagePixelValue": 0,
      "SoftwareVersions": "syngo MR E11",
      "SpacingBetweenSlices": 2.000000003212,
      "SpecificCharacterSet": "ISO_IR 100",
      "StudyID": "1",
      "StudyTime": "132524.946000",
      "TransmitCoilName": "Body",
      "VariableFlipAngleFlag": "N",
      "WindowCenterWidthExplanation": "Algo1",
      "dBdt": 0.0},
    "slices": {}
  },
  "time": {
    "samples": {
      "AcquisitionNumber": [1, 2, 3, 4, 5, 6, 7, 8, 9, 10, 11, 12, 13, 14, 15, 16, 17, 18, 19, 20, 21, 22, 23, 24, 25, 26, 27, 28, 29, 30, 31, 32, 33, 34, 35, 36, 37, 38, 39, 40, 41, 42, 43, 44, 45, 46, 47, 48, 49, 50, 51, 52, 53, 54, 55, 56, 57, 58, 59, 60, 61, 62, 63, 64, 65, 66, 67, 68, 69, 70, 71, 72, 73, 74, 75, 76, 77, 78, 79, 80, 81, 82, 83, 84, 85, 86, 87, 88, 89, 90, 91, 92, 93, 94, 95, 96, 97, 98, 99, 100, 101, 102, 103, 104, 105, 106, 107, 108, 109, 110, 111, 112, 113, 114, 115, 116, 117, 118, 119, 120, 121, 122, 123, 124, 125, 126, 127, 128, 129, 130, 131, 132, 133, 134, 135, 136, 137, 138, 139, 140, 141, 142, 143, 144, 145, 146, 147, 148, 149, 150, 151, 152, 153, 154, 155, 156, 157, 158, 159, 160, 161, 162, 163, 164],
      "AcquisitionTime": ["135251.545000", "135253.045000", "135254.545000", "135256.045000", "135257.545000", "135259.045000", "135300.545000", "135302.045000", "135303.545000", "135305.045000", "135306.545000", "135308.045000", "135309.545000", "135311.045000", "135312.545000", "135314.045000", "135315.545000", "135317.045000", "135318.545000", "135320.045000", "135321.545000", "135323.045000", "135324.545000", "135326.045000", "135327.545000", "135329.045000", "135330.545000", "135332.045000", "135333.545000", "135335.045000", "135336.545000", "135338.045000", "135339.545000", "135341.045000", "135342.545000", "135344.045000", "135345.545000", "135347.045000", "135348.545000", "135350.045000", "135351.545000", "135353.045000", "135354.545000", "135356.045000", "135357.545000", "135359.045000", "135400.545000", "135402.045000", "135403.545000", "135405.045000", "135406.545000", "135408.045000", "135409.545000", "135411.045000", "135412.545000", "135414.045000", "135415.545000", "135417.045000", "135418.545000", "135420.045000", "135421.545000", "135423.045000", "135424.545000", "135426.045000", "135427.545000", "135429.045000", "135430.545000", "135432.045000", "135433.545000", "135435.045000", "135436.545000", "135438.045000", "135439.545000", "135441.045000", "135442.545000", "135444.045000", "135445.545000", "135447.045000", "135448.545000", "135450.045000", "135451.545000", "135453.045000", "135454.545000", "135456.045000", "135457.545000", "135459.045000", "135500.545000", "135502.045000", "135503.545000", "135505.045000", "135506.545000", "135508.045000", "135509.545000", "135511.045000", "135512.545000", "135514.045000", "135515.545000", "135517.045000", "135518.545000", "135520.045000", "135521.545000", "135523.045000", "135524.545000", "135526.045000", "135527.545000", "135529.045000", "135530.545000", "135532.045000", "135533.545000", "135535.045000", "135536.545000", "135538.045000", "135539.545000", "135541.045000", "135542.545000", "135544.045000", "135545.545000", "135547.045000", "135548.545000", "135550.045000", "135551.545000", "135553.045000", "135554.545000", "135556.045000", "135557.545000", "135559.045000", "135600.545000", "135602.045000", "135603.545000", "135605.045000", "135606.545000", "135608.045000", "135609.545000", "135611.045000", "135612.545000", "135614.045000", "135615.545000", "135617.045000", "135618.545000", "135620.045000", "135621.545000", "135623.045000", "135624.545000", "135626.045000", "135627.545000", "135629.045000", "135630.545000", "135632.045000", "135633.545000", "135635.045000", "135636.545000", "135638.045000", "135639.545000", "135641.045000", "135642.545000", "135644.045000", "135645.545000", "135647.045000", "135648.545000", "135650.045000", "135651.545000", "135653.045000", "135654.545000", "135656.045000"],
      "ContentTime": ["135324.660000", "135324.664000", "135324.667000", "135324.670000", "135324.673000", "135324.676000", "135324.679000", "135324.682000", "135324.685000", "135324.688000", "135324.696000", "135324.699000", "135324.702000", "135324.705000", "135324.715000", "135324.718000", "135324.721000", "135324.724000", "135324.727000", "135324.730000", "135324.733000", "135324.736000", "135404.654000", "135404.658000", "135404.672000", "135404.675000", "135404.678000", "135404.681000", "135404.684000", "135404.688000", "135404.701000", "135404.704000", "135404.707000", "135404.710000", "135404.713000", "135404.716000", "135404.720000", "135404.723000", "135404.725000", "135404.729000", "135404.732000", "135404.735000", "135404.738000", "135404.740000", "135404.743000", "135404.746000", "135404.749000", "135404.752000", "135444.654000", "135444.657000", "135444.660000", "135444.663000", "135444.666000", "135444.669000", "135444.672000", "135444.679000", "135444.682000", "135444.685000", "135444.688000", "135444.691000", "135444.694000", "135444.697000", "135444.700000", "135444.703000", "135444.705000", "135444.708000", "135444.711000", "135444.714000", "135444.717000", "135444.720000", "135444.723000", "135444.726000", "135444.729000", "135444.732000", "135444.735000", "135524.655000", "135524.658000", "135524.661000", "135524.664000", "135524.667000", "135524.670000", "135524.673000", "135524.676000", "135524.679000", "135524.682000", "135524.685000", "135524.688000", "135524.691000", "135524.694000", "135524.697000", "135524.700000", "135524.703000", "135524.706000", "135524.709000", "135524.712000", "135524.714000", "135524.717000", "135524.720000", "135524.723000", "135524.726000", "135524.729000", "135524.732000", "135604.655000", "135604.658000", "135604.661000", "135604.664000", "135604.672000", "135604.675000", "135604.678000", "135604.681000", "135604.684000", "135604.687000", "135604.690000", "135604.693000", "135604.696000", "135604.699000", "135604.710000", "135604.713000", "135604.717000", "135604.721000", "135604.724000", "135604.727000", "135604.731000", "135604.734000", "135604.737000", "135604.740000", "135604.743000", "135604.746000", "135644.654000", "135644.658000", "135644.661000", "135644.664000", "135644.667000", "135644.670000", "135644.673000", "135644.676000", "135644.679000", "135644.682000", "135644.685000", "135644.688000", "135644.691000", "135644.694000", "135644.697000", "135644.700000", "135644.703000", "135644.706000", "135644.709000", "135644.712000", "135644.715000", "135644.718000", "135644.721000", "135644.724000", "135644.727000", "135644.730000", "135644.733000", "135657.210000", "135657.214000", "135657.217000", "135657.220000", "135657.224000", "135657.227000", "135657.230000", "135657.233000", "135657.237000"],
      "InstanceCreationTime": ["135324.660000", "135324.664000", "135324.667000", "135324.670000", "135324.673000", "135324.676000", "135324.679000", "135324.682000", "135324.685000", "135324.688000", "135324.696000", "135324.699000", "135324.702000", "135324.705000", "135324.715000", "135324.718000", "135324.721000", "135324.724000", "135324.727000", "135324.730000", "135324.733000", "135324.736000", "135404.654000", "135404.658000", "135404.672000", "135404.675000", "135404.678000", "135404.681000", "135404.684000", "135404.688000", "135404.701000", "135404.704000", "135404.707000", "135404.710000", "135404.713000", "135404.716000", "135404.720000", "135404.723000", "135404.725000", "135404.729000", "135404.732000", "135404.735000", "135404.738000", "135404.740000", "135404.743000", "135404.746000", "135404.749000", "135404.752000", "135444.654000", "135444.657000", "135444.660000", "135444.663000", "135444.666000", "135444.669000", "135444.672000", "135444.679000", "135444.682000", "135444.685000", "135444.688000", "135444.691000", "135444.694000", "135444.697000", "135444.700000", "135444.703000", "135444.705000", "135444.708000", "135444.711000", "135444.714000", "135444.717000", "135444.720000", "135444.723000", "135444.726000", "135444.729000", "135444.732000", "135444.735000", "135524.655000", "135524.658000", "135524.661000", "135524.664000", "135524.667000", "135524.670000", "135524.673000", "135524.676000", "135524.679000", "135524.682000", "135524.685000", "135524.688000", "135524.691000", "135524.694000", "135524.697000", "135524.700000", "135524.703000", "135524.706000", "135524.709000", "135524.712000", "135524.714000", "135524.717000", "135524.720000", "135524.723000", "135524.726000", "135524.729000", "135524.732000", "135604.655000", "135604.658000", "135604.661000", "135604.664000", "135604.672000", "135604.675000", "135604.678000", "135604.681000", "135604.684000", "135604.687000", "135604.690000", "135604.693000", "135604.696000", "135604.699000", "135604.710000", "135604.713000", "135604.717000", "135604.721000", "135604.724000", "135604.727000", "135604.731000", "135604.734000", "135604.737000", "135604.740000", "135604.743000", "135604.746000", "135644.654000", "135644.658000", "135644.661000", "135644.664000", "135644.667000", "135644.670000", "135644.673000", "135644.676000", "135644.679000", "135644.682000", "135644.685000", "135644.688000", "135644.691000", "135644.694000", "135644.697000", "135644.700000", "135644.703000", "135644.706000", "135644.709000", "135644.712000", "135644.715000", "135644.718000", "135644.721000", "135644.724000", "135644.727000", "135644.730000", "135644.733000", "135657.210000", "135657.214000", "135657.217000", "135657.220000", "135657.224000", "135657.227000", "135657.230000", "135657.233000", "135657.237000"],
      "InstanceNumber": [1, 2, 3, 4, 5, 6, 7, 8, 9, 10, 11, 12, 13, 14, 15, 16, 17, 18, 19, 20, 21, 22, 23, 24, 25, 26, 27, 28, 29, 30, 31, 32, 33, 34, 35, 36, 37, 38, 39, 40, 41, 42, 43, 44, 45, 46, 47, 48, 49, 50, 51, 52, 53, 54, 55, 56, 57, 58, 59, 60, 61, 62, 63, 64, 65, 66, 67, 68, 69, 70, 71, 72, 73, 74, 75, 76, 77, 78, 79, 80, 81, 82, 83, 84, 85, 86, 87, 88, 89, 90, 91, 92, 93, 94, 95, 96, 97, 98, 99, 100, 101, 102, 103, 104, 105, 106, 107, 108, 109, 110, 111, 112, 113, 114, 115, 116, 117, 118, 119, 120, 121, 122, 123, 124, 125, 126, 127, 128, 129, 130, 131, 132, 133, 134, 135, 136, 137, 138, 139, 140, 141, 142, 143, 144, 145, 146, 147, 148, 149, 150, 151, 152, 153, 154, 155, 156, 157, 158, 159, 160, 161, 162, 163, 164],
      "LargestImagePixelValue": [2961, 2946, 2897, 2879, 2901, 2883, 2884, 2879, 2845, 2883, 2876, 2899, 2903, 2893, 2904, 2904, 2902, 2921, 2875, 2924, 2920, 2924, 2910, 2934, 2896, 2935, 2857, 2934, 2928, 2914, 2922, 2910, 2901, 2951, 2886, 2949, 2878, 2931, 2917, 2925, 2893, 2935, 2910, 2938, 2864, 2934, 2918, 2950, 2934, 2933, 2943, 2917, 2924, 2912, 2913, 2896, 2922, 2932, 2940, 2921, 2958, 2919, 2913, 2938, 2912, 2936, 2937, 2960, 2935, 2932, 2919, 2972, 2938, 2947, 2935, 2969, 2953, 2963, 2970, 2986, 2969, 3020, 2971, 2943, 2920, 2975, 2911, 2966, 2936, 2956, 2938, 2945, 2955, 2924, 2938, 2941, 2906, 2936, 2899, 2954, 2919, 2936, 2933, 2993, 2950, 2948, 2931, 2933, 2924, 2944, 2923, 2943, 2925, 2967, 2930, 2929, 2914, 2932, 2923, 2951, 2907, 2971, 2931, 2976, 2948, 2982, 2912, 2970, 2914, 2939, 2935, 2968, 2917, 2965, 2936, 2979, 2934, 2949, 2972, 2955, 2999, 2964, 2968, 2994, 2974, 3020, 3007, 2966, 2982, 2957, 2991, 2981, 3004, 2966, 3002, 2954, 2984, 2926, 2983, 2964, 2947, 2963, 2986, 2980],
      "WindowCenter": [770.0, 770.0, 770.0, 772.0, 773.0, 772.0, 771.0, 771.0, 769.0, 769.0, 769.0, 770.0, 770.0, 769.0, 770.0, 770.0, 771.0, 771.0, 770.0, 770.0, 769.0, 769.0, 769.0, 771.0, 771.0, 771.0, 770.0, 770.0, 770.0, 770.0, 770.0, 771.0, 771.0, 771.0, 770.0, 770.0, 769.0, 769.0, 768.0, 770.0, 770.0, 771.0, 770.0, 769.0, 769.0, 769.0, 769.0, 769.0, 769.0, 769.0, 769.0, 769.0, 770.0, 770.0, 769.0, 768.0, 768.0, 768.0, 769.0, 769.0, 770.0, 769.0, 769.0, 769.0, 769.0, 770.0, 769.0, 769.0, 769.0, 770.0, 768.0, 768.0, 768.0, 768.0, 767.0, 768.0, 769.0, 769.0, 769.0, 769.0, 768.0, 769.0, 770.0, 770.0, 770.0, 770.0, 769.0, 768.0, 768.0, 767.0, 767.0, 768.0, 768.0, 768.0, 767.0, 766.0, 766.0, 766.0, 767.0, 768.0, 769.0, 769.0, 767.0, 767.0, 767.0, 768.0, 768.0, 767.0, 768.0, 768.0, 768.0, 769.0, 768.0, 769.0, 769.0, 768.0, 768.0, 768.0, 767.0, 767.0, 766.0, 768.0, 769.0, 769.0, 768.0, 767.0, 766.0, 766.0, 767.0, 767.0, 768.0, 768.0, 767.0, 767.0, 769.0, 769.0, 769.0, 768.0, 768.0, 767.0, 767.0, 766.0, 766.0, 767.0, 769.0, 770.0, 770.0, 769.0, 768.0, 768.0, 768.0, 768.0, 769.0, 769.0, 770.0, 769.0, 768.0, 766.0, 766.0, 766.0, 767.0, 769.0, 771.0, 771.0],
      "WindowWidth": [1648.0, 1647.0, 1649.0, 1654.0, 1656.0, 1654.0, 1651.0, 1649.0, 1645.0, 1644.0, 1645.0, 1647.0, 1648.0, 1647.0, 1647.0, 1649.0, 1650.0, 1650.0, 1647.0, 1647.0, 1645.0, 1646.0, 1647.0, 1651.0, 1650.0, 1651.0, 1649.0, 1648.0, 1649.0, 1648.0, 1649.0, 1651.0, 1649.0, 1650.0, 1648.0, 1647.0, 1645.0, 1645.0, 1644.0, 1646.0, 1648.0, 1649.0, 1648.0, 1646.0, 1645.0, 1645.0, 1644.0, 1646.0, 1645.0, 1646.0, 1646.0, 1644.0, 1647.0, 1647.0, 1646.0, 1643.0, 1642.0, 1642.0, 1645.0, 1646.0, 1648.0, 1646.0, 1645.0, 1646.0, 1645.0, 1647.0, 1644.0, 1645.0, 1645.0, 1646.0, 1643.0, 1644.0, 1641.0, 1642.0, 1641.0, 1643.0, 1644.0, 1646.0, 1645.0, 1645.0, 1643.0, 1645.0, 1646.0, 1648.0, 1647.0, 1646.0, 1644.0, 1643.0, 1641.0, 1640.0, 1640.0, 1641.0, 1641.0, 1642.0, 1641.0, 1638.0, 1637.0, 1637.0, 1639.0, 1643.0, 1644.0, 1644.0, 1640.0, 1640.0, 1641.0, 1641.0, 1642.0, 1640.0, 1641.0, 1641.0, 1642.0, 1644.0, 1643.0, 1645.0, 1644.0, 1643.0, 1642.0, 1641.0, 1640.0, 1639.0, 1638.0, 1642.0, 1644.0, 1646.0, 1643.0, 1641.0, 1637.0, 1637.0, 1639.0, 1641.0, 1643.0, 1643.0, 1641.0, 1641.0, 1644.0, 1646.0, 1646.0, 1642.0, 1642.0, 1639.0, 1639.0, 1638.0, 1638.0, 1641.0, 1645.0, 1648.0, 1647.0, 1645.0, 1643.0, 1642.0, 1643.0, 1643.0, 1645.0, 1646.0, 1647.0, 1645.0, 1642.0, 1638.0, 1638.0, 1639.0, 1641.0, 1645.0, 1650.0, 1650.0]
    },
    "slices": {}
  }
}