{
  "AcquisitionMatrixPE": 72,
  "AcquisitionNumber": 1,
  "AcquisitionTime": "14:23:7.260000",
  "BandwidthPerPixelPhaseEncode": 17.943,
  "BaseResolution": 96,
  "BodyPartExamined": "BRAIN",
  "CoilCombinationMethod": "Sum of Squares",
  "ConsistencyInfo": "N4_VE11C_LATEST_20160120",
  "ConversionSoftware": "dcm2niix",
  "ConversionSoftwareVersion": "v1.0.20211006",
  "DerivedVendorReportedEchoSpacing": 0.000552897,
  "DeviceSerialNumber": "166011",
  "EchoTime": 0.03,
  "EchoTrainLength": 58,
  "EffectiveEchoSpacing": 0.000580542,
  "FlipAngle": 62,
  "ImageOrientationPatientDICOM": [0.99721, 0.0256127, 0.0701164, -0.00887652, 0.973316, -0.229297],
  "ImageType": [
    "ORIGINAL",
    "PRIMARY",
    "M",
    "ND",
    "MOSAIC"
],
  "ImagingFrequency": 123.259,
  "InPlanePhaseEncodingDirectionDICOM": "COL",
  "InstitutionAddress": "West 130th Street 610,NY,NYC,US,10025",
  "InstitutionName": "MBBI",
  "MRAcquisitionType": "2D",
  "MagneticFieldStrength": 3,
  "Manufacturer": "Siemens",
  "ManufacturersModelName": "Prisma",
  "Modality": "MR",
  "MultibandAccelerationFactor": 3,
  "PartialFourier": 0.75,
  "PatientPosition": "HFS",
  "PercentPhaseFOV": 100,
  "PercentSampling": 75,
  "PhaseEncodingDirection": "j-",
  "PhaseEncodingSteps": 58,
  "PhaseOversampling": 0.05,
  "PhaseResolution": 0.75,
  "PixelBandwidth": 2265,
  "ProcedureStepDescription": "White^Word_recognition",
  "ProtocolName": "func_catLoc_run2",
  "PulseSequenceDetails": "%SiemensSeq%\\ep2d_bold",
  "ReceiveCoilActiveElements": "HC1-7",
  "ReceiveCoilName": "HeadNeck_64",
  "ReconMatrixPE": 96,
  "RefLinesPE": 40,
  "RepetitionTime": 1.5,
  "SAR": 0.0503528,
  "ScanOptions": "PFP\\FS",
  "ScanningSequence": "EP",
  "SequenceName": "*epfid2d1_72",
  "SequenceVariant": "SK\\OSP",
  "SeriesDescription": "func_catLoc_run2",
  "SeriesNumber": 13,
  "ShimSetting": [-1143, -1321, 650, 400, -69, -65, -66, -8],
  "SliceThickness": 2,
  "SliceTiming": [1.0775, 0, 0.74, 0.0675, 0.8075, 0.135, 0.875, 0.2025, 0.9425, 0.27, 1.01, 0.405, 1.145, 0.4725, 1.2125, 0.54, 1.28, 0.6075, 1.3475, 0.6725, 1.4125, 0.3375, 1.0775, 0, 0.74, 0.0675, 0.8075, 0.135, 0.875, 0.2025, 0.9425, 0.27, 1.01, 0.405, 1.145, 0.4725, 1.2125, 0.54, 1.28, 0.6075, 1.3475, 0.6725, 1.4125, 0.3375, 1.0775, 0, 0.74, 0.0675, 0.8075, 0.135, 0.875, 0.2025, 0.9425, 0.27, 1.01, 0.405, 1.145, 0.4725, 1.2125, 0.54, 1.28, 0.6075, 1.3475, 0.6725, 1.4125, 0.3375],
  "SoftwareVersions": "syngo MR E11",
  "SpacingBetweenSlices": 2,
  "StationName": "AWP166011",
  "TaskName": "catLoc",
  "TotalReadoutTime": 0.0551515,
  "TxRefAmp": 242.786,
  "dcmmeta_affine": [
    [-1.9944199323654175, -0.01775304041802883, 0.14823664724826813, 99.9979476928711],
    [-0.051225364208221436, 1.9466320276260376, -0.4560697376728058, -54.68618392944336],
    [0.14023278653621674, 0.45859402418136597, 1.9416555166244507, -96.10363006591797],
    [0.0, 0.0, 0.0, 1.0]
],
  "dcmmeta_reorient_transform": [
    [0.0, -1.0, 0.0, 95.0],
    [1.0, 0.0, 0.0, 0.0],
    [0.0, 0.0, 1.0, 0.0],
    [0.0, 0.0, 0.0, 1.0]
],
  "dcmmeta_shape": [96, 96, 66, 214],
  "dcmmeta_slice_dim": 2,
  "dcmmeta_version": 0.6,
  "global": {
    "const": {
      "AcquisitionMatrix": [96, 0, 0, 72],
      "AngioFlag": "N",
      "BitsAllocated": 16,
      "BitsStored": 12,
      "BodyPartExamined": "BRAIN",
      "Columns": 864,
      "EchoNumbers": 1,
      "EchoTime": 30.0,
      "EchoTrainLength": 58,
      "FlipAngle": 62.0,
      "HighBit": 11,
      "ImageOrientationPatient": [0.99720994864603, 0.0256126825442, 0.07011639476089, -0.0088765202685, 0.97331602577555, -0.2292970155855],
      "ImagePositionPatient": [-857.35148551672, -897.42111037864, 69.713521541378],
      "ImageType": [
        "ORIGINAL",
        "PRIMARY",
        "M",
        "ND",
        "MOSAIC"
],
      "ImagedNucleus": "1H",
      "ImagingFrequency": 123.259419,
      "InPlanePhaseEncodingDirection": "COL",
      "MRAcquisitionType": "2D",
      "MagneticFieldStrength": 3.0,
      "Manufacturer": "SIEMENS",
      "ManufacturerModelName": "Prisma",
      "Modality": "MR",
      "NumberOfAverages": 1.0,
      "NumberOfPhaseEncodingSteps": 58,
      "PercentPhaseFieldOfView": 100.0,
      "PercentSampling": 75.0,
      "PerformedProcedureStepStartTime": "132525.019000",
      "PhotometricInterpretation": "MONOCHROME2",
      "PixelBandwidth": 2265.0,
      "PixelRepresentation": 0,
      "PixelSpacing": [2.0, 2.0],
      "ProtocolName": "func_catLoc_run2",
      "RepetitionTime": 1500.0,
      "Rows": 864,
      "SAR": 0.05035281711633,
      "SamplesPerPixel": 1,
      "ScanOptions": [
        "PFP",
        "FS"
],
      "ScanningSequence": "EP",
      "SequenceName": "*epfid2d1_72",
      "SequenceVariant": [
        "SK",
        "OSP"
],
      "SeriesDescription": "func_catLoc_run2",
      "SeriesNumber": 13,
      "SeriesTime": "142344.803000",
      "SliceLocation": -73.418034385891,
      "SliceThickness": 2.0,
      "SmallestImagePixelValue": 0,
      "SoftwareVersions": "syngo MR E11",
      "SpacingBetweenSlices": 2.000000003212,
      "SpecificCharacterSet": "ISO_IR 100",
      "StudyID": "1",
      "StudyTime": "132524.946000",
      "TransmitCoilName": "Body",
      "VariableFlipAngleFlag": "N",
      "WindowCenterWidthExplanation": "Algo1",
      "dBdt": 0.0},
    "slices": {}
  },
  "time": {
    "samples": {
      "AcquisitionNumber": [1, 2, 3, 4, 5, 6, 7, 8, 9, 10, 11, 12, 13, 14, 15, 16, 17, 18, 19, 20, 21, 22, 23, 24, 25, 26, 27, 28, 29, 30, 31, 32, 33, 34, 35, 36, 37, 38, 39, 40, 41, 42, 43, 44, 45, 46, 47, 48, 49, 50, 51, 52, 53, 54, 55, 56, 57, 58, 59, 60, 61, 62, 63, 64, 65, 66, 67, 68, 69, 70, 71, 72, 73, 74, 75, 76, 77, 78, 79, 80, 81, 82, 83, 84, 85, 86, 87, 88, 89, 90, 91, 92, 93, 94, 95, 96, 97, 98, 99, 100, 101, 102, 103, 104, 105, 106, 107, 108, 109, 110, 111, 112, 113, 114, 115, 116, 117, 118, 119, 120, 121, 122, 123, 124, 125, 126, 127, 128, 129, 130, 131, 132, 133, 134, 135, 136, 137, 138, 139, 140, 141, 142, 143, 144, 145, 146, 147, 148, 149, 150, 151, 152, 153, 154, 155, 156, 157, 158, 159, 160, 161, 162, 163, 164, 165, 166, 167, 168, 169, 170, 171, 172, 173, 174, 175, 176, 177, 178, 179, 180, 181, 182, 183, 184, 185, 186, 187, 188, 189, 190, 191, 192, 193, 194, 195, 196, 197, 198, 199, 200, 201, 202, 203, 204, 205, 206, 207, 208, 209, 210, 211, 212, 213, 214],
      "AcquisitionTime": ["142307.260000", "142308.760000", "142310.260000", "142311.760000", "142313.260000", "142314.760000", "142316.260000", "142317.760000", "142319.260000", "142320.760000", "142322.260000", "142323.760000", "142325.260000", "142326.760000", "142328.260000", "142329.760000", "142331.260000", "142332.760000", "142334.260000", "142335.760000", "142337.260000", "142338.760000", "142340.260000", "142341.760000", "142343.260000", "142344.760000", "142346.260000", "142347.760000", "142349.260000", "142350.760000", "142352.260000", "142353.760000", "142355.260000", "142356.760000", "142358.260000", "142359.760000", "142401.260000", "142402.760000", "142404.260000", "142405.760000", "142407.260000", "142408.760000", "142410.260000", "142411.760000", "142413.260000", "142414.760000", "142416.260000", "142417.760000", "142419.260000", "142420.760000", "142422.260000", "142423.760000", "142425.260000", "142426.760000", "142428.260000", "142429.760000", "142431.260000", "142432.760000", "142434.260000", "142435.760000", "142437.260000", "142438.760000", "142440.260000", "142441.760000", "142443.260000", "142444.760000", "142446.260000", "142447.760000", "142449.260000", "142450.760000", "142452.260000", "142453.760000", "142455.260000", "142456.760000", "142458.260000", "142459.760000", "142501.260000", "142502.760000", "142504.260000", "142505.760000", "142507.260000", "142508.760000", "142510.260000", "142511.760000", "142513.260000", "142514.760000", "142516.260000", "142517.760000", "142519.260000", "142520.760000", "142522.260000", "142523.760000", "142525.260000", "142526.760000", "142528.260000", "142529.760000", "142531.260000", "142532.760000", "142534.260000", "142535.760000", "142537.260000", "142538.760000", "142540.260000", "142541.760000", "142543.260000", "142544.760000", "142546.260000", "142547.760000", "142549.260000", "142550.760000", "142552.260000", "142553.760000", "142555.260000", "142556.760000", "142558.260000", "142559.760000", "142601.260000", "142602.760000", "142604.260000", "142605.760000", "142607.260000", "142608.760000", "142610.260000", "142611.760000", "142613.260000", "142614.760000", "142616.260000", "142617.760000", "142619.260000", "142620.760000", "142622.260000", "142623.760000", "142625.260000", "142626.760000", "142628.260000", "142629.760000", "142631.260000", "142632.760000", "142634.260000", "142635.760000", "142637.260000", "142638.760000", "142640.260000", "142641.760000", "142643.260000", "142644.760000", "142646.260000", "142647.760000", "142649.260000", "142650.760000", "142652.260000", "142653.760000", "142655.260000", "142656.760000", "142658.260000", "142659.760000", "142701.260000", "142702.760000", "142704.260000", "142705.760000", "142707.260000", "142708.760000", "142710.260000", "142711.760000", "142713.260000", "142714.760000", "142716.260000", "142717.760000", "142719.260000", "142720.760000", "142722.260000", "142723.760000", "142725.260000", "142726.760000", "142728.260000", "142729.760000", "142731.260000", "142732.760000", "142734.260000", "142735.760000", "142737.260000", "142738.760000", "142740.260000", "142741.760000", "142743.260000", "142744.760000", "142746.260000", "142747.760000", "142749.260000", "142750.760000", "142752.260000", "142753.760000", "142755.260000", "142756.760000", "142758.260000", "142759.760000", "142801.260000", "142802.760000", "142804.260000", "142805.760000", "142807.260000", "142808.760000", "142810.260000", "142811.760000", "142813.260000", "142814.760000", "142816.260000", "142817.760000", "142819.260000", "142820.760000", "142822.260000", "142823.760000", "142825.260000", "142826.760000"],
      "ContentTime": ["142344.807000", "142344.811000", "142344.814000", "142344.820000", "142344.823000", "142344.826000", "142344.829000", "142344.832000", "142344.835000", "142344.838000", "142344.841000", "142344.844000", "142344.847000", "142344.850000", "142344.853000", "142344.861000", "142344.870000", "142344.873000", "142344.875000", "142344.879000", "142344.881000", "142344.884000", "142344.887000", "142344.890000", "142344.893000", "142424.801000", "142424.804000", "142424.820000", "142424.823000", "142424.826000", "142424.829000", "142424.832000", "142424.835000", "142424.838000", "142424.841000", "142424.844000", "142424.847000", "142424.850000", "142424.853000", "142424.856000", "142424.859000", "142424.862000", "142424.865000", "142424.868000", "142424.876000", "142424.879000", "142424.882000", "142424.885000", "142424.888000", "142424.891000", "142424.894000", "142424.897000", "142504.801000", "142504.804000", "142504.807000", "142504.810000", "142504.813000", "142504.816000", "142504.819000", "142504.822000", "142504.825000", "142504.828000", "142504.848000", "142504.860000", "142504.863000", "142504.866000", "142504.869000", "142504.872000", "142504.875000", "142504.878000", "142504.881000", "142504.884000", "142504.887000", "142504.890000", "142504.893000", "142504.896000", "142504.899000", "142504.902000", "142544.802000", "142544.805000", "142544.808000", "142544.811000", "142544.814000", "142544.817000", "142544.820000", "142544.823000", "142544.826000", "142544.829000", "142544.832000", "142544.845000", "142544.848000", "142544.851000", "142544.853000", "142544.857000", "142544.860000", "142544.863000", "142544.866000", "142544.869000", "142544.872000", "142544.875000", "142544.878000", "142544.881000", "142544.884000", "142544.887000", "142544.890000", "142624.802000", "142624.805000", "142624.815000", "142624.818000", "142624.821000", "142624.824000", "142624.827000", "142624.830000", "142624.833000", "142624.836000", "142624.839000", "142624.842000", "142624.845000", "142624.848000", "142624.851000", "142624.854000", "142624.857000", "142624.860000", "142624.863000", "142624.866000", "142624.869000", "142624.872000", "142624.875000", "142624.878000", "142624.887000", "142624.890000", "142624.893000", "142704.801000", "142704.804000", "142704.807000", "142704.810000", "142704.813000", "142704.816000", "142704.819000", "142704.822000", "142704.825000", "142704.828000", "142704.831000", "142704.834000", "142704.837000", "142704.840000", "142704.843000", "142704.846000", "142704.849000", "142704.852000", "142704.855000", "142704.858000", "142704.861000", "142704.864000", "142704.867000", "142704.870000", "142704.873000", "142704.876000", "142744.802000", "142744.805000", "142744.808000", "142744.811000", "142744.814000", "142744.817000", "142744.820000", "142744.823000", "142744.827000", "142744.830000", "142744.833000", "142744.836000", "142744.839000", "142744.842000", "142744.845000", "142744.848000", "142744.851000", "142744.854000", "142744.857000", "142744.860000", "142744.863000", "142744.866000", "142744.869000", "142744.872000", "142744.875000", "142744.878000", "142744.881000", "142824.802000", "142824.805000", "142824.808000", "142824.811000", "142824.814000", "142824.817000", "142824.820000", "142824.823000", "142824.826000", "142824.829000", "142824.832000", "142824.835000", "142824.838000", "142824.841000", "142824.844000", "142824.847000", "142824.850000", "142824.853000", "142824.856000", "142824.859000", "142824.862000", "142824.865000", "142824.868000", "142824.871000", "142824.874000", "142824.877000", "142824.880000", "142827.709000", "142827.712000"],
      "InstanceCreationTime": ["142344.807000", "142344.811000", "142344.814000", "142344.820000", "142344.823000", "142344.826000", "142344.829000", "142344.832000", "142344.835000", "142344.838000", "142344.841000", "142344.844000", "142344.847000", "142344.850000", "142344.853000", "142344.861000", "142344.870000", "142344.873000", "142344.875000", "142344.879000", "142344.881000", "142344.884000", "142344.887000", "142344.890000", "142344.893000", "142424.801000", "142424.804000", "142424.820000", "142424.823000", "142424.826000", "142424.829000", "142424.832000", "142424.835000", "142424.838000", "142424.841000", "142424.844000", "142424.847000", "142424.850000", "142424.853000", "142424.856000", "142424.859000", "142424.862000", "142424.865000", "142424.868000", "142424.876000", "142424.879000", "142424.882000", "142424.885000", "142424.888000", "142424.891000", "142424.894000", "142424.897000", "142504.801000", "142504.804000", "142504.807000", "142504.810000", "142504.813000", "142504.816000", "142504.819000", "142504.822000", "142504.825000", "142504.828000", "142504.848000", "142504.860000", "142504.863000", "142504.866000", "142504.869000", "142504.872000", "142504.875000", "142504.878000", "142504.881000", "142504.884000", "142504.887000", "142504.890000", "142504.893000", "142504.896000", "142504.899000", "142504.902000", "142544.802000", "142544.805000", "142544.808000", "142544.811000", "142544.814000", "142544.817000", "142544.820000", "142544.823000", "142544.826000", "142544.829000", "142544.832000", "142544.845000", "142544.848000", "142544.851000", "142544.853000", "142544.857000", "142544.860000", "142544.863000", "142544.866000", "142544.869000", "142544.872000", "142544.875000", "142544.878000", "142544.881000", "142544.884000", "142544.887000", "142544.890000", "142624.802000", "142624.805000", "142624.815000", "142624.818000", "142624.821000", "142624.824000", "142624.827000", "142624.830000", "142624.833000", "142624.836000", "142624.839000", "142624.842000", "142624.845000", "142624.848000", "142624.851000", "142624.854000", "142624.857000", "142624.860000", "142624.863000", "142624.866000", "142624.869000", "142624.872000", "142624.875000", "142624.878000", "142624.887000", "142624.890000", "142624.893000", "142704.801000", "142704.804000", "142704.807000", "142704.810000", "142704.813000", "142704.816000", "142704.819000", "142704.822000", "142704.825000", "142704.828000", "142704.831000", "142704.834000", "142704.837000", "142704.840000", "142704.843000", "142704.846000", "142704.849000", "142704.852000", "142704.855000", "142704.858000", "142704.861000", "142704.864000", "142704.867000", "142704.870000", "142704.873000", "142704.876000", "142744.802000", "142744.805000", "142744.808000", "142744.811000", "142744.814000", "142744.817000", "142744.820000", "142744.823000", "142744.827000", "142744.830000", "142744.833000", "142744.836000", "142744.839000", "142744.842000", "142744.845000", "142744.848000", "142744.851000", "142744.854000", "142744.857000", "142744.860000", "142744.863000", "142744.866000", "142744.869000", "142744.872000", "142744.875000", "142744.878000", "142744.881000", "142824.802000", "142824.805000", "142824.808000", "142824.811000", "142824.814000", "142824.817000", "142824.820000", "142824.823000", "142824.826000", "142824.829000", "142824.832000", "142824.835000", "142824.838000", "142824.841000", "142824.844000", "142824.847000", "142824.850000", "142824.853000", "142824.856000", "142824.859000", "142824.862000", "142824.865000", "142824.868000", "142824.871000", "142824.874000", "142824.877000", "142824.880000", "142827.709000", "142827.712000"],
      "InstanceNumber": [1, 2, 3, 4, 5, 6, 7, 8, 9, 10, 11, 12, 13, 14, 15, 16, 17, 18, 19, 20, 21, 22, 23, 24, 25, 26, 27, 28, 29, 30, 31, 32, 33, 34, 35, 36, 37, 38, 39, 40, 41, 42, 43, 44, 45, 46, 47, 48, 49, 50, 51, 52, 53, 54, 55, 56, 57, 58, 59, 60, 61, 62, 63, 64, 65, 66, 67, 68, 69, 70, 71, 72, 73, 74, 75, 76, 77, 78, 79, 80, 81, 82, 83, 84, 85, 86, 87, 88, 89, 90, 91, 92, 93, 94, 95, 96, 97, 98, 99, 100, 101, 102, 103, 104, 105, 106, 107, 108, 109, 110, 111, 112, 113, 114, 115, 116, 117, 118, 119, 120, 121, 122, 123, 124, 125, 126, 127, 128, 129, 130, 131, 132, 133, 134, 135, 136, 137, 138, 139, 140, 141, 142, 143, 144, 145, 146, 147, 148, 149, 150, 151, 152, 153, 154, 155, 156, 157, 158, 159, 160, 161, 162, 163, 164, 165, 166, 167, 168, 169, 170, 171, 172, 173, 174, 175, 176, 177, 178, 179, 180, 181, 182, 183, 184, 185, 186, 187, 188, 189, 190, 191, 192, 193, 194, 195, 196, 197, 198, 199, 200, 201, 202, 203, 204, 205, 206, 207, 208, 209, 210, 211, 212, 213, 214],
      "LargestImagePixelValue": [2834, 2733, 2784, 2713, 2757, 2706, 2731, 2711, 2736, 2708, 2735, 2704, 2694, 2691, 2738, 2692, 2708, 2710, 2745, 2700, 2697, 2741, 2735, 2735, 2726, 2795, 2716, 2750, 2676, 2677, 2686, 2694, 2719, 2690, 2751, 2696, 2710, 2680, 2672, 2709, 2709, 2706, 2660, 2695, 2711, 2717, 2734, 2689, 2723, 2699, 2718, 2705, 2694, 2689, 2679, 2669, 2702, 2675, 2701, 2719, 2708, 2688, 2681, 2659, 2700, 2681, 2720, 2688, 2703, 2700, 2688, 2694, 2698, 2718, 2712, 2677, 2692, 2670, 2730, 2707, 2734, 2703, 2722, 2714, 2697, 2698, 2707, 2705, 2705, 2666, 2700, 2673, 2738, 2688, 2702, 2701, 2759, 2684, 2730, 2712, 2739, 2686, 2735, 2704, 2711, 2640, 2706, 2679, 2681, 2657, 2652, 2692, 2618, 2657, 2646, 2677, 2675, 2688, 2642, 2690, 2664, 2676, 2654, 2702, 2688, 2710, 2661, 2710, 2671, 2701, 2685, 2698, 2639, 2711, 2597, 2726, 2607, 2693, 2644, 2687, 2643, 2711, 2723, 2714, 2700, 2657, 2679, 2608, 2727, 2679, 2678, 2621, 2642, 2661, 2682, 2646, 2720, 2664, 2693, 2698, 2703, 2720, 2702, 2694, 2697, 2688, 2678, 2665, 2693, 2706, 2705, 2704, 2702, 2706, 2710, 2700, 2705, 2716, 2754, 2699, 2725, 2668, 2732, 2701, 2735, 2715, 2739, 2710, 2720, 2718, 2756, 2746, 2757, 2734, 2761, 2742, 2719, 2667, 2698, 2676, 2733, 2719, 2732, 2732, 2751, 2751, 2765, 2718, 2711, 2723, 2679, 2681, 2700, 2724],
      "WindowCenter": [755.0, 754.0, 755.0, 754.0, 753.0, 752.0, 753.0, 753.0, 754.0, 754.0, 755.0, 755.0, 755.0, 754.0, 754.0, 752.0, 752.0, 753.0, 754.0, 754.0, 754.0, 752.0, 752.0, 751.0, 751.0, 752.0, 753.0, 755.0, 756.0, 755.0, 754.0, 754.0, 754.0, 754.0, 754.0, 753.0, 753.0, 752.0, 752.0, 751.0, 751.0, 751.0, 751.0, 751.0, 752.0, 752.0, 752.0, 751.0, 751.0, 751.0, 752.0, 752.0, 753.0, 753.0, 754.0, 754.0, 755.0, 754.0, 754.0, 754.0, 753.0, 753.0, 753.0, 753.0, 753.0, 753.0, 753.0, 754.0, 753.0, 753.0, 752.0, 752.0, 752.0, 753.0, 753.0, 752.0, 752.0, 751.0, 752.0, 751.0, 752.0, 752.0, 752.0, 750.0, 750.0, 750.0, 751.0, 751.0, 750.0, 749.0, 750.0, 750.0, 750.0, 749.0, 749.0, 748.0, 749.0, 748.0, 750.0, 749.0, 748.0, 747.0, 747.0, 747.0, 748.0, 748.0, 749.0, 748.0, 750.0, 749.0, 748.0, 747.0, 745.0, 745.0, 745.0, 747.0, 748.0, 749.0, 748.0, 748.0, 746.0, 747.0, 747.0, 748.0, 748.0, 748.0, 747.0, 747.0, 747.0, 748.0, 748.0, 747.0, 746.0, 745.0, 745.0, 746.0, 745.0, 746.0, 745.0, 745.0, 745.0, 745.0, 747.0, 748.0, 748.0, 746.0, 746.0, 745.0, 745.0, 747.0, 748.0, 746.0, 745.0, 744.0, 744.0, 744.0, 746.0, 746.0, 747.0, 748.0, 748.0, 748.0, 747.0, 746.0, 746.0, 745.0, 744.0, 744.0, 745.0, 745.0, 745.0, 744.0, 744.0, 745.0, 746.0, 745.0, 745.0, 745.0, 746.0, 746.0, 746.0, 745.0, 744.0, 744.0, 745.0, 745.0, 746.0, 746.0, 746.0, 746.0, 746.0, 746.0, 746.0, 746.0, 746.0, 746.0, 746.0, 746.0, 748.0, 749.0, 749.0, 747.0, 747.0, 747.0, 748.0, 748.0, 747.0, 747.0, 746.0, 745.0, 746.0, 747.0, 747.0, 746.0],
      "WindowWidth": [1609.0, 1607.0, 1609.0, 1606.0, 1605.0, 1602.0, 1604.0, 1604.0, 1606.0, 1608.0, 1610.0, 1610.0, 1610.0, 1607.0, 1606.0, 1603.0, 1603.0, 1605.0, 1608.0, 1608.0, 1607.0, 1603.0, 1602.0, 1601.0, 1600.0, 1603.0, 1604.0, 1609.0, 1611.0, 1610.0, 1608.0, 1606.0, 1607.0, 1607.0, 1607.0, 1605.0, 1605.0, 1603.0, 1602.0, 1601.0, 1600.0, 1600.0, 1599.0, 1601.0, 1603.0, 1602.0, 1602.0, 1599.0, 1600.0, 1600.0, 1602.0, 1602.0, 1604.0, 1605.0, 1606.0, 1606.0, 1609.0, 1608.0, 1607.0, 1606.0, 1605.0, 1605.0, 1603.0, 1604.0, 1604.0, 1605.0, 1606.0, 1607.0, 1605.0, 1604.0, 1601.0, 1602.0, 1602.0, 1604.0, 1604.0, 1601.0, 1602.0, 1600.0, 1601.0, 1601.0, 1603.0, 1603.0, 1601.0, 1597.0, 1597.0, 1598.0, 1600.0, 1599.0, 1598.0, 1596.0, 1596.0, 1596.0, 1595.0, 1593.0, 1594.0, 1592.0, 1594.0, 1592.0, 1596.0, 1595.0, 1593.0, 1590.0, 1589.0, 1589.0, 1591.0, 1590.0, 1594.0, 1592.0, 1596.0, 1595.0, 1591.0, 1589.0, 1585.0, 1584.0, 1585.0, 1589.0, 1592.0, 1594.0, 1592.0, 1591.0, 1587.0, 1588.0, 1590.0, 1592.0, 1591.0, 1590.0, 1589.0, 1590.0, 1590.0, 1591.0, 1591.0, 1588.0, 1586.0, 1585.0, 1583.0, 1587.0, 1585.0, 1587.0, 1585.0, 1585.0, 1584.0, 1584.0, 1589.0, 1591.0, 1593.0, 1588.0, 1587.0, 1585.0, 1584.0, 1590.0, 1590.0, 1587.0, 1583.0, 1580.0, 1581.0, 1582.0, 1586.0, 1586.0, 1588.0, 1590.0, 1591.0, 1591.0, 1588.0, 1587.0, 1585.0, 1583.0, 1582.0, 1582.0, 1583.0, 1584.0, 1584.0, 1582.0, 1583.0, 1584.0, 1586.0, 1583.0, 1583.0, 1584.0, 1587.0, 1587.0, 1586.0, 1583.0, 1582.0, 1581.0, 1583.0, 1584.0, 1585.0, 1586.0, 1586.0, 1586.0, 1587.0, 1587.0, 1586.0, 1586.0, 1586.0, 1586.0, 1587.0, 1587.0, 1591.0, 1593.0, 1593.0, 1590.0, 1588.0, 1589.0, 1591.0, 1592.0, 1590.0, 1590.0, 1587.0, 1585.0, 1586.0, 1589.0, 1590.0, 1588.0]
    },
    "slices": {}
  }
}