{
  "AcquisitionMatrixPE": 72,
  "AcquisitionNumber": 1,
  "AcquisitionTime": "17:15:34.302500",
  "BandwidthPerPixelPhaseEncode": 17.943,
  "BaseResolution": 96,
  "BodyPartExamined": "BRAIN",
  "CoilCombinationMethod": "Sum of Squares",
  "ConsistencyInfo": "N4_VE11C_LATEST_20160120",
  "ConversionSoftware": "dcm2niix",
  "ConversionSoftwareVersion": "v1.0.20211006",
  "DerivedVendorReportedEchoSpacing": 0.000552897,
  "DeviceSerialNumber": "166011",
  "EchoTime": 0.03,
  "EchoTrainLength": 58,
  "EffectiveEchoSpacing": 0.000580542,
  "FlipAngle": 62,
  "ImageOrientationPatientDICOM": [0.999392, -0.00173058, 0.0348117, 0.00593059, 0.992646, -0.120911],
  "ImageType": [
    "ORIGINAL",
    "PRIMARY",
    "M",
    "ND",
    "MOSAIC"
],
  "ImagingFrequency": 123.26,
  "InPlanePhaseEncodingDirectionDICOM": "COL",
  "InstitutionAddress": "West 130th Street 610,NY,NYC,US,10025",
  "InstitutionName": "MBBI",
  "MRAcquisitionType": "2D",
  "MagneticFieldStrength": 3,
  "Manufacturer": "Siemens",
  "ManufacturersModelName": "Prisma",
  "Modality": "MR",
  "MultibandAccelerationFactor": 3,
  "PartialFourier": 0.75,
  "PatientPosition": "HFS",
  "PercentPhaseFOV": 100,
  "PercentSampling": 75,
  "PhaseEncodingDirection": "j-",
  "PhaseEncodingSteps": 58,
  "PhaseOversampling": 0.05,
  "PhaseResolution": 0.75,
  "PixelBandwidth": 2265,
  "ProcedureStepDescription": "White^Word_recognition",
  "ProtocolName": "func_language_run2",
  "PulseSequenceDetails": "%SiemensSeq%\\ep2d_bold",
  "ReceiveCoilActiveElements": "HC1-7",
  "ReceiveCoilName": "HeadNeck_64",
  "ReconMatrixPE": 96,
  "RefLinesPE": 40,
  "RepetitionTime": 1.5,
  "SAR": 0.044425,
  "ScanOptions": "PFP\\FS",
  "ScanningSequence": "EP",
  "SequenceName": "*epfid2d1_72",
  "SequenceVariant": "SK\\OSP",
  "SeriesDescription": "func_language_run2",
  "SeriesNumber": 13,
  "ShimSetting": [-1146, -1307, 614, 627, -115, 68, -82, 5],
  "SliceThickness": 2,
  "SliceTiming": [1.075, 0, 0.74, 0.0675, 0.8075, 0.1325, 0.8725, 0.2, 0.94, 0.2675, 1.0075, 0.4025, 1.1425, 0.47, 1.21, 0.5375, 1.2775, 0.605, 1.345, 0.6725, 1.4125, 0.335, 1.075, 0, 0.74, 0.0675, 0.8075, 0.1325, 0.8725, 0.2, 0.94, 0.2675, 1.0075, 0.4025, 1.1425, 0.47, 1.21, 0.5375, 1.2775, 0.605, 1.345, 0.6725, 1.4125, 0.335, 1.075, 0, 0.74, 0.0675, 0.8075, 0.1325, 0.8725, 0.2, 0.94, 0.2675, 1.0075, 0.4025, 1.1425, 0.47, 1.21, 0.5375, 1.2775, 0.605, 1.345, 0.6725, 1.4125, 0.335],
  "SoftwareVersions": "syngo MR E11",
  "SpacingBetweenSlices": 2,
  "StationName": "AWP166011",
  "TaskName": "langLoc",
  "TotalReadoutTime": 0.0551515,
  "TxRefAmp": 218.081,
  "dcmmeta_affine": [
    [-1.9987847805023193, 0.011861187405884266, 0.06869293004274368, 100.80621337890625],
    [0.0034611665178090334, 1.9852911233901978, -0.24208875000476837, -70.71260070800781],
    [0.06962346285581589, 0.2418227642774582, 1.9841054677963257, -79.58406066894531],
    [0.0, 0.0, 0.0, 1.0]
],
  "dcmmeta_reorient_transform": [
    [0.0, -1.0, 0.0, 95.0],
    [1.0, 0.0, 0.0, 0.0],
    [0.0, 0.0, 1.0, 0.0],
    [0.0, 0.0, 0.0, 1.0]
],
  "dcmmeta_shape": [96, 96, 66, 239],
  "dcmmeta_slice_dim": 2,
  "dcmmeta_version": 0.6,
  "global": {
    "const": {
      "AcquisitionMatrix": [96, 0, 0, 72],
      "AngioFlag": "N",
      "BitsAllocated": 16,
      "BitsStored": 12,
      "BodyPartExamined": "BRAIN",
      "Columns": 864,
      "EchoNumbers": 1,
      "EchoTime": 30.0,
      "EchoTrainLength": 58,
      "FlipAngle": 62.0,
      "HighBit": 11,
      "ImageOrientationPatient": [0.9993923896365, -0.0017305832458, 0.03481173104382, 0.00593059380201, 0.99264558928641, -0.120911381298],
      "ImagePositionPatient": [-874.02107431151, -878.9127836944, 9.5136329758892],
      "ImageType": [
        "ORIGINAL",
        "PRIMARY",
        "M",
        "ND",
        "MOSAIC"
],
      "ImagedNucleus": "1H",
      "ImagingFrequency": 123.259665,
      "InPlanePhaseEncodingDirection": "COL",
      "MRAcquisitionType": "2D",
      "MagneticFieldStrength": 3.0,
      "Manufacturer": "SIEMENS",
      "ManufacturerModelName": "Prisma",
      "Modality": "MR",
      "NumberOfAverages": 1.0,
      "NumberOfPhaseEncodingSteps": 58,
      "PercentPhaseFieldOfView": 100.0,
      "PercentSampling": 75.0,
      "PerformedProcedureStepStartTime": "162359.649000",
      "PhotometricInterpretation": "MONOCHROME2",
      "PixelBandwidth": 2265.0,
      "PixelRepresentation": 0,
      "PixelSpacing": [2.0, 2.0],
      "ProtocolName": "func_language_run2",
      "RepetitionTime": 1500.0,
      "Rows": 864,
      "SAR": 0.04442500227403,
      "SamplesPerPixel": 1,
      "ScanOptions": [
        "PFP",
        "FS"
],
      "ScanningSequence": "EP",
      "SequenceName": "*epfid2d1_72",
      "SequenceVariant": [
        "SK",
        "OSP"
],
      "SeriesDescription": "func_language_run2",
      "SeriesNumber": 13,
      "SeriesTime": "171612.268000",
      "SliceLocation": -66.929884086073,
      "SliceThickness": 2.0,
      "SmallestImagePixelValue": 0,
      "SoftwareVersions": "syngo MR E11",
      "SpacingBetweenSlices": 2.000000085627,
      "SpecificCharacterSet": "ISO_IR 100",
      "StudyID": "3",
      "StudyTime": "162359.596000",
      "TransmitCoilName": "Body",
      "VariableFlipAngleFlag": "N",
      "WindowCenterWidthExplanation": "Algo1",
      "dBdt": 0.0},
    "slices": {}
  },
  "time": {
    "samples": {
      "AcquisitionNumber": [1, 2, 3, 4, 5, 6, 7, 8, 9, 10, 11, 12, 13, 14, 15, 16, 17, 18, 19, 20, 21, 22, 23, 24, 25, 26, 27, 28, 29, 30, 31, 32, 33, 34, 35, 36, 37, 38, 39, 40, 41, 42, 43, 44, 45, 46, 47, 48, 49, 50, 51, 52, 53, 54, 55, 56, 57, 58, 59, 60, 61, 62, 63, 64, 65, 66, 67, 68, 69, 70, 71, 72, 73, 74, 75, 76, 77, 78, 79, 80, 81, 82, 83, 84, 85, 86, 87, 88, 89, 90, 91, 92, 93, 94, 95, 96, 97, 98, 99, 100, 101, 102, 103, 104, 105, 106, 107, 108, 109, 110, 111, 112, 113, 114, 115, 116, 117, 118, 119, 120, 121, 122, 123, 124, 125, 126, 127, 128, 129, 130, 131, 132, 133, 134, 135, 136, 137, 138, 139, 140, 141, 142, 143, 144, 145, 146, 147, 148, 149, 150, 151, 152, 153, 154, 155, 156, 157, 158, 159, 160, 161, 162, 163, 164, 165, 166, 167, 168, 169, 170, 171, 172, 173, 174, 175, 176, 177, 178, 179, 180, 181, 182, 183, 184, 185, 186, 187, 188, 189, 190, 191, 192, 193, 194, 195, 196, 197, 198, 199, 200, 201, 202, 203, 204, 205, 206, 207, 208, 209, 210, 211, 212, 213, 214, 215, 216, 217, 218, 219, 220, 221, 222, 223, 224, 225, 226, 227, 228, 229, 230, 231, 232, 233, 234, 235, 236, 237, 238, 239],
      "AcquisitionTime": ["171534.302500", "171535.802500", "171537.302500", "171538.802500", "171540.302500", "171541.802500", "171543.302500", "171544.802500", "171546.302500", "171547.802500", "171549.302500", "171550.802500", "171552.302500", "171553.802500", "171555.302500", "171556.802500", "171558.302500", "171559.802500", "171601.302500", "171602.802500", "171604.302500", "171605.802500", "171607.302500", "171608.802500", "171610.302500", "171611.802500", "171613.302500", "171614.802500", "171616.302500", "171617.802500", "171619.302500", "171620.802500", "171622.302500", "171623.802500", "171625.302500", "171626.802500", "171628.302500", "171629.802500", "171631.302500", "171632.802500", "171634.302500", "171635.802500", "171637.302500", "171638.802500", "171640.302500", "171641.802500", "171643.302500", "171644.802500", "171646.302500", "171647.802500", "171649.302500", "171650.802500", "171652.302500", "171653.802500", "171655.302500", "171656.802500", "171658.302500", "171659.802500", "171701.302500", "171702.802500", "171704.302500", "171705.802500", "171707.302500", "171708.802500", "171710.302500", "171711.802500", "171713.302500", "171714.802500", "171716.302500", "171717.802500", "171719.302500", "171720.802500", "171722.302500", "171723.802500", "171725.302500", "171726.802500", "171728.302500", "171729.802500", "171731.302500", "171732.802500", "171734.302500", "171735.802500", "171737.302500", "171738.802500", "171740.302500", "171741.802500", "171743.302500", "171744.802500", "171746.302500", "171747.802500", "171749.302500", "171750.802500", "171752.302500", "171753.802500", "171755.302500", "171756.802500", "171758.302500", "171759.802500", "171801.302500", "171802.802500", "171804.302500", "171805.802500", "171807.302500", "171808.802500", "171810.302500", "171811.802500", "171813.302500", "171814.802500", "171816.302500", "171817.802500", "171819.302500", "171820.802500", "171822.302500", "171823.802500", "171825.302500", "171826.802500", "171828.302500", "171829.802500", "171831.302500", "171832.802500", "171834.302500", "171835.802500", "171837.302500", "171838.802500", "171840.302500", "171841.802500", "171843.302500", "171844.802500", "171846.302500", "171847.802500", "171849.302500", "171850.802500", "171852.302500", "171853.802500", "171855.302500", "171856.802500", "171858.302500", "171859.802500", "171901.302500", "171902.802500", "171904.302500", "171905.802500", "171907.302500", "171908.802500", "171910.302500", "171911.802500", "171913.302500", "171914.802500", "171916.302500", "171917.802500", "171919.302500", "171920.802500", "171922.302500", "171923.802500", "171925.302500", "171926.802500", "171928.302500", "171929.802500", "171931.302500", "171932.802500", "171934.302500", "171935.802500", "171937.302500", "171938.802500", "171940.302500", "171941.802500", "171943.302500", "171944.802500", "171946.302500", "171947.802500", "171949.302500", "171950.802500", "171952.302500", "171953.802500", "171955.302500", "171956.802500", "171958.302500", "171959.802500", "172001.302500", "172002.802500", "172004.302500", "172005.802500", "172007.302500", "172008.802500", "172010.302500", "172011.802500", "172013.302500", "172014.802500", "172016.302500", "172017.802500", "172019.302500", "172020.802500", "172022.302500", "172023.802500", "172025.302500", "172026.802500", "172028.302500", "172029.802500", "172031.302500", "172032.802500", "172034.302500", "172035.802500", "172037.302500", "172038.802500", "172040.302500", "172041.802500", "172043.302500", "172044.802500", "172046.302500", "172047.802500", "172049.302500", "172050.802500", "172052.302500", "172053.802500", "172055.302500", "172056.802500", "172058.302500", "172059.802500", "172101.302500", "172102.802500", "172104.302500", "172105.802500", "172107.302500", "172108.802500", "172110.302500", "172111.802500", "172113.302500", "172114.802500", "172116.302500", "172117.802500", "172119.302500", "172120.802500", "172122.302500", "172123.802500", "172125.302500", "172126.802500", "172128.302500", "172129.802500", "172131.302500"],
      "ContentTime": ["171612.272000", "171612.276000", "171612.288000", "171612.293000", "171612.296000", "171612.299000", "171612.302000", "171612.305000", "171612.308000", "171612.311000", "171612.315000", "171612.318000", "171612.321000", "171612.324000", "171612.327000", "171612.330000", "171612.333000", "171612.336000", "171612.339000", "171612.342000", "171612.351000", "171612.354000", "171612.357000", "171612.360000", "171612.363000", "171652.267000", "171652.270000", "171652.273000", "171652.276000", "171652.279000", "171652.282000", "171652.285000", "171652.288000", "171652.291000", "171652.294000", "171652.297000", "171652.300000", "171652.303000", "171652.306000", "171652.310000", "171652.312000", "171652.315000", "171652.318000", "171652.322000", "171652.325000", "171652.327000", "171652.330000", "171652.334000", "171652.342000", "171652.345000", "171652.348000", "171652.351000", "171732.267000", "171732.275000", "171732.278000", "171732.281000", "171732.284000", "171732.287000", "171732.290000", "171732.293000", "171732.296000", "171732.299000", "171732.302000", "171732.305000", "171732.308000", "171732.311000", "171732.314000", "171732.317000", "171732.320000", "171732.323000", "171732.326000", "171732.329000", "171732.332000", "171732.335000", "171732.344000", "171732.347000", "171732.350000", "171732.353000", "171732.356000", "171812.266000", "171812.269000", "171812.272000", "171812.275000", "171812.278000", "171812.281000", "171812.284000", "171812.287000", "171812.290000", "171812.293000", "171812.296000", "171812.299000", "171812.302000", "171812.305000", "171812.309000", "171812.311000", "171812.314000", "171812.317000", "171812.321000", "171812.324000", "171812.327000", "171812.330000", "171812.333000", "171812.336000", "171812.339000", "171812.342000", "171852.267000", "171852.270000", "171852.273000", "171852.276000", "171852.279000", "171852.282000", "171852.285000", "171852.305000", "171852.308000", "171852.311000", "171852.314000", "171852.317000", "171852.320000", "171852.323000", "171852.326000", "171852.329000", "171852.332000", "171852.335000", "171852.338000", "171852.341000", "171852.344000", "171852.348000", "171852.351000", "171852.354000", "171852.357000", "171852.360000", "171852.363000", "171932.267000", "171932.270000", "171932.273000", "171932.276000", "171932.279000", "171932.283000", "171932.286000", "171932.289000", "171932.292000", "171932.295000", "171932.298000", "171932.301000", "171932.304000", "171932.307000", "171932.310000", "171932.313000", "171932.316000", "171932.319000", "171932.322000", "171932.325000", "171932.328000", "171932.331000", "171932.334000", "171932.337000", "171932.340000", "171932.343000", "171932.346000", "172012.266000", "172012.269000", "172012.272000", "172012.275000", "172012.278000", "172012.281000", "172012.285000", "172012.288000", "172012.291000", "172012.294000", "172012.297000", "172012.300000", "172012.303000", "172012.306000", "172012.309000", "172012.312000", "172012.315000", "172012.318000", "172012.321000", "172012.324000", "172012.327000", "172012.330000", "172012.333000", "172012.336000", "172012.339000", "172012.342000", "172052.267000", "172052.270000", "172052.273000", "172052.276000", "172052.279000", "172052.282000", "172052.285000", "172052.288000", "172052.291000", "172052.294000", "172052.298000", "172052.301000", "172052.304000", "172052.307000", "172052.310000", "172052.313000", "172052.316000", "172052.319000", "172052.322000", "172052.325000", "172052.328000", "172052.331000", "172052.334000", "172052.337000", "172052.340000", "172052.343000", "172052.346000", "172132.203000", "172132.207000", "172132.210000", "172132.213000", "172132.216000", "172132.220000", "172132.223000", "172132.226000", "172132.229000", "172132.232000", "172132.236000", "172132.239000", "172132.242000", "172132.246000", "172132.249000", "172132.252000", "172132.255000", "172132.259000", "172132.262000", "172132.265000", "172132.268000", "172132.271000", "172132.274000", "172132.278000", "172132.281000", "172132.284000", "172132.287000"],
      "InstanceCreationTime": ["171612.272000", "171612.276000", "171612.288000", "171612.293000", "171612.296000", "171612.299000", "171612.302000", "171612.305000", "171612.308000", "171612.311000", "171612.315000", "171612.318000", "171612.321000", "171612.324000", "171612.327000", "171612.330000", "171612.333000", "171612.336000", "171612.339000", "171612.342000", "171612.351000", "171612.354000", "171612.357000", "171612.360000", "171612.363000", "171652.267000", "171652.270000", "171652.273000", "171652.276000", "171652.279000", "171652.282000", "171652.285000", "171652.288000", "171652.291000", "171652.294000", "171652.297000", "171652.300000", "171652.303000", "171652.306000", "171652.310000", "171652.312000", "171652.315000", "171652.318000", "171652.322000", "171652.325000", "171652.327000", "171652.330000", "171652.334000", "171652.342000", "171652.345000", "171652.348000", "171652.351000", "171732.267000", "171732.275000", "171732.278000", "171732.281000", "171732.284000", "171732.287000", "171732.290000", "171732.293000", "171732.296000", "171732.299000", "171732.302000", "171732.305000", "171732.308000", "171732.311000", "171732.314000", "171732.317000", "171732.320000", "171732.323000", "171732.326000", "171732.329000", "171732.332000", "171732.335000", "171732.344000", "171732.347000", "171732.350000", "171732.353000", "171732.356000", "171812.266000", "171812.269000", "171812.272000", "171812.275000", "171812.278000", "171812.281000", "171812.284000", "171812.287000", "171812.290000", "171812.293000", "171812.296000", "171812.299000", "171812.302000", "171812.305000", "171812.309000", "171812.311000", "171812.314000", "171812.317000", "171812.321000", "171812.324000", "171812.327000", "171812.330000", "171812.333000", "171812.336000", "171812.339000", "171812.342000", "171852.267000", "171852.270000", "171852.273000", "171852.276000", "171852.279000", "171852.282000", "171852.285000", "171852.305000", "171852.308000", "171852.311000", "171852.314000", "171852.317000", "171852.320000", "171852.323000", "171852.326000", "171852.329000", "171852.332000", "171852.335000", "171852.338000", "171852.341000", "171852.344000", "171852.348000", "171852.351000", "171852.354000", "171852.357000", "171852.360000", "171852.363000", "171932.267000", "171932.270000", "171932.273000", "171932.276000", "171932.279000", "171932.283000", "171932.286000", "171932.289000", "171932.292000", "171932.295000", "171932.298000", "171932.301000", "171932.304000", "171932.307000", "171932.310000", "171932.313000", "171932.316000", "171932.319000", "171932.322000", "171932.325000", "171932.328000", "171932.331000", "171932.334000", "171932.337000", "171932.340000", "171932.343000", "171932.346000", "172012.266000", "172012.269000", "172012.272000", "172012.275000", "172012.278000", "172012.281000", "172012.285000", "172012.288000", "172012.291000", "172012.294000", "172012.297000", "172012.300000", "172012.303000", "172012.306000", "172012.309000", "172012.312000", "172012.315000", "172012.318000", "172012.321000", "172012.324000", "172012.327000", "172012.330000", "172012.333000", "172012.336000", "172012.339000", "172012.342000", "172052.267000", "172052.270000", "172052.273000", "172052.276000", "172052.279000", "172052.282000", "172052.285000", "172052.288000", "172052.291000", "172052.294000", "172052.298000", "172052.301000", "172052.304000", "172052.307000", "172052.310000", "172052.313000", "172052.316000", "172052.319000", "172052.322000", "172052.325000", "172052.328000", "172052.331000", "172052.334000", "172052.337000", "172052.340000", "172052.343000", "172052.346000", "172132.203000", "172132.207000", "172132.210000", "172132.213000", "172132.216000", "172132.220000", "172132.223000", "172132.226000", "172132.229000", "172132.232000", "172132.236000", "172132.239000", "172132.242000", "172132.246000", "172132.249000", "172132.252000", "172132.255000", "172132.259000", "172132.262000", "172132.265000", "172132.268000", "172132.271000", "172132.274000", "172132.278000", "172132.281000", "172132.284000", "172132.287000"],
      "InstanceNumber": [1, 2, 3, 4, 5, 6, 7, 8, 9, 10, 11, 12, 13, 14, 15, 16, 17, 18, 19, 20, 21, 22, 23, 24, 25, 26, 27, 28, 29, 30, 31, 32, 33, 34, 35, 36, 37, 38, 39, 40, 41, 42, 43, 44, 45, 46, 47, 48, 49, 50, 51, 52, 53, 54, 55, 56, 57, 58, 59, 60, 61, 62, 63, 64, 65, 66, 67, 68, 69, 70, 71, 72, 73, 74, 75, 76, 77, 78, 79, 80, 81, 82, 83, 84, 85, 86, 87, 88, 89, 90, 91, 92, 93, 94, 95, 96, 97, 98, 99, 100, 101, 102, 103, 104, 105, 106, 107, 108, 109, 110, 111, 112, 113, 114, 115, 116, 117, 118, 119, 120, 121, 122, 123, 124, 125, 126, 127, 128, 129, 130, 131, 132, 133, 134, 135, 136, 137, 138, 139, 140, 141, 142, 143, 144, 145, 146, 147, 148, 149, 150, 151, 152, 153, 154, 155, 156, 157, 158, 159, 160, 161, 162, 163, 164, 165, 166, 167, 168, 169, 170, 171, 172, 173, 174, 175, 176, 177, 178, 179, 180, 181, 182, 183, 184, 185, 186, 187, 188, 189, 190, 191, 192, 193, 194, 195, 196, 197, 198, 199, 200, 201, 202, 203, 204, 205, 206, 207, 208, 209, 210, 211, 212, 213, 214, 215, 216, 217, 218, 219, 220, 221, 222, 223, 224, 225, 226, 227, 228, 229, 230, 231, 232, 233, 234, 235, 236, 237, 238, 239],
      "LargestImagePixelValue": [3432, 3348, 3376, 3332, 3395, 3353, 3295, 3300, 3296, 3294, 3276, 3296, 3309, 3294, 3289, 3323, 3312, 3305, 3316, 3298, 3303, 3282, 3280, 3299, 3295, 3289, 3301, 3296, 3283, 3303, 3303, 3286, 3304, 3295, 3289, 3287, 3278, 3283, 3272, 3295, 3286, 3280, 3280, 3278, 3273, 3287, 3282, 3285, 3280, 3284, 3287, 3289, 3275, 3267, 3276, 3285, 3290, 3311, 3284, 3272, 3283, 3267, 3285, 3273, 3270, 3275, 3296, 3274, 3283, 3276, 3295, 3267, 3283, 3277, 3288, 3287, 3290, 3292, 3281, 3279, 3272, 3284, 3279, 3275, 3283, 3276, 3273, 3272, 3291, 3271, 3273, 3274, 3296, 3283, 3287, 3283, 3254, 3263, 3279, 3274, 3270, 3274, 3274, 3290, 3268, 3281, 3264, 3291, 3264, 3285, 3271, 3285, 3261, 3282, 3260, 3267, 3261, 3289, 3274, 3285, 3276, 3284, 3286, 3276, 3264, 3263, 3260, 3272, 3275, 3286, 3277, 3270, 3279, 3279, 3288, 3295, 3314, 3278, 3315, 3267, 3272, 3269, 3313, 3259, 3285, 3255, 3296, 3280, 3284, 3267, 3298, 3275, 3274, 3266, 3285, 3289, 3277, 3298, 3282, 3295, 3247, 3291, 3276, 3263, 3273, 3267, 3291, 3277, 3289, 3271, 3272, 3261, 3270, 3282, 3271, 3279, 3281, 3282, 3308, 3308, 3291, 3306, 3286, 3295, 3264, 3303, 3275, 3280, 3298, 3323, 3291, 3327, 3305, 3313, 3293, 3298, 3296, 3337, 3299, 3323, 3292, 3306, 3304, 3321, 3320, 3308, 3329, 3299, 3307, 3299, 3281, 3284, 3310, 3288, 3315, 3319, 3299, 3322, 3308, 3303, 3302, 3324, 3295, 3317, 3326, 3327, 3314, 3334, 3325, 3307, 3302, 3329, 3310, 3305, 3312, 3288, 3322, 3311, 3346],
      "WindowCenter": [809.0, 807.0, 806.0, 807.0, 807.0, 807.0, 804.0, 803.0, 803.0, 803.0, 803.0, 803.0, 803.0, 802.0, 802.0, 803.0, 803.0, 803.0, 803.0, 803.0, 803.0, 803.0, 803.0, 803.0, 803.0, 802.0, 802.0, 803.0, 804.0, 804.0, 804.0, 804.0, 803.0, 803.0, 803.0, 804.0, 804.0, 804.0, 803.0, 803.0, 803.0, 803.0, 803.0, 804.0, 804.0, 804.0, 803.0, 803.0, 803.0, 803.0, 804.0, 804.0, 804.0, 804.0, 804.0, 804.0, 804.0, 803.0, 803.0, 804.0, 805.0, 805.0, 804.0, 804.0, 804.0, 804.0, 804.0, 803.0, 804.0, 804.0, 804.0, 803.0, 803.0, 804.0, 804.0, 803.0, 803.0, 803.0, 804.0, 803.0, 802.0, 802.0, 802.0, 803.0, 804.0, 804.0, 803.0, 802.0, 802.0, 802.0, 803.0, 803.0, 803.0, 803.0, 803.0, 802.0, 802.0, 802.0, 803.0, 803.0, 804.0, 805.0, 805.0, 805.0, 805.0, 804.0, 805.0, 805.0, 806.0, 805.0, 804.0, 804.0, 805.0, 805.0, 805.0, 804.0, 803.0, 803.0, 803.0, 803.0, 804.0, 804.0, 804.0, 803.0, 802.0, 802.0, 803.0, 803.0, 802.0, 802.0, 803.0, 803.0, 803.0, 804.0, 804.0, 804.0, 804.0, 804.0, 805.0, 805.0, 805.0, 804.0, 804.0, 804.0, 803.0, 802.0, 803.0, 803.0, 802.0, 802.0, 803.0, 803.0, 804.0, 804.0, 804.0, 804.0, 804.0, 805.0, 806.0, 805.0, 804.0, 804.0, 804.0, 804.0, 804.0, 803.0, 803.0, 803.0, 803.0, 803.0, 803.0, 803.0, 802.0, 803.0, 804.0, 805.0, 805.0, 804.0, 804.0, 804.0, 805.0, 805.0, 804.0, 805.0, 805.0, 805.0, 804.0, 804.0, 804.0, 804.0, 804.0, 804.0, 804.0, 803.0, 804.0, 804.0, 804.0, 804.0, 804.0, 805.0, 805.0, 805.0, 805.0, 805.0, 804.0, 804.0, 804.0, 804.0, 803.0, 803.0, 803.0, 803.0, 804.0, 803.0, 804.0, 804.0, 804.0, 804.0, 804.0, 805.0, 805.0, 805.0, 804.0, 804.0, 804.0, 803.0, 803.0, 803.0, 803.0, 803.0, 803.0, 804.0, 804.0, 804.0, 805.0, 804.0, 804.0, 804.0, 805.0],
      "WindowWidth": [1838.0, 1829.0, 1828.0, 1829.0, 1829.0, 1830.0, 1821.0, 1817.0, 1818.0, 1818.0, 1818.0, 1818.0, 1815.0, 1812.0, 1814.0, 1816.0, 1817.0, 1816.0, 1816.0, 1817.0, 1817.0, 1815.0, 1815.0, 1816.0, 1815.0, 1813.0, 1813.0, 1817.0, 1819.0, 1821.0, 1819.0, 1820.0, 1818.0, 1818.0, 1818.0, 1819.0, 1818.0, 1819.0, 1818.0, 1818.0, 1817.0, 1817.0, 1817.0, 1820.0, 1820.0, 1818.0, 1816.0, 1817.0, 1818.0, 1818.0, 1819.0, 1819.0, 1819.0, 1820.0, 1821.0, 1821.0, 1819.0, 1816.0, 1816.0, 1821.0, 1823.0, 1822.0, 1820.0, 1819.0, 1820.0, 1821.0, 1819.0, 1818.0, 1819.0, 1819.0, 1818.0, 1815.0, 1818.0, 1819.0, 1819.0, 1816.0, 1816.0, 1818.0, 1818.0, 1815.0, 1812.0, 1812.0, 1813.0, 1817.0, 1820.0, 1818.0, 1815.0, 1812.0, 1813.0, 1814.0, 1816.0, 1815.0, 1815.0, 1815.0, 1815.0, 1814.0, 1814.0, 1814.0, 1817.0, 1818.0, 1821.0, 1825.0, 1825.0, 1823.0, 1821.0, 1821.0, 1822.0, 1825.0, 1826.0, 1823.0, 1820.0, 1821.0, 1824.0, 1825.0, 1822.0, 1818.0, 1817.0, 1817.0, 1817.0, 1818.0, 1818.0, 1819.0, 1819.0, 1815.0, 1814.0, 1814.0, 1816.0, 1816.0, 1814.0, 1814.0, 1815.0, 1816.0, 1817.0, 1819.0, 1821.0, 1821.0, 1821.0, 1821.0, 1823.0, 1823.0, 1823.0, 1820.0, 1820.0, 1818.0, 1816.0, 1813.0, 1815.0, 1815.0, 1814.0, 1814.0, 1817.0, 1817.0, 1819.0, 1819.0, 1819.0, 1819.0, 1822.0, 1825.0, 1825.0, 1824.0, 1820.0, 1821.0, 1822.0, 1821.0, 1820.0, 1817.0, 1816.0, 1816.0, 1815.0, 1816.0, 1818.0, 1816.0, 1814.0, 1817.0, 1821.0, 1823.0, 1822.0, 1821.0, 1820.0, 1821.0, 1821.0, 1822.0, 1821.0, 1823.0, 1822.0, 1823.0, 1821.0, 1820.0, 1819.0, 1820.0, 1818.0, 1820.0, 1818.0, 1818.0, 1819.0, 1820.0, 1820.0, 1821.0, 1821.0, 1825.0, 1824.0, 1823.0, 1821.0, 1822.0, 1820.0, 1820.0, 1821.0, 1821.0, 1817.0, 1817.0, 1816.0, 1817.0, 1818.0, 1818.0, 1819.0, 1819.0, 1819.0, 1819.0, 1821.0, 1823.0, 1822.0, 1821.0, 1818.0, 1819.0, 1819.0, 1817.0, 1816.0, 1817.0, 1817.0, 1817.0, 1817.0, 1819.0, 1821.0, 1820.0, 1822.0, 1818.0, 1820.0, 1820.0, 1824.0]
    },
    "slices": {}
  }
}