{
  "AcquisitionMatrixPE": 72,
  "AcquisitionNumber": 1,
  "AcquisitionTime": "09:42:30.130000",
  "BandwidthPerPixelPhaseEncode": 17.943,
  "BaseResolution": 96,
  "BodyPartExamined": "BRAIN",
  "CoilCombinationMethod": "Sum of Squares",
  "ConsistencyInfo": "N4_VE11C_LATEST_20160120",
  "ConversionSoftware": "dcm2niix",
  "ConversionSoftwareVersion": "v1.0.20211006",
  "DerivedVendorReportedEchoSpacing": 0.000552897,
  "DeviceSerialNumber": "166011",
  "EchoTime": 0.03,
  "EchoTrainLength": 58,
  "EffectiveEchoSpacing": 0.000580542,
  "FlipAngle": 62,
  "ImageOrientationPatientDICOM": [0.99992, 0.00232525, -0.0124396, -0.0040139, 0.990494, -0.137499],
  "ImageType": [
    "ORIGINAL",
    "PRIMARY",
    "M",
    "ND",
    "MOSAIC"
],
  "ImagingFrequency": 123.26,
  "InPlanePhaseEncodingDirectionDICOM": "COL",
  "InstitutionAddress": "West 130th Street 610,NY,NYC,US,10025",
  "InstitutionName": "MBBI",
  "MRAcquisitionType": "2D",
  "MagneticFieldStrength": 3,
  "Manufacturer": "Siemens",
  "ManufacturersModelName": "Prisma",
  "Modality": "MR",
  "MultibandAccelerationFactor": 3,
  "PartialFourier": 0.75,
  "PatientPosition": "HFS",
  "PercentPhaseFOV": 100,
  "PercentSampling": 75,
  "PhaseEncodingDirection": "j-",
  "PhaseEncodingSteps": 58,
  "PhaseOversampling": 0.05,
  "PhaseResolution": 0.75,
  "PixelBandwidth": 2265,
  "ProcedureStepDescription": "White^Word_recognition",
  "ProtocolName": "func_vwfate_run12",
  "PulseSequenceDetails": "%SiemensSeq%\\ep2d_bold",
  "ReceiveCoilActiveElements": "HC1-7",
  "ReceiveCoilName": "HeadNeck_64",
  "ReconMatrixPE": 96,
  "RefLinesPE": 40,
  "RepetitionTime": 1.5,
  "SAR": 0.0458272,
  "ScanOptions": "PFP\\FS",
  "ScanningSequence": "EP",
  "SequenceName": "*epfid2d1_72",
  "SequenceVariant": "SK\\OSP",
  "SeriesDescription": "func_vwfate_run12",
  "SeriesNumber": 15,
  "ShimSetting": [-1153, -1335, 612, 489, -113, -78, -36, 10],
  "SliceThickness": 2,
  "SliceTiming": [1.0775, 0, 0.74, 0.0675, 0.8075, 0.135, 0.875, 0.2025, 0.9425, 0.27, 1.01, 0.405, 1.145, 0.4725, 1.2125, 0.54, 1.28, 0.605, 1.345, 0.6725, 1.4125, 0.3375, 1.0775, 0, 0.74, 0.0675, 0.8075, 0.135, 0.875, 0.2025, 0.9425, 0.27, 1.01, 0.405, 1.145, 0.4725, 1.2125, 0.54, 1.28, 0.605, 1.345, 0.6725, 1.4125, 0.3375, 1.0775, 0, 0.74, 0.0675, 0.8075, 0.135, 0.875, 0.2025, 0.9425, 0.27, 1.01, 0.405, 1.145, 0.4725, 1.2125, 0.54, 1.28, 0.605, 1.345, 0.6725, 1.4125, 0.3375],
  "SoftwareVersions": "syngo MR E11",
  "SpacingBetweenSlices": 2,
  "StationName": "AWP166011",
  "TaskName": "vwfate",
  "TotalReadoutTime": 0.0551515,
  "TxRefAmp": 224.95,
  "dcmmeta_affine": [
    [-1.9998399019241333, -0.00802780594676733, -0.02400326542556286, 100.49341583251953],
    [-0.004650508053600788, 1.980987548828125, -0.2750755548477173, -61.546669006347656],
    [-0.0248792115598917, 0.274997740983963, 1.9808475971221924, -79.56437683105469],
    [0.0, 0.0, 0.0, 1.0]
],
  "dcmmeta_reorient_transform": [
    [0.0, -1.0, 0.0, 95.0],
    [1.0, 0.0, 0.0, 0.0],
    [0.0, 0.0, 1.0, 0.0],
    [0.0, 0.0, 0.0, 1.0]
],
  "dcmmeta_shape": [96, 96, 66, 164],
  "dcmmeta_slice_dim": 2,
  "dcmmeta_version": 0.6,
  "global": {
    "const": {
      "AcquisitionMatrix": [96, 0, 0, 72],
      "AngioFlag": "N",
      "BitsAllocated": 16,
      "BitsStored": 12,
      "BodyPartExamined": "BRAIN",
      "Columns": 864,
      "EchoNumbers": 1,
      "EchoTime": 30.0,
      "EchoTrainLength": 58,
      "FlipAngle": 62.0,
      "HighBit": 11,
      "ImageOrientationPatient": [0.99991992149116, 0.00232525409452, -0.0124396060428, -0.00401390286, 0.99049379161898, -0.1374988630792],
      "ImagePositionPatient": [-864.58659322251, -889.13217664515, 61.713150492834],
      "ImageType": [
        "ORIGINAL",
        "PRIMARY",
        "M",
        "ND",
        "MOSAIC"
],
      "ImagedNucleus": "1H",
      "ImagingFrequency": 123.259652,
      "InPlanePhaseEncodingDirection": "COL",
      "MRAcquisitionType": "2D",
      "MagneticFieldStrength": 3.0,
      "Manufacturer": "SIEMENS",
      "ManufacturerModelName": "Prisma",
      "Modality": "MR",
      "NumberOfAverages": 1.0,
      "NumberOfPhaseEncodingSteps": 58,
      "PercentPhaseFieldOfView": 100.0,
      "PercentSampling": 75.0,
      "PerformedProcedureStepStartTime": "083259.649000",
      "PhotometricInterpretation": "MONOCHROME2",
      "PixelBandwidth": 2265.0,
      "PixelRepresentation": 0,
      "PixelSpacing": [2.0, 2.0],
      "ProtocolName": "func_vwfate_run12",
      "RepetitionTime": 1500.0,
      "Rows": 864,
      "SAR": 0.04582719899835,
      "SamplesPerPixel": 1,
      "ScanOptions": [
        "PFP",
        "FS"
],
      "ScanningSequence": "EP",
      "SequenceName": "*epfid2d1_72",
      "SequenceVariant": [
        "SK",
        "OSP"
],
      "SeriesDescription": "func_vwfate_run12",
      "SeriesNumber": 15,
      "SeriesTime": "094313.299000",
      "SliceLocation": -71.543546318692,
      "SliceThickness": 2.0,
      "SmallestImagePixelValue": 0,
      "SoftwareVersions": "syngo MR E11",
      "SpacingBetweenSlices": 1.9999999626014,
      "SpecificCharacterSet": "ISO_IR 100",
      "StudyID": "2",
      "StudyTime": "083259.556000",
      "TransmitCoilName": "Body",
      "VariableFlipAngleFlag": "N",
      "WindowCenterWidthExplanation": "Algo1",
      "dBdt": 0.0},
    "slices": {}
  },
  "time": {
    "samples": {
      "AcquisitionNumber": [1, 2, 3, 4, 5, 6, 7, 8, 9, 10, 11, 12, 13, 14, 15, 16, 17, 18, 19, 20, 21, 22, 23, 24, 25, 26, 27, 28, 29, 30, 31, 32, 33, 34, 35, 36, 37, 38, 39, 40, 41, 42, 43, 44, 45, 46, 47, 48, 49, 50, 51, 52, 53, 54, 55, 56, 57, 58, 59, 60, 61, 62, 63, 64, 65, 66, 67, 68, 69, 70, 71, 72, 73, 74, 75, 76, 77, 78, 79, 80, 81, 82, 83, 84, 85, 86, 87, 88, 89, 90, 91, 92, 93, 94, 95, 96, 97, 98, 99, 100, 101, 102, 103, 104, 105, 106, 107, 108, 109, 110, 111, 112, 113, 114, 115, 116, 117, 118, 119, 120, 121, 122, 123, 124, 125, 126, 127, 128, 129, 130, 131, 132, 133, 134, 135, 136, 137, 138, 139, 140, 141, 142, 143, 144, 145, 146, 147, 148, 149, 150, 151, 152, 153, 154, 155, 156, 157, 158, 159, 160, 161, 162, 163, 164],
      "AcquisitionTime": ["094230.130000", "094231.630000", "094233.130000", "094234.630000", "094236.130000", "094237.630000", "094239.130000", "094240.630000", "094242.130000", "094243.630000", "094245.130000", "094246.630000", "094248.130000", "094249.630000", "094251.130000", "094252.630000", "094254.130000", "094255.630000", "094257.130000", "094258.630000", "094300.130000", "094301.630000", "094303.130000", "094304.630000", "094306.130000", "094307.630000", "094309.130000", "094310.630000", "094312.130000", "094313.630000", "094315.130000", "094316.630000", "094318.130000", "094319.630000", "094321.130000", "094322.630000", "094324.130000", "094325.630000", "094327.130000", "094328.630000", "094330.130000", "094331.630000", "094333.130000", "094334.630000", "094336.130000", "094337.630000", "094339.130000", "094340.630000", "094342.130000", "094343.630000", "094345.130000", "094346.630000", "094348.130000", "094349.630000", "094351.130000", "094352.630000", "094354.130000", "094355.630000", "094357.130000", "094358.630000", "094400.130000", "094401.630000", "094403.130000", "094404.630000", "094406.130000", "094407.630000", "094409.130000", "094410.630000", "094412.130000", "094413.630000", "094415.130000", "094416.630000", "094418.130000", "094419.630000", "094421.130000", "094422.630000", "094424.130000", "094425.630000", "094427.130000", "094428.630000", "094430.130000", "094431.630000", "094433.130000", "094434.630000", "094436.130000", "094437.630000", "094439.130000", "094440.630000", "094442.130000", "094443.630000", "094445.130000", "094446.630000", "094448.130000", "094449.630000", "094451.130000", "094452.630000", "094454.130000", "094455.630000", "094457.130000", "094458.630000", "094500.130000", "094501.630000", "094503.130000", "094504.630000", "094506.130000", "094507.630000", "094509.130000", "094510.630000", "094512.130000", "094513.630000", "094515.130000", "094516.630000", "094518.130000", "094519.630000", "094521.130000", "094522.630000", "094524.130000", "094525.630000", "094527.130000", "094528.630000", "094530.130000", "094531.630000", "094533.130000", "094534.630000", "094536.130000", "094537.630000", "094539.130000", "094540.630000", "094542.130000", "094543.630000", "094545.130000", "094546.630000", "094548.130000", "094549.630000", "094551.130000", "094552.630000", "094554.130000", "094555.630000", "094557.130000", "094558.630000", "094600.130000", "094601.630000", "094603.130000", "094604.630000", "094606.130000", "094607.630000", "094609.130000", "094610.630000", "094612.130000", "094613.630000", "094615.130000", "094616.630000", "094618.130000", "094619.630000", "094621.130000", "094622.630000", "094624.130000", "094625.630000", "094627.130000", "094628.630000", "094630.130000", "094631.630000", "094633.130000", "094634.630000"],
      "ContentTime": ["094313.303000", "094313.307000", "094313.310000", "094313.313000", "094313.316000", "094313.319000", "094313.322000", "094313.325000", "094313.328000", "094313.331000", "094313.334000", "094313.337000", "094313.341000", "094313.343000", "094313.346000", "094313.357000", "094313.360000", "094313.368000", "094313.372000", "094313.374000", "094313.377000", "094313.380000", "094313.384000", "094313.392000", "094313.395000", "094313.398000", "094313.401000", "094313.404000", "094353.298000", "094353.301000", "094353.304000", "094353.307000", "094353.310000", "094353.313000", "094353.316000", "094353.319000", "094353.322000", "094353.325000", "094353.331000", "094353.334000", "094353.337000", "094353.340000", "094353.343000", "094353.346000", "094353.349000", "094353.352000", "094353.355000", "094353.358000", "094353.361000", "094353.364000", "094353.367000", "094353.371000", "094353.373000", "094353.376000", "094353.379000", "094433.298000", "094433.301000", "094433.304000", "094433.307000", "094433.310000", "094433.313000", "094433.316000", "094433.319000", "094433.322000", "094433.325000", "094433.328000", "094433.331000", "094433.334000", "094433.337000", "094433.340000", "094433.343000", "094433.346000", "094433.349000", "094433.352000", "094433.360000", "094433.363000", "094433.366000", "094433.369000", "094433.372000", "094433.375000", "094433.378000", "094433.381000", "094513.298000", "094513.301000", "094513.304000", "094513.307000", "094513.310000", "094513.313000", "094513.316000", "094513.319000", "094513.322000", "094513.325000", "094513.328000", "094513.331000", "094513.334000", "094513.337000", "094513.340000", "094513.343000", "094513.346000", "094513.349000", "094513.352000", "094513.356000", "094513.358000", "094513.361000", "094513.364000", "094513.367000", "094513.370000", "094513.373000", "094553.297000", "094553.300000", "094553.303000", "094553.319000", "094553.322000", "094553.325000", "094553.328000", "094553.331000", "094553.334000", "094553.337000", "094553.340000", "094553.343000", "094553.346000", "094553.349000", "094553.352000", "094553.355000", "094553.358000", "094553.361000", "094553.364000", "094553.368000", "094553.370000", "094553.373000", "094553.376000", "094553.380000", "094553.382000", "094553.385000", "094553.388000", "094633.298000", "094633.301000", "094633.304000", "094633.307000", "094633.310000", "094633.313000", "094633.316000", "094633.319000", "094633.322000", "094633.325000", "094633.328000", "094633.331000", "094633.334000", "094633.337000", "094633.341000", "094633.344000", "094633.347000", "094633.349000", "094633.353000", "094633.355000", "094633.358000", "094633.361000", "094633.365000", "094633.368000", "094633.370000", "094633.373000", "094633.377000", "094635.897000", "094635.900000"],
      "InstanceCreationTime": ["094313.303000", "094313.307000", "094313.310000", "094313.313000", "094313.316000", "094313.319000", "094313.322000", "094313.325000", "094313.328000", "094313.331000", "094313.334000", "094313.337000", "094313.341000", "094313.343000", "094313.346000", "094313.357000", "094313.360000", "094313.368000", "094313.372000", "094313.374000", "094313.377000", "094313.380000", "094313.384000", "094313.392000", "094313.395000", "094313.398000", "094313.401000", "094313.404000", "094353.298000", "094353.301000", "094353.304000", "094353.307000", "094353.310000", "094353.313000", "094353.316000", "094353.319000", "094353.322000", "094353.325000", "094353.331000", "094353.334000", "094353.337000", "094353.340000", "094353.343000", "094353.346000", "094353.349000", "094353.352000", "094353.355000", "094353.358000", "094353.361000", "094353.364000", "094353.367000", "094353.371000", "094353.373000", "094353.376000", "094353.379000", "094433.298000", "094433.301000", "094433.304000", "094433.307000", "094433.310000", "094433.313000", "094433.316000", "094433.319000", "094433.322000", "094433.325000", "094433.328000", "094433.331000", "094433.334000", "094433.337000", "094433.340000", "094433.343000", "094433.346000", "094433.349000", "094433.352000", "094433.360000", "094433.363000", "094433.366000", "094433.369000", "094433.372000", "094433.375000", "094433.378000", "094433.381000", "094513.298000", "094513.301000", "094513.304000", "094513.307000", "094513.310000", "094513.313000", "094513.316000", "094513.319000", "094513.322000", "094513.325000", "094513.328000", "094513.331000", "094513.334000", "094513.337000", "094513.340000", "094513.343000", "094513.346000", "094513.349000", "094513.352000", "094513.356000", "094513.358000", "094513.361000", "094513.364000", "094513.367000", "094513.370000", "094513.373000", "094553.297000", "094553.300000", "094553.303000", "094553.319000", "094553.322000", "094553.325000", "094553.328000", "094553.331000", "094553.334000", "094553.337000", "094553.340000", "094553.343000", "094553.346000", "094553.349000", "094553.352000", "094553.355000", "094553.358000", "094553.361000", "094553.364000", "094553.368000", "094553.370000", "094553.373000", "094553.376000", "094553.380000", "094553.382000", "094553.385000", "094553.388000", "094633.298000", "094633.301000", "094633.304000", "094633.307000", "094633.310000", "094633.313000", "094633.316000", "094633.319000", "094633.322000", "094633.325000", "094633.328000", "094633.331000", "094633.334000", "094633.337000", "094633.341000", "094633.344000", "094633.347000", "094633.349000", "094633.353000", "094633.355000", "094633.358000", "094633.361000", "094633.365000", "094633.368000", "094633.370000", "094633.373000", "094633.377000", "094635.897000", "094635.900000"],
      "InstanceNumber": [1, 2, 3, 4, 5, 6, 7, 8, 9, 10, 11, 12, 13, 14, 15, 16, 17, 18, 19, 20, 21, 22, 23, 24, 25, 26, 27, 28, 29, 30, 31, 32, 33, 34, 35, 36, 37, 38, 39, 40, 41, 42, 43, 44, 45, 46, 47, 48, 49, 50, 51, 52, 53, 54, 55, 56, 57, 58, 59, 60, 61, 62, 63, 64, 65, 66, 67, 68, 69, 70, 71, 72, 73, 74, 75, 76, 77, 78, 79, 80, 81, 82, 83, 84, 85, 86, 87, 88, 89, 90, 91, 92, 93, 94, 95, 96, 97, 98, 99, 100, 101, 102, 103, 104, 105, 106, 107, 108, 109, 110, 111, 112, 113, 114, 115, 116, 117, 118, 119, 120, 121, 122, 123, 124, 125, 126, 127, 128, 129, 130, 131, 132, 133, 134, 135, 136, 137, 138, 139, 140, 141, 142, 143, 144, 145, 146, 147, 148, 149, 150, 151, 152, 153, 154, 155, 156, 157, 158, 159, 160, 161, 162, 163, 164],
      "LargestImagePixelValue": [3442, 3367, 3341, 3355, 3254, 3401, 3395, 3385, 3349, 3346, 3366, 3370, 3371, 3388, 3360, 3383, 3391, 3371, 3365, 3336, 3367, 3360, 3364, 3397, 3400, 3416, 3398, 3363, 3360, 3347, 3348, 3343, 3345, 3356, 3341, 3380, 3355, 3360, 3395, 3368, 3360, 3351, 3336, 3386, 3402, 3400, 3438, 3398, 3377, 3372, 3344, 3357, 3345, 3340, 3369, 3362, 3362, 3369, 3332, 3362, 3338, 3344, 3339, 3351, 3372, 3365, 3341, 3358, 3352, 3396, 3375, 3362, 3352, 3349, 3347, 3382, 3362, 3339, 3371, 3392, 3371, 3376, 3460, 3427, 3424, 3419, 3437, 3443, 3439, 3393, 3413, 3424, 3437, 3406, 3428, 3416, 3430, 3412, 3430, 3444, 3433, 3416, 3418, 3403, 3432, 3423, 3426, 3406, 3414, 3437, 3393, 3379, 3365, 3393, 3395, 3395, 3396, 3354, 3395, 3416, 3461, 3384, 3424, 3381, 3401, 3414, 3404, 3378, 3385, 3371, 3368, 3362, 3389, 3398, 3402, 3365, 3377, 3360, 3384, 3364, 3336, 3351, 3402, 3360, 3379, 3392, 3393, 3408, 3367, 3359, 3375, 3344, 3369, 3377, 3366, 3364, 3375, 3413, 3393, 3388, 3363, 3360, 3363, 3387],
      "WindowCenter": [807.0, 803.0, 801.0, 802.0, 803.0, 807.0, 806.0, 805.0, 802.0, 801.0, 801.0, 802.0, 803.0, 803.0, 803.0, 804.0, 805.0, 805.0, 804.0, 803.0, 804.0, 805.0, 806.0, 807.0, 807.0, 807.0, 807.0, 807.0, 805.0, 804.0, 803.0, 803.0, 802.0, 801.0, 801.0, 802.0, 803.0, 803.0, 802.0, 802.0, 802.0, 802.0, 802.0, 802.0, 802.0, 802.0, 804.0, 805.0, 807.0, 806.0, 804.0, 803.0, 802.0, 801.0, 801.0, 801.0, 801.0, 801.0, 802.0, 802.0, 803.0, 803.0, 803.0, 803.0, 802.0, 802.0, 802.0, 802.0, 802.0, 803.0, 803.0, 803.0, 804.0, 804.0, 804.0, 804.0, 804.0, 804.0, 804.0, 804.0, 805.0, 806.0, 807.0, 807.0, 807.0, 806.0, 804.0, 802.0, 802.0, 801.0, 801.0, 801.0, 800.0, 800.0, 801.0, 803.0, 805.0, 805.0, 805.0, 805.0, 805.0, 804.0, 802.0, 801.0, 802.0, 803.0, 804.0, 803.0, 801.0, 800.0, 800.0, 800.0, 800.0, 800.0, 800.0, 800.0, 800.0, 801.0, 802.0, 801.0, 801.0, 801.0, 803.0, 804.0, 805.0, 805.0, 805.0, 804.0, 803.0, 802.0, 803.0, 803.0, 804.0, 806.0, 807.0, 805.0, 803.0, 802.0, 803.0, 803.0, 802.0, 802.0, 802.0, 803.0, 804.0, 805.0, 806.0, 805.0, 803.0, 801.0, 800.0, 800.0, 800.0, 800.0, 801.0, 802.0, 802.0, 803.0, 804.0, 805.0, 803.0, 801.0, 800.0, 800.0],
      "WindowWidth": [1780.0, 1769.0, 1763.0, 1765.0, 1769.0, 1780.0, 1777.0, 1773.0, 1766.0, 1763.0, 1763.0, 1766.0, 1768.0, 1770.0, 1769.0, 1772.0, 1773.0, 1774.0, 1772.0, 1770.0, 1771.0, 1774.0, 1777.0, 1779.0, 1780.0, 1782.0, 1782.0, 1780.0, 1774.0, 1771.0, 1768.0, 1768.0, 1766.0, 1765.0, 1764.0, 1767.0, 1768.0, 1768.0, 1767.0, 1766.0, 1766.0, 1767.0, 1767.0, 1767.0, 1767.0, 1768.0, 1773.0, 1775.0, 1780.0, 1778.0, 1772.0, 1769.0, 1766.0, 1763.0, 1763.0, 1763.0, 1765.0, 1765.0, 1765.0, 1766.0, 1768.0, 1768.0, 1767.0, 1768.0, 1767.0, 1767.0, 1765.0, 1767.0, 1766.0, 1768.0, 1768.0, 1770.0, 1771.0, 1771.0, 1770.0, 1771.0, 1772.0, 1771.0, 1770.0, 1772.0, 1774.0, 1777.0, 1782.0, 1782.0, 1782.0, 1777.0, 1772.0, 1767.0, 1766.0, 1765.0, 1765.0, 1764.0, 1762.0, 1761.0, 1766.0, 1770.0, 1775.0, 1776.0, 1776.0, 1776.0, 1775.0, 1772.0, 1767.0, 1764.0, 1767.0, 1771.0, 1772.0, 1769.0, 1764.0, 1762.0, 1761.0, 1761.0, 1761.0, 1761.0, 1761.0, 1761.0, 1762.0, 1763.0, 1765.0, 1764.0, 1765.0, 1766.0, 1771.0, 1773.0, 1776.0, 1775.0, 1775.0, 1772.0, 1769.0, 1767.0, 1767.0, 1769.0, 1772.0, 1778.0, 1779.0, 1772.0, 1768.0, 1766.0, 1768.0, 1768.0, 1765.0, 1764.0, 1767.0, 1770.0, 1772.0, 1775.0, 1778.0, 1775.0, 1769.0, 1763.0, 1760.0, 1761.0, 1760.0, 1762.0, 1763.0, 1766.0, 1767.0, 1770.0, 1772.0, 1773.0, 1769.0, 1763.0, 1760.0, 1761.0]
    },
    "slices": {}
  }
}