{
  "AcquisitionMatrixPE": 72,
  "AcquisitionNumber": 1,
  "AcquisitionTime": "16:29:19.225000",
  "BandwidthPerPixelPhaseEncode": 17.943,
  "BaseResolution": 96,
  "BodyPartExamined": "BRAIN",
  "CoilCombinationMethod": "Sum of Squares",
  "ConsistencyInfo": "N4_VE11C_LATEST_20160120",
  "ConversionSoftware": "dcm2niix",
  "ConversionSoftwareVersion": "v1.0.20211006",
  "DerivedVendorReportedEchoSpacing": 0.000552897,
  "DeviceSerialNumber": "166011",
  "EchoTime": 0.03,
  "EchoTrainLength": 58,
  "EffectiveEchoSpacing": 0.000580542,
  "FlipAngle": 62,
  "ImageOrientationPatientDICOM": [0.998092, -0.0532997, 0.0311761, 0.0570252, 0.989298, -0.134308],
  "ImageType": [
    "ORIGINAL",
    "PRIMARY",
    "M",
    "ND",
    "MOSAIC"
],
  "ImagingFrequency": 123.259,
  "InPlanePhaseEncodingDirectionDICOM": "COL",
  "InstitutionAddress": "West 130th Street 610,NY,NYC,US,10025",
  "InstitutionName": "MBBI",
  "MRAcquisitionType": "2D",
  "MagneticFieldStrength": 3,
  "Manufacturer": "Siemens",
  "ManufacturersModelName": "Prisma",
  "Modality": "MR",
  "MultibandAccelerationFactor": 3,
  "PartialFourier": 0.75,
  "PatientPosition": "HFS",
  "PercentPhaseFOV": 100,
  "PercentSampling": 75,
  "PhaseEncodingDirection": "j-",
  "PhaseEncodingSteps": 58,
  "PhaseOversampling": 0.05,
  "PhaseResolution": 0.75,
  "PixelBandwidth": 2265,
  "ProcedureStepDescription": "White^Word_recognition",
  "ProtocolName": "func_vwfate_run1",
  "PulseSequenceDetails": "%SiemensSeq%\\ep2d_bold",
  "ReceiveCoilActiveElements": "HC1-6",
  "ReceiveCoilName": "HeadNeck_64",
  "ReconMatrixPE": 96,
  "RefLinesPE": 40,
  "RepetitionTime": 1.5,
  "SAR": 0.0456833,
  "ScanOptions": "PFP\\FS",
  "ScanningSequence": "EP",
  "SequenceName": "*epfid2d1_72",
  "SequenceVariant": "SK\\OSP",
  "SeriesDescription": "func_vwfate_run1",
  "SeriesNumber": 8,
  "ShimSetting": [-1140, -1336, 650, 475, -104, -47, -106, 7],
  "SliceThickness": 2,
  "SliceTiming": [1.075, 0, 0.74, 0.0675, 0.8075, 0.135, 0.875, 0.2, 0.94, 0.2675, 1.0075, 0.4025, 1.1425, 0.47, 1.21, 0.5375, 1.2775, 0.605, 1.345, 0.6725, 1.4125, 0.335, 1.075, 0, 0.74, 0.0675, 0.8075, 0.135, 0.875, 0.2, 0.94, 0.2675, 1.0075, 0.4025, 1.1425, 0.47, 1.21, 0.5375, 1.2775, 0.605, 1.345, 0.6725, 1.4125, 0.335, 1.075, 0, 0.74, 0.0675, 0.8075, 0.135, 0.875, 0.2, 0.94, 0.2675, 1.0075, 0.4025, 1.1425, 0.47, 1.21, 0.5375, 1.2775, 0.605, 1.345, 0.6725, 1.4125, 0.335],
  "SoftwareVersions": "syngo MR E11",
  "SpacingBetweenSlices": 2,
  "StationName": "AWP166011",
  "TaskName": "vwfate",
  "TotalReadoutTime": 0.0551515,
  "TxRefAmp": 218.536,
  "dcmmeta_affine": [
    [-1.9961835145950317, 0.11405044049024582, 0.04736785963177681, 93.61332702636719],
    [0.10659930109977722, 1.9785950183868408, -0.27165839076042175, -73.04097747802734],
    [0.06235228478908539, 0.2686153054237366, 1.980898380279541, -63.929039001464844],
    [0.0, 0.0, 0.0, 1.0]
],
  "dcmmeta_reorient_transform": [
    [0.0, -1.0, 0.0, 95.0],
    [1.0, 0.0, 0.0, 0.0],
    [0.0, 0.0, 1.0, 0.0],
    [0.0, 0.0, 0.0, 1.0]
],
  "dcmmeta_shape": [96, 96, 66, 164],
  "dcmmeta_slice_dim": 2,
  "dcmmeta_version": 0.6,
  "global": {
    "const": {
      "AcquisitionMatrix": [96, 0, 0, 72],
      "AngioFlag": "N",
      "BitsAllocated": 16,
      "BitsStored": 12,
      "BodyPartExamined": "BRAIN",
      "Columns": 864,
      "EchoNumbers": 1,
      "EchoTime": 30.0,
      "EchoTrainLength": 58,
      "FlipAngle": 62.0,
      "HighBit": 11,
      "ImageOrientationPatient": [0.99809177712727, -0.0532996489963, 0.0311761422854, 0.0570252216503, 0.98929751837035, -0.134307647742],
      "ImagePositionPatient": [-914.77797232933, -833.77191469342, 40.794410082194],
      "ImageType": [
        "ORIGINAL",
        "PRIMARY",
        "M",
        "ND",
        "MOSAIC"
],
      "ImagedNucleus": "1H",
      "ImagingFrequency": 123.259422,
      "InPlanePhaseEncodingDirection": "COL",
      "MRAcquisitionType": "2D",
      "MagneticFieldStrength": 3.0,
      "Manufacturer": "SIEMENS",
      "ManufacturerModelName": "Prisma",
      "Modality": "MR",
      "NumberOfAverages": 1.0,
      "NumberOfPhaseEncodingSteps": 58,
      "PercentPhaseFieldOfView": 100.0,
      "PercentSampling": 75.0,
      "PerformedProcedureStepStartTime": "160119.314000",
      "PhotometricInterpretation": "MONOCHROME2",
      "PixelBandwidth": 2265.0,
      "PixelRepresentation": 0,
      "PixelSpacing": [2.0, 2.0],
      "ProtocolName": "func_vwfate_run1",
      "RepetitionTime": 1500.0,
      "Rows": 864,
      "SAR": 0.0456833191317,
      "SamplesPerPixel": 1,
      "ScanOptions": [
        "PFP",
        "FS"
],
      "ScanningSequence": "EP",
      "SequenceName": "*epfid2d1_72",
      "SequenceVariant": [
        "SK",
        "OSP"
],
      "SeriesDescription": "func_vwfate_run1",
      "SeriesNumber": 8,
      "SeriesTime": "162953.299000",
      "SliceLocation": -51.18023416421,
      "SliceThickness": 2.0,
      "SmallestImagePixelValue": 0,
      "SoftwareVersions": "syngo MR E11",
      "SpacingBetweenSlices": 2.0000000587331,
      "SpecificCharacterSet": "ISO_IR 100",
      "StudyID": "1",
      "StudyTime": "160119.243000",
      "TransmitCoilName": "Body",
      "VariableFlipAngleFlag": "N",
      "WindowCenterWidthExplanation": "Algo1",
      "dBdt": 0.0},
    "slices": {}
  },
  "time": {
    "samples": {
      "AcquisitionNumber": [1, 2, 3, 4, 5, 6, 7, 8, 9, 10, 11, 12, 13, 14, 15, 16, 17, 18, 19, 20, 21, 22, 23, 24, 25, 26, 27, 28, 29, 30, 31, 32, 33, 34, 35, 36, 37, 38, 39, 40, 41, 42, 43, 44, 45, 46, 47, 48, 49, 50, 51, 52, 53, 54, 55, 56, 57, 58, 59, 60, 61, 62, 63, 64, 65, 66, 67, 68, 69, 70, 71, 72, 73, 74, 75, 76, 77, 78, 79, 80, 81, 82, 83, 84, 85, 86, 87, 88, 89, 90, 91, 92, 93, 94, 95, 96, 97, 98, 99, 100, 101, 102, 103, 104, 105, 106, 107, 108, 109, 110, 111, 112, 113, 114, 115, 116, 117, 118, 119, 120, 121, 122, 123, 124, 125, 126, 127, 128, 129, 130, 131, 132, 133, 134, 135, 136, 137, 138, 139, 140, 141, 142, 143, 144, 145, 146, 147, 148, 149, 150, 151, 152, 153, 154, 155, 156, 157, 158, 159, 160, 161, 162, 163, 164],
      "AcquisitionTime": ["162919.225000", "162920.725000", "162922.225000", "162923.725000", "162925.225000", "162926.725000", "162928.225000", "162929.725000", "162931.225000", "162932.725000", "162934.225000", "162935.725000", "162937.225000", "162938.725000", "162940.225000", "162941.725000", "162943.225000", "162944.725000", "162946.225000", "162947.725000", "162949.225000", "162950.725000", "162952.225000", "162953.725000", "162955.225000", "162956.725000", "162958.225000", "162959.725000", "163001.225000", "163002.725000", "163004.225000", "163005.725000", "163007.225000", "163008.725000", "163010.225000", "163011.725000", "163013.225000", "163014.725000", "163016.225000", "163017.725000", "163019.225000", "163020.725000", "163022.225000", "163023.725000", "163025.225000", "163026.725000", "163028.225000", "163029.725000", "163031.225000", "163032.725000", "163034.225000", "163035.725000", "163037.225000", "163038.725000", "163040.225000", "163041.725000", "163043.225000", "163044.725000", "163046.225000", "163047.725000", "163049.225000", "163050.725000", "163052.225000", "163053.725000", "163055.225000", "163056.725000", "163058.225000", "163059.725000", "163101.225000", "163102.725000", "163104.225000", "163105.725000", "163107.225000", "163108.725000", "163110.225000", "163111.725000", "163113.225000", "163114.725000", "163116.225000", "163117.725000", "163119.225000", "163120.725000", "163122.225000", "163123.725000", "163125.225000", "163126.725000", "163128.225000", "163129.725000", "163131.225000", "163132.725000", "163134.225000", "163135.725000", "163137.225000", "163138.725000", "163140.225000", "163141.725000", "163143.225000", "163144.725000", "163146.225000", "163147.725000", "163149.225000", "163150.725000", "163152.225000", "163153.725000", "163155.225000", "163156.725000", "163158.225000", "163159.725000", "163201.225000", "163202.725000", "163204.225000", "163205.725000", "163207.225000", "163208.725000", "163210.225000", "163211.725000", "163213.225000", "163214.725000", "163216.225000", "163217.725000", "163219.225000", "163220.725000", "163222.225000", "163223.725000", "163225.225000", "163226.725000", "163228.225000", "163229.725000", "163231.225000", "163232.725000", "163234.225000", "163235.725000", "163237.225000", "163238.725000", "163240.225000", "163241.725000", "163243.225000", "163244.725000", "163246.225000", "163247.725000", "163249.225000", "163250.725000", "163252.225000", "163253.725000", "163255.225000", "163256.725000", "163258.225000", "163259.725000", "163301.225000", "163302.725000", "163304.225000", "163305.725000", "163307.225000", "163308.725000", "163310.225000", "163311.725000", "163313.225000", "163314.725000", "163316.225000", "163317.725000", "163319.225000", "163320.725000", "163322.225000", "163323.725000"],
      "ContentTime": ["162953.303000", "162953.313000", "162953.316000", "162953.319000", "162953.322000", "162953.325000", "162953.328000", "162953.331000", "162953.334000", "162953.337000", "162953.340000", "162953.343000", "162953.346000", "162953.354000", "162953.356000", "162953.359000", "162953.362000", "162953.365000", "162953.368000", "162953.371000", "162953.375000", "162953.378000", "163033.298000", "163033.301000", "163033.304000", "163033.307000", "163033.310000", "163033.313000", "163033.316000", "163033.319000", "163033.322000", "163033.326000", "163033.329000", "163033.332000", "163033.335000", "163033.338000", "163033.341000", "163033.344000", "163033.347000", "163033.350000", "163033.353000", "163033.356000", "163033.359000", "163033.362000", "163033.365000", "163033.368000", "163033.371000", "163033.374000", "163033.377000", "163113.298000", "163113.301000", "163113.305000", "163113.308000", "163113.311000", "163113.314000", "163113.317000", "163113.320000", "163113.323000", "163113.326000", "163113.329000", "163113.332000", "163113.335000", "163113.338000", "163113.341000", "163113.344000", "163113.347000", "163113.350000", "163113.353000", "163113.359000", "163113.362000", "163113.365000", "163113.368000", "163113.371000", "163113.374000", "163113.377000", "163113.380000", "163153.298000", "163153.301000", "163153.304000", "163153.307000", "163153.310000", "163153.313000", "163153.316000", "163153.319000", "163153.322000", "163153.325000", "163153.328000", "163153.332000", "163153.334000", "163153.337000", "163153.340000", "163153.343000", "163153.346000", "163153.349000", "163153.352000", "163153.356000", "163153.358000", "163153.362000", "163153.364000", "163153.368000", "163153.371000", "163153.374000", "163233.298000", "163233.301000", "163233.304000", "163233.307000", "163233.310000", "163233.313000", "163233.316000", "163233.319000", "163233.322000", "163233.325000", "163233.328000", "163233.332000", "163233.334000", "163233.337000", "163233.340000", "163233.344000", "163233.347000", "163233.350000", "163233.352000", "163233.356000", "163233.359000", "163233.362000", "163233.365000", "163233.368000", "163233.371000", "163233.374000", "163233.377000", "163313.298000", "163313.301000", "163313.304000", "163313.307000", "163313.310000", "163313.313000", "163313.317000", "163313.320000", "163313.323000", "163313.326000", "163313.329000", "163313.332000", "163313.335000", "163313.338000", "163313.341000", "163313.344000", "163313.347000", "163313.350000", "163313.353000", "163313.356000", "163313.359000", "163313.362000", "163313.365000", "163313.368000", "163313.371000", "163313.374000", "163313.377000", "163325.188000", "163325.192000", "163325.195000", "163325.199000", "163325.202000", "163325.205000", "163325.208000", "163325.212000"],
      "InstanceCreationTime": ["162953.303000", "162953.313000", "162953.316000", "162953.319000", "162953.322000", "162953.325000", "162953.328000", "162953.331000", "162953.334000", "162953.337000", "162953.340000", "162953.343000", "162953.346000", "162953.354000", "162953.356000", "162953.359000", "162953.362000", "162953.365000", "162953.368000", "162953.371000", "162953.375000", "162953.378000", "163033.298000", "163033.301000", "163033.304000", "163033.307000", "163033.310000", "163033.313000", "163033.316000", "163033.319000", "163033.322000", "163033.326000", "163033.329000", "163033.332000", "163033.335000", "163033.338000", "163033.341000", "163033.344000", "163033.347000", "163033.350000", "163033.353000", "163033.356000", "163033.359000", "163033.362000", "163033.365000", "163033.368000", "163033.371000", "163033.374000", "163033.377000", "163113.298000", "163113.301000", "163113.305000", "163113.308000", "163113.311000", "163113.314000", "163113.317000", "163113.320000", "163113.323000", "163113.326000", "163113.329000", "163113.332000", "163113.335000", "163113.338000", "163113.341000", "163113.344000", "163113.347000", "163113.350000", "163113.353000", "163113.359000", "163113.362000", "163113.365000", "163113.368000", "163113.371000", "163113.374000", "163113.377000", "163113.380000", "163153.298000", "163153.301000", "163153.304000", "163153.307000", "163153.310000", "163153.313000", "163153.316000", "163153.319000", "163153.322000", "163153.325000", "163153.328000", "163153.332000", "163153.334000", "163153.337000", "163153.340000", "163153.343000", "163153.346000", "163153.349000", "163153.352000", "163153.356000", "163153.358000", "163153.362000", "163153.364000", "163153.368000", "163153.371000", "163153.374000", "163233.298000", "163233.301000", "163233.304000", "163233.307000", "163233.310000", "163233.313000", "163233.316000", "163233.319000", "163233.322000", "163233.325000", "163233.328000", "163233.332000", "163233.334000", "163233.337000", "163233.340000", "163233.344000", "163233.347000", "163233.350000", "163233.352000", "163233.356000", "163233.359000", "163233.362000", "163233.365000", "163233.368000", "163233.371000", "163233.374000", "163233.377000", "163313.298000", "163313.301000", "163313.304000", "163313.307000", "163313.310000", "163313.313000", "163313.317000", "163313.320000", "163313.323000", "163313.326000", "163313.329000", "163313.332000", "163313.335000", "163313.338000", "163313.341000", "163313.344000", "163313.347000", "163313.350000", "163313.353000", "163313.356000", "163313.359000", "163313.362000", "163313.365000", "163313.368000", "163313.371000", "163313.374000", "163313.377000", "163325.188000", "163325.192000", "163325.195000", "163325.199000", "163325.202000", "163325.205000", "163325.208000", "163325.212000"],
      "InstanceNumber": [1, 2, 3, 4, 5, 6, 7, 8, 9, 10, 11, 12, 13, 14, 15, 16, 17, 18, 19, 20, 21, 22, 23, 24, 25, 26, 27, 28, 29, 30, 31, 32, 33, 34, 35, 36, 37, 38, 39, 40, 41, 42, 43, 44, 45, 46, 47, 48, 49, 50, 51, 52, 53, 54, 55, 56, 57, 58, 59, 60, 61, 62, 63, 64, 65, 66, 67, 68, 69, 70, 71, 72, 73, 74, 75, 76, 77, 78, 79, 80, 81, 82, 83, 84, 85, 86, 87, 88, 89, 90, 91, 92, 93, 94, 95, 96, 97, 98, 99, 100, 101, 102, 103, 104, 105, 106, 107, 108, 109, 110, 111, 112, 113, 114, 115, 116, 117, 118, 119, 120, 121, 122, 123, 124, 125, 126, 127, 128, 129, 130, 131, 132, 133, 134, 135, 136, 137, 138, 139, 140, 141, 142, 143, 144, 145, 146, 147, 148, 149, 150, 151, 152, 153, 154, 155, 156, 157, 158, 159, 160, 161, 162, 163, 164],
      "LargestImagePixelValue": [3327, 3298, 3269, 3248, 3192, 3198, 3203, 3195, 3188, 3189, 3187, 3173, 3180, 3188, 3198, 3193, 3181, 3191, 3175, 3203, 3174, 3174, 3173, 3176, 3190, 3198, 3197, 3184, 3174, 3185, 3206, 3196, 3208, 3208, 3195, 3231, 3224, 3204, 3204, 3219, 3212, 3221, 3263, 3221, 3232, 3244, 3238, 3254, 3271, 3256, 3243, 3235, 3254, 3248, 3243, 3222, 3259, 3242, 3258, 3262, 3260, 3243, 3235, 3250, 3256, 3249, 3246, 3242, 3244, 3263, 3254, 3238, 3218, 3229, 3229, 3234, 3262, 3239, 3260, 3272, 3290, 3285, 3290, 3259, 3276, 3302, 3306, 3301, 3295, 3266, 3280, 3305, 3317, 3321, 3305, 3288, 3334, 3309, 3300, 3309, 3314, 3312, 3323, 3328, 3352, 3408, 3375, 3351, 3370, 3389, 3403, 3389, 3432, 3427, 3440, 3419, 3435, 3408, 3415, 3432, 3426, 3409, 3410, 3406, 3386, 3354, 3382, 3384, 3371, 3386, 3369, 3404, 3355, 3367, 3328, 3311, 3347, 3318, 3367, 3368, 3358, 3393, 3382, 3396, 3390, 3387, 3420, 3426, 3417, 3491, 3324, 3304, 3361, 3334, 3348, 3348, 3339, 3348, 3336, 3335, 3350, 3390, 3318, 3328],
      "WindowCenter": [793.0, 788.0, 793.0, 793.0, 790.0, 788.0, 789.0, 789.0, 789.0, 789.0, 788.0, 788.0, 788.0, 788.0, 788.0, 788.0, 787.0, 787.0, 787.0, 787.0, 787.0, 787.0, 788.0, 788.0, 787.0, 788.0, 788.0, 787.0, 787.0, 787.0, 788.0, 788.0, 788.0, 788.0, 788.0, 788.0, 787.0, 787.0, 787.0, 787.0, 787.0, 788.0, 789.0, 789.0, 789.0, 789.0, 789.0, 789.0, 788.0, 789.0, 788.0, 789.0, 788.0, 788.0, 788.0, 788.0, 787.0, 787.0, 788.0, 789.0, 789.0, 788.0, 787.0, 787.0, 788.0, 787.0, 787.0, 787.0, 787.0, 787.0, 788.0, 788.0, 788.0, 787.0, 787.0, 787.0, 787.0, 787.0, 787.0, 788.0, 788.0, 787.0, 788.0, 788.0, 788.0, 788.0, 788.0, 787.0, 787.0, 787.0, 787.0, 787.0, 788.0, 788.0, 787.0, 788.0, 788.0, 788.0, 788.0, 788.0, 788.0, 788.0, 788.0, 788.0, 787.0, 788.0, 788.0, 788.0, 789.0, 788.0, 788.0, 788.0, 788.0, 788.0, 788.0, 787.0, 788.0, 789.0, 789.0, 789.0, 788.0, 788.0, 787.0, 787.0, 787.0, 788.0, 788.0, 788.0, 787.0, 787.0, 787.0, 788.0, 788.0, 787.0, 787.0, 788.0, 788.0, 787.0, 787.0, 788.0, 787.0, 787.0, 787.0, 788.0, 788.0, 788.0, 788.0, 788.0, 788.0, 789.0, 788.0, 788.0, 789.0, 789.0, 788.0, 788.0, 788.0, 788.0, 788.0, 788.0, 788.0, 788.0, 788.0, 788.0],
      "WindowWidth": [1750.0, 1733.0, 1748.0, 1745.0, 1737.0, 1732.0, 1733.0, 1734.0, 1734.0, 1734.0, 1733.0, 1732.0, 1732.0, 1732.0, 1732.0, 1731.0, 1730.0, 1730.0, 1729.0, 1731.0, 1731.0, 1731.0, 1732.0, 1731.0, 1730.0, 1731.0, 1731.0, 1730.0, 1731.0, 1730.0, 1733.0, 1732.0, 1732.0, 1733.0, 1731.0, 1732.0, 1730.0, 1730.0, 1730.0, 1730.0, 1730.0, 1732.0, 1734.0, 1734.0, 1736.0, 1736.0, 1735.0, 1734.0, 1734.0, 1734.0, 1733.0, 1734.0, 1733.0, 1733.0, 1732.0, 1731.0, 1730.0, 1730.0, 1733.0, 1736.0, 1735.0, 1733.0, 1731.0, 1730.0, 1732.0, 1730.0, 1730.0, 1729.0, 1728.0, 1729.0, 1731.0, 1731.0, 1731.0, 1729.0, 1728.0, 1729.0, 1729.0, 1730.0, 1730.0, 1731.0, 1731.0, 1730.0, 1732.0, 1731.0, 1731.0, 1732.0, 1731.0, 1730.0, 1729.0, 1728.0, 1730.0, 1731.0, 1732.0, 1731.0, 1731.0, 1731.0, 1733.0, 1733.0, 1732.0, 1732.0, 1732.0, 1733.0, 1732.0, 1731.0, 1731.0, 1731.0, 1732.0, 1733.0, 1734.0, 1733.0, 1733.0, 1732.0, 1733.0, 1732.0, 1731.0, 1731.0, 1732.0, 1734.0, 1735.0, 1735.0, 1733.0, 1731.0, 1730.0, 1730.0, 1730.0, 1731.0, 1732.0, 1731.0, 1730.0, 1729.0, 1729.0, 1732.0, 1731.0, 1730.0, 1729.0, 1730.0, 1731.0, 1729.0, 1728.0, 1730.0, 1729.0, 1730.0, 1730.0, 1732.0, 1732.0, 1732.0, 1732.0, 1733.0, 1732.0, 1735.0, 1732.0, 1732.0, 1734.0, 1733.0, 1731.0, 1730.0, 1730.0, 1731.0, 1731.0, 1732.0, 1732.0, 1733.0, 1731.0, 1732.0]
    },
    "slices": {}
  }
}