{
  "AcquisitionMatrixPE": 72,
  "AcquisitionNumber": 1,
  "AcquisitionTime": "16:44:54.697500",
  "BandwidthPerPixelPhaseEncode": 17.943,
  "BaseResolution": 96,
  "BodyPartExamined": "BRAIN",
  "CoilCombinationMethod": "Sum of Squares",
  "ConsistencyInfo": "N4_VE11C_LATEST_20160120",
  "ConversionSoftware": "dcm2niix",
  "ConversionSoftwareVersion": "v1.0.20211006",
  "DerivedVendorReportedEchoSpacing": 0.000552897,
  "DeviceSerialNumber": "166011",
  "EchoTime": 0.03,
  "EchoTrainLength": 58,
  "EffectiveEchoSpacing": 0.000580542,
  "FlipAngle": 62,
  "ImageOrientationPatientDICOM": [0.998092, -0.0532997, 0.0311761, 0.0570252, 0.989298, -0.134308],
  "ImageType": [
    "ORIGINAL",
    "PRIMARY",
    "M",
    "ND",
    "MOSAIC"
],
  "ImagingFrequency": 123.259,
  "InPlanePhaseEncodingDirectionDICOM": "COL",
  "InstitutionAddress": "West 130th Street 610,NY,NYC,US,10025",
  "InstitutionName": "MBBI",
  "MRAcquisitionType": "2D",
  "MagneticFieldStrength": 3,
  "Manufacturer": "Siemens",
  "ManufacturersModelName": "Prisma",
  "Modality": "MR",
  "MultibandAccelerationFactor": 3,
  "PartialFourier": 0.75,
  "PatientPosition": "HFS",
  "PercentPhaseFOV": 100,
  "PercentSampling": 75,
  "PhaseEncodingDirection": "j-",
  "PhaseEncodingSteps": 58,
  "PhaseOversampling": 0.05,
  "PhaseResolution": 0.75,
  "PixelBandwidth": 2265,
  "ProcedureStepDescription": "White^Word_recognition",
  "ProtocolName": "func_catLoc_run1",
  "PulseSequenceDetails": "%SiemensSeq%\\ep2d_bold",
  "ReceiveCoilActiveElements": "HC1-6",
  "ReceiveCoilName": "HeadNeck_64",
  "ReconMatrixPE": 96,
  "RefLinesPE": 40,
  "RepetitionTime": 1.5,
  "SAR": 0.0458263,
  "ScanOptions": "PFP\\FS",
  "ScanningSequence": "EP",
  "SequenceName": "*epfid2d1_72",
  "SequenceVariant": "SK\\OSP",
  "SeriesDescription": "func_catLoc_run1",
  "SeriesNumber": 10,
  "ShimSetting": [-1140, -1336, 650, 475, -104, -47, -106, 7],
  "SliceThickness": 2,
  "SliceTiming": [1.075, 0, 0.74, 0.0675, 0.8075, 0.135, 0.875, 0.2025, 0.9425, 0.27, 1.01, 0.4025, 1.1425, 0.47, 1.21, 0.5375, 1.2775, 0.605, 1.345, 0.6725, 1.4125, 0.335, 1.075, 0, 0.74, 0.0675, 0.8075, 0.135, 0.875, 0.2025, 0.9425, 0.27, 1.01, 0.4025, 1.1425, 0.47, 1.21, 0.5375, 1.2775, 0.605, 1.345, 0.6725, 1.4125, 0.335, 1.075, 0, 0.74, 0.0675, 0.8075, 0.135, 0.875, 0.2025, 0.9425, 0.27, 1.01, 0.4025, 1.1425, 0.47, 1.21, 0.5375, 1.2775, 0.605, 1.345, 0.6725, 1.4125, 0.335],
  "SoftwareVersions": "syngo MR E11",
  "SpacingBetweenSlices": 2,
  "StationName": "AWP166011",
  "TaskName": "catLoc",
  "TotalReadoutTime": 0.0551515,
  "TxRefAmp": 218.536,
  "dcmmeta_affine": [
    [-1.9961835145950317, 0.11405044049024582, 0.04736785963177681, 93.61332702636719],
    [0.10659930109977722, 1.9785950183868408, -0.27165839076042175, -73.04097747802734],
    [0.06235228478908539, 0.2686153054237366, 1.980898380279541, -63.929039001464844],
    [0.0, 0.0, 0.0, 1.0]
],
  "dcmmeta_reorient_transform": [
    [0.0, -1.0, 0.0, 95.0],
    [1.0, 0.0, 0.0, 0.0],
    [0.0, 0.0, 1.0, 0.0],
    [0.0, 0.0, 0.0, 1.0]
],
  "dcmmeta_shape": [96, 96, 66, 214],
  "dcmmeta_slice_dim": 2,
  "dcmmeta_version": 0.6,
  "global": {
    "const": {
      "AcquisitionMatrix": [96, 0, 0, 72],
      "AngioFlag": "N",
      "BitsAllocated": 16,
      "BitsStored": 12,
      "BodyPartExamined": "BRAIN",
      "Columns": 864,
      "EchoNumbers": 1,
      "EchoTime": 30.0,
      "EchoTrainLength": 58,
      "FlipAngle": 62.0,
      "HighBit": 11,
      "ImageOrientationPatient": [0.99809177712727, -0.0532996489963, 0.0311761422854, 0.0570252216503, 0.98929751837035, -0.134307647742],
      "ImagePositionPatient": [-914.77797232933, -833.77191469342, 40.794410082194],
      "ImageType": [
        "ORIGINAL",
        "PRIMARY",
        "M",
        "ND",
        "MOSAIC"
],
      "ImagedNucleus": "1H",
      "ImagingFrequency": 123.25943,
      "InPlanePhaseEncodingDirection": "COL",
      "MRAcquisitionType": "2D",
      "MagneticFieldStrength": 3.0,
      "Manufacturer": "SIEMENS",
      "ManufacturerModelName": "Prisma",
      "Modality": "MR",
      "NumberOfAverages": 1.0,
      "NumberOfPhaseEncodingSteps": 58,
      "PercentPhaseFieldOfView": 100.0,
      "PercentSampling": 75.0,
      "PerformedProcedureStepStartTime": "160119.314000",
      "PhotometricInterpretation": "MONOCHROME2",
      "PixelBandwidth": 2265.0,
      "PixelRepresentation": 0,
      "PixelSpacing": [2.0, 2.0],
      "ProtocolName": "func_catLoc_run1",
      "RepetitionTime": 1500.0,
      "Rows": 864,
      "SAR": 0.04582627835904,
      "SamplesPerPixel": 1,
      "ScanOptions": [
        "PFP",
        "FS"
],
      "ScanningSequence": "EP",
      "SequenceName": "*epfid2d1_72",
      "SequenceVariant": [
        "SK",
        "OSP"
],
      "SeriesDescription": "func_catLoc_run1",
      "SeriesNumber": 10,
      "SeriesTime": "164529.578000",
      "SliceLocation": -51.18023416421,
      "SliceThickness": 2.0,
      "SmallestImagePixelValue": 0,
      "SoftwareVersions": "syngo MR E11",
      "SpacingBetweenSlices": 2.0000000587331,
      "SpecificCharacterSet": "ISO_IR 100",
      "StudyID": "1",
      "StudyTime": "160119.243000",
      "TransmitCoilName": "Body",
      "VariableFlipAngleFlag": "N",
      "WindowCenterWidthExplanation": "Algo1",
      "dBdt": 0.0},
    "slices": {}
  },
  "time": {
    "samples": {
      "AcquisitionNumber": [1, 2, 3, 4, 5, 6, 7, 8, 9, 10, 11, 12, 13, 14, 15, 16, 17, 18, 19, 20, 21, 22, 23, 24, 25, 26, 27, 28, 29, 30, 31, 32, 33, 34, 35, 36, 37, 38, 39, 40, 41, 42, 43, 44, 45, 46, 47, 48, 49, 50, 51, 52, 53, 54, 55, 56, 57, 58, 59, 60, 61, 62, 63, 64, 65, 66, 67, 68, 69, 70, 71, 72, 73, 74, 75, 76, 77, 78, 79, 80, 81, 82, 83, 84, 85, 86, 87, 88, 89, 90, 91, 92, 93, 94, 95, 96, 97, 98, 99, 100, 101, 102, 103, 104, 105, 106, 107, 108, 109, 110, 111, 112, 113, 114, 115, 116, 117, 118, 119, 120, 121, 122, 123, 124, 125, 126, 127, 128, 129, 130, 131, 132, 133, 134, 135, 136, 137, 138, 139, 140, 141, 142, 143, 144, 145, 146, 147, 148, 149, 150, 151, 152, 153, 154, 155, 156, 157, 158, 159, 160, 161, 162, 163, 164, 165, 166, 167, 168, 169, 170, 171, 172, 173, 174, 175, 176, 177, 178, 179, 180, 181, 182, 183, 184, 185, 186, 187, 188, 189, 190, 191, 192, 193, 194, 195, 196, 197, 198, 199, 200, 201, 202, 203, 204, 205, 206, 207, 208, 209, 210, 211, 212, 213, 214],
      "AcquisitionTime": ["164454.697500", "164456.197500", "164457.697500", "164459.197500", "164500.697500", "164502.197500", "164503.697500", "164505.197500", "164506.697500", "164508.197500", "164509.697500", "164511.197500", "164512.697500", "164514.197500", "164515.697500", "164517.197500", "164518.697500", "164520.197500", "164521.697500", "164523.197500", "164524.697500", "164526.197500", "164527.697500", "164529.197500", "164530.697500", "164532.197500", "164533.697500", "164535.197500", "164536.697500", "164538.197500", "164539.697500", "164541.197500", "164542.697500", "164544.197500", "164545.697500", "164547.197500", "164548.697500", "164550.197500", "164551.697500", "164553.197500", "164554.697500", "164556.197500", "164557.697500", "164559.197500", "164600.697500", "164602.197500", "164603.697500", "164605.197500", "164606.697500", "164608.197500", "164609.697500", "164611.197500", "164612.697500", "164614.197500", "164615.697500", "164617.197500", "164618.697500", "164620.197500", "164621.697500", "164623.197500", "164624.697500", "164626.197500", "164627.697500", "164629.197500", "164630.697500", "164632.197500", "164633.697500", "164635.197500", "164636.697500", "164638.197500", "164639.697500", "164641.197500", "164642.697500", "164644.197500", "164645.697500", "164647.197500", "164648.697500", "164650.197500", "164651.697500", "164653.197500", "164654.697500", "164656.197500", "164657.697500", "164659.197500", "164700.697500", "164702.197500", "164703.697500", "164705.197500", "164706.697500", "164708.197500", "164709.697500", "164711.197500", "164712.697500", "164714.197500", "164715.697500", "164717.197500", "164718.697500", "164720.197500", "164721.697500", "164723.197500", "164724.697500", "164726.197500", "164727.697500", "164729.197500", "164730.697500", "164732.197500", "164733.697500", "164735.197500", "164736.697500", "164738.197500", "164739.697500", "164741.197500", "164742.697500", "164744.197500", "164745.697500", "164747.197500", "164748.697500", "164750.197500", "164751.697500", "164753.197500", "164754.697500", "164756.197500", "164757.697500", "164759.197500", "164800.697500", "164802.197500", "164803.697500", "164805.197500", "164806.697500", "164808.197500", "164809.697500", "164811.197500", "164812.697500", "164814.197500", "164815.697500", "164817.197500", "164818.697500", "164820.197500", "164821.697500", "164823.197500", "164824.697500", "164826.197500", "164827.697500", "164829.197500", "164830.697500", "164832.197500", "164833.697500", "164835.197500", "164836.697500", "164838.197500", "164839.697500", "164841.197500", "164842.697500", "164844.197500", "164845.697500", "164847.197500", "164848.697500", "164850.197500", "164851.697500", "164853.197500", "164854.697500", "164856.197500", "164857.697500", "164859.197500", "164900.697500", "164902.197500", "164903.697500", "164905.197500", "164906.697500", "164908.197500", "164909.697500", "164911.197500", "164912.697500", "164914.197500", "164915.697500", "164917.197500", "164918.697500", "164920.197500", "164921.697500", "164923.197500", "164924.697500", "164926.197500", "164927.697500", "164929.197500", "164930.697500", "164932.197500", "164933.697500", "164935.197500", "164936.697500", "164938.197500", "164939.697500", "164941.197500", "164942.697500", "164944.197500", "164945.697500", "164947.197500", "164948.697500", "164950.197500", "164951.697500", "164953.197500", "164954.697500", "164956.197500", "164957.697500", "164959.197500", "165000.697500", "165002.197500", "165003.697500", "165005.197500", "165006.697500", "165008.197500", "165009.697500", "165011.197500", "165012.697500", "165014.197500"],
      "ContentTime": ["164529.582000", "164529.586000", "164529.598000", "164529.604000", "164529.607000", "164529.610000", "164529.613000", "164529.616000", "164529.619000", "164529.623000", "164529.627000", "164529.630000", "164529.633000", "164529.636000", "164529.639000", "164529.642000", "164529.645000", "164529.648000", "164529.651000", "164529.654000", "164529.657000", "164529.660000", "164529.663000", "164609.577000", "164609.580000", "164609.583000", "164609.586000", "164609.589000", "164609.599000", "164609.602000", "164609.605000", "164609.608000", "164609.611000", "164609.614000", "164609.617000", "164609.621000", "164609.623000", "164609.626000", "164609.629000", "164609.633000", "164609.636000", "164609.638000", "164609.641000", "164609.644000", "164609.647000", "164609.650000", "164609.653000", "164609.657000", "164609.659000", "164609.663000", "164649.577000", "164649.580000", "164649.583000", "164649.586000", "164649.589000", "164649.592000", "164649.595000", "164649.598000", "164649.601000", "164649.604000", "164649.607000", "164649.610000", "164649.613000", "164649.616000", "164649.619000", "164649.622000", "164649.625000", "164649.628000", "164649.631000", "164649.637000", "164649.640000", "164649.643000", "164649.646000", "164649.649000", "164649.652000", "164649.655000", "164649.658000", "164729.578000", "164729.581000", "164729.584000", "164729.587000", "164729.590000", "164729.593000", "164729.596000", "164729.599000", "164729.608000", "164729.611000", "164729.614000", "164729.617000", "164729.621000", "164729.624000", "164729.627000", "164729.630000", "164729.633000", "164729.636000", "164729.639000", "164729.642000", "164729.645000", "164729.648000", "164729.651000", "164729.654000", "164729.657000", "164729.660000", "164809.577000", "164809.580000", "164809.583000", "164809.586000", "164809.589000", "164809.592000", "164809.595000", "164809.598000", "164809.602000", "164809.605000", "164809.608000", "164809.611000", "164809.614000", "164809.617000", "164809.620000", "164809.623000", "164809.626000", "164809.629000", "164809.632000", "164809.635000", "164809.638000", "164809.641000", "164809.644000", "164809.647000", "164809.650000", "164809.653000", "164809.656000", "164849.577000", "164849.580000", "164849.583000", "164849.586000", "164849.589000", "164849.592000", "164849.595000", "164849.605000", "164849.608000", "164849.611000", "164849.614000", "164849.617000", "164849.620000", "164849.623000", "164849.626000", "164849.629000", "164849.632000", "164849.635000", "164849.638000", "164849.641000", "164849.644000", "164849.647000", "164849.650000", "164849.653000", "164849.656000", "164849.659000", "164849.662000", "164929.578000", "164929.581000", "164929.584000", "164929.587000", "164929.591000", "164929.594000", "164929.597000", "164929.600000", "164929.603000", "164929.606000", "164929.609000", "164929.612000", "164929.615000", "164929.620000", "164929.623000", "164929.626000", "164929.629000", "164929.632000", "164929.635000", "164929.638000", "164929.641000", "164929.644000", "164929.647000", "164929.650000", "164929.653000", "164929.656000", "165009.577000", "165009.580000", "165009.583000", "165009.586000", "165009.589000", "165009.592000", "165009.595000", "165009.598000", "165009.601000", "165009.604000", "165009.607000", "165009.610000", "165009.614000", "165009.617000", "165009.620000", "165009.623000", "165009.626000", "165009.629000", "165009.632000", "165009.635000", "165009.638000", "165009.641000", "165009.644000", "165009.647000", "165009.650000", "165009.653000", "165009.656000", "165014.881000", "165014.885000", "165014.888000", "165014.891000"],
      "InstanceCreationTime": ["164529.582000", "164529.586000", "164529.598000", "164529.604000", "164529.607000", "164529.610000", "164529.613000", "164529.616000", "164529.619000", "164529.623000", "164529.627000", "164529.630000", "164529.633000", "164529.636000", "164529.639000", "164529.642000", "164529.645000", "164529.648000", "164529.651000", "164529.654000", "164529.657000", "164529.660000", "164529.663000", "164609.577000", "164609.580000", "164609.583000", "164609.586000", "164609.589000", "164609.599000", "164609.602000", "164609.605000", "164609.608000", "164609.611000", "164609.614000", "164609.617000", "164609.621000", "164609.623000", "164609.626000", "164609.629000", "164609.633000", "164609.636000", "164609.638000", "164609.641000", "164609.644000", "164609.647000", "164609.650000", "164609.653000", "164609.657000", "164609.659000", "164609.663000", "164649.577000", "164649.580000", "164649.583000", "164649.586000", "164649.589000", "164649.592000", "164649.595000", "164649.598000", "164649.601000", "164649.604000", "164649.607000", "164649.610000", "164649.613000", "164649.616000", "164649.619000", "164649.622000", "164649.625000", "164649.628000", "164649.631000", "164649.637000", "164649.640000", "164649.643000", "164649.646000", "164649.649000", "164649.652000", "164649.655000", "164649.658000", "164729.578000", "164729.581000", "164729.584000", "164729.587000", "164729.590000", "164729.593000", "164729.596000", "164729.599000", "164729.608000", "164729.611000", "164729.614000", "164729.617000", "164729.621000", "164729.624000", "164729.627000", "164729.630000", "164729.633000", "164729.636000", "164729.639000", "164729.642000", "164729.645000", "164729.648000", "164729.651000", "164729.654000", "164729.657000", "164729.660000", "164809.577000", "164809.580000", "164809.583000", "164809.586000", "164809.589000", "164809.592000", "164809.595000", "164809.598000", "164809.602000", "164809.605000", "164809.608000", "164809.611000", "164809.614000", "164809.617000", "164809.620000", "164809.623000", "164809.626000", "164809.629000", "164809.632000", "164809.635000", "164809.638000", "164809.641000", "164809.644000", "164809.647000", "164809.650000", "164809.653000", "164809.656000", "164849.577000", "164849.580000", "164849.583000", "164849.586000", "164849.589000", "164849.592000", "164849.595000", "164849.605000", "164849.608000", "164849.611000", "164849.614000", "164849.617000", "164849.620000", "164849.623000", "164849.626000", "164849.629000", "164849.632000", "164849.635000", "164849.638000", "164849.641000", "164849.644000", "164849.647000", "164849.650000", "164849.653000", "164849.656000", "164849.659000", "164849.662000", "164929.578000", "164929.581000", "164929.584000", "164929.587000", "164929.591000", "164929.594000", "164929.597000", "164929.600000", "164929.603000", "164929.606000", "164929.609000", "164929.612000", "164929.615000", "164929.620000", "164929.623000", "164929.626000", "164929.629000", "164929.632000", "164929.635000", "164929.638000", "164929.641000", "164929.644000", "164929.647000", "164929.650000", "164929.653000", "164929.656000", "165009.577000", "165009.580000", "165009.583000", "165009.586000", "165009.589000", "165009.592000", "165009.595000", "165009.598000", "165009.601000", "165009.604000", "165009.607000", "165009.610000", "165009.614000", "165009.617000", "165009.620000", "165009.623000", "165009.626000", "165009.629000", "165009.632000", "165009.635000", "165009.638000", "165009.641000", "165009.644000", "165009.647000", "165009.650000", "165009.653000", "165009.656000", "165014.881000", "165014.885000", "165014.888000", "165014.891000"],
      "InstanceNumber": [1, 2, 3, 4, 5, 6, 7, 8, 9, 10, 11, 12, 13, 14, 15, 16, 17, 18, 19, 20, 21, 22, 23, 24, 25, 26, 27, 28, 29, 30, 31, 32, 33, 34, 35, 36, 37, 38, 39, 40, 41, 42, 43, 44, 45, 46, 47, 48, 49, 50, 51, 52, 53, 54, 55, 56, 57, 58, 59, 60, 61, 62, 63, 64, 65, 66, 67, 68, 69, 70, 71, 72, 73, 74, 75, 76, 77, 78, 79, 80, 81, 82, 83, 84, 85, 86, 87, 88, 89, 90, 91, 92, 93, 94, 95, 96, 97, 98, 99, 100, 101, 102, 103, 104, 105, 106, 107, 108, 109, 110, 111, 112, 113, 114, 115, 116, 117, 118, 119, 120, 121, 122, 123, 124, 125, 126, 127, 128, 129, 130, 131, 132, 133, 134, 135, 136, 137, 138, 139, 140, 141, 142, 143, 144, 145, 146, 147, 148, 149, 150, 151, 152, 153, 154, 155, 156, 157, 158, 159, 160, 161, 162, 163, 164, 165, 166, 167, 168, 169, 170, 171, 172, 173, 174, 175, 176, 177, 178, 179, 180, 181, 182, 183, 184, 185, 186, 187, 188, 189, 190, 191, 192, 193, 194, 195, 196, 197, 198, 199, 200, 201, 202, 203, 204, 205, 206, 207, 208, 209, 210, 211, 212, 213, 214],
      "LargestImagePixelValue": [3619, 3532, 3505, 3484, 3474, 3487, 3477, 3473, 3465, 3467, 3477, 3500, 3463, 3478, 3469, 3471, 3467, 3475, 3477, 3454, 3479, 3485, 3495, 3460, 3487, 3485, 3495, 3469, 3461, 3459, 3463, 3467, 3482, 3484, 3464, 3486, 3477, 3457, 3459, 3446, 3475, 3489, 3464, 3456, 3483, 3459, 3473, 3453, 3478, 3464, 3452, 3468, 3458, 3446, 3448, 3455, 3433, 3434, 3459, 3435, 3471, 3434, 3455, 3461, 3418, 3449, 3447, 3450, 3436, 3459, 3449, 3446, 3439, 3449, 3413, 3451, 3418, 3449, 3432, 3457, 3451, 3487, 3421, 3461, 3452, 3465, 3434, 3439, 3437, 3433, 3407, 3451, 3405, 3437, 3432, 3428, 3420, 3404, 3410, 3422, 3388, 3431, 3424, 3422, 3409, 3428, 3421, 3418, 3426, 3429, 3434, 3430, 3422, 3464, 3422, 3444, 3431, 3426, 3402, 3415, 3410, 3423, 3426, 3456, 3410, 3443, 3422, 3455, 3454, 3451, 3447, 3469, 3414, 3455, 3388, 3425, 3389, 3423, 3413, 3404, 3427, 3440, 3418, 3407, 3434, 3414, 3471, 3474, 3506, 3501, 3478, 3454, 3444, 3408, 3468, 3405, 3410, 3393, 3411, 3414, 3401, 3391, 3408, 3428, 3430, 3398, 3401, 3401, 3443, 3416, 3413, 3405, 3419, 3414, 3314, 3322, 3374, 3366, 3355, 3364, 3384, 3399, 3409, 3375, 3386, 3409, 3371, 3392, 3392, 3404, 3388, 3400, 3395, 3380, 3372, 3376, 3397, 3384, 3384, 3389, 3377, 3372, 3369, 3385, 3377, 3375, 3398, 3412, 3384, 3413, 3390, 3430, 3390, 3397],
      "WindowCenter": [789.0, 788.0, 788.0, 788.0, 788.0, 789.0, 788.0, 789.0, 788.0, 789.0, 789.0, 789.0, 790.0, 791.0, 791.0, 791.0, 791.0, 791.0, 791.0, 791.0, 791.0, 793.0, 792.0, 791.0, 791.0, 791.0, 791.0, 791.0, 791.0, 791.0, 791.0, 791.0, 791.0, 791.0, 790.0, 790.0, 790.0, 790.0, 790.0, 790.0, 790.0, 790.0, 790.0, 789.0, 790.0, 789.0, 789.0, 789.0, 789.0, 790.0, 789.0, 789.0, 789.0, 789.0, 789.0, 789.0, 789.0, 789.0, 789.0, 789.0, 789.0, 789.0, 789.0, 789.0, 789.0, 788.0, 788.0, 789.0, 788.0, 789.0, 789.0, 789.0, 789.0, 788.0, 788.0, 788.0, 788.0, 789.0, 789.0, 790.0, 790.0, 789.0, 789.0, 789.0, 789.0, 789.0, 790.0, 789.0, 789.0, 789.0, 790.0, 791.0, 790.0, 789.0, 788.0, 788.0, 788.0, 787.0, 787.0, 787.0, 787.0, 788.0, 788.0, 788.0, 788.0, 788.0, 789.0, 789.0, 789.0, 790.0, 790.0, 790.0, 789.0, 789.0, 788.0, 789.0, 789.0, 789.0, 789.0, 789.0, 789.0, 789.0, 789.0, 789.0, 789.0, 789.0, 790.0, 791.0, 791.0, 792.0, 793.0, 793.0, 791.0, 790.0, 789.0, 789.0, 788.0, 788.0, 788.0, 788.0, 787.0, 787.0, 787.0, 788.0, 788.0, 788.0, 789.0, 789.0, 790.0, 790.0, 792.0, 791.0, 791.0, 789.0, 789.0, 788.0, 788.0, 788.0, 788.0, 788.0, 788.0, 787.0, 788.0, 788.0, 788.0, 788.0, 788.0, 788.0, 789.0, 788.0, 788.0, 788.0, 789.0, 789.0, 789.0, 789.0, 789.0, 789.0, 788.0, 788.0, 788.0, 789.0, 789.0, 789.0, 789.0, 789.0, 789.0, 790.0, 790.0, 790.0, 791.0, 791.0, 791.0, 790.0, 790.0, 791.0, 792.0, 792.0, 791.0, 790.0, 789.0, 789.0, 788.0, 788.0, 789.0, 789.0, 790.0, 790.0, 790.0, 791.0, 791.0, 792.0, 792.0, 791.0],
      "WindowWidth": [1739.0, 1735.0, 1735.0, 1734.0, 1733.0, 1735.0, 1734.0, 1735.0, 1732.0, 1734.0, 1735.0, 1737.0, 1738.0, 1740.0, 1740.0, 1741.0, 1740.0, 1740.0, 1741.0, 1741.0, 1742.0, 1745.0, 1743.0, 1741.0, 1740.0, 1740.0, 1741.0, 1741.0, 1740.0, 1740.0, 1741.0, 1741.0, 1741.0, 1740.0, 1738.0, 1737.0, 1738.0, 1737.0, 1737.0, 1737.0, 1738.0, 1739.0, 1737.0, 1736.0, 1737.0, 1737.0, 1736.0, 1736.0, 1737.0, 1737.0, 1736.0, 1736.0, 1735.0, 1735.0, 1734.0, 1735.0, 1736.0, 1736.0, 1735.0, 1734.0, 1735.0, 1735.0, 1736.0, 1736.0, 1734.0, 1733.0, 1733.0, 1734.0, 1734.0, 1735.0, 1735.0, 1735.0, 1735.0, 1733.0, 1731.0, 1731.0, 1732.0, 1734.0, 1735.0, 1737.0, 1736.0, 1735.0, 1735.0, 1735.0, 1736.0, 1736.0, 1737.0, 1736.0, 1735.0, 1736.0, 1738.0, 1740.0, 1737.0, 1735.0, 1733.0, 1732.0, 1731.0, 1729.0, 1729.0, 1729.0, 1728.0, 1731.0, 1731.0, 1731.0, 1732.0, 1733.0, 1735.0, 1735.0, 1735.0, 1737.0, 1737.0, 1736.0, 1736.0, 1735.0, 1733.0, 1735.0, 1736.0, 1734.0, 1734.0, 1734.0, 1734.0, 1735.0, 1735.0, 1735.0, 1734.0, 1735.0, 1737.0, 1739.0, 1741.0, 1744.0, 1747.0, 1745.0, 1740.0, 1738.0, 1733.0, 1733.0, 1730.0, 1732.0, 1732.0, 1731.0, 1730.0, 1730.0, 1730.0, 1731.0, 1730.0, 1730.0, 1734.0, 1736.0, 1738.0, 1739.0, 1742.0, 1741.0, 1739.0, 1734.0, 1733.0, 1731.0, 1731.0, 1730.0, 1730.0, 1731.0, 1730.0, 1730.0, 1730.0, 1732.0, 1732.0, 1730.0, 1731.0, 1731.0, 1734.0, 1732.0, 1733.0, 1732.0, 1734.0, 1736.0, 1735.0, 1735.0, 1734.0, 1734.0, 1732.0, 1732.0, 1732.0, 1734.0, 1735.0, 1734.0, 1734.0, 1733.0, 1734.0, 1735.0, 1737.0, 1738.0, 1740.0, 1740.0, 1738.0, 1736.0, 1736.0, 1739.0, 1742.0, 1742.0, 1739.0, 1736.0, 1735.0, 1734.0, 1732.0, 1733.0, 1734.0, 1735.0, 1735.0, 1737.0, 1738.0, 1739.0, 1739.0, 1742.0, 1741.0, 1740.0]
    },
    "slices": {}
  }
}