{
  "AcquisitionMatrixPE": 72,
  "AcquisitionNumber": 1,
  "AcquisitionTime": "09:36:34.482500",
  "BandwidthPerPixelPhaseEncode": 17.943,
  "BaseResolution": 96,
  "BodyPartExamined": "BRAIN",
  "CoilCombinationMethod": "Sum of Squares",
  "ConsistencyInfo": "N4_VE11C_LATEST_20160120",
  "ConversionSoftware": "dcm2niix",
  "ConversionSoftwareVersion": "v1.0.20211006",
  "DerivedVendorReportedEchoSpacing": 0.000552897,
  "DeviceSerialNumber": "166011",
  "EchoTime": 0.03,
  "EchoTrainLength": 58,
  "EffectiveEchoSpacing": 0.000580542,
  "FlipAngle": 62,
  "ImageOrientationPatientDICOM": [0.999642, -0.0262644, 0.00502781, 0.0267004, 0.990705, -0.133385],
  "ImageType": [
    "ORIGINAL",
    "PRIMARY",
    "M",
    "ND",
    "MOSAIC"
],
  "ImagingFrequency": 123.259,
  "InPlanePhaseEncodingDirectionDICOM": "COL",
  "InstitutionAddress": "West 130th Street 610,NY,NYC,US,10025",
  "InstitutionName": "MBBI",
  "MRAcquisitionType": "2D",
  "MagneticFieldStrength": 3,
  "Manufacturer": "Siemens",
  "ManufacturersModelName": "Prisma",
  "Modality": "MR",
  "MultibandAccelerationFactor": 3,
  "PartialFourier": 0.75,
  "PatientPosition": "HFS",
  "PercentPhaseFOV": 100,
  "PercentSampling": 75,
  "PhaseEncodingDirection": "j-",
  "PhaseEncodingSteps": 58,
  "PhaseOversampling": 0.05,
  "PhaseResolution": 0.75,
  "PixelBandwidth": 2265,
  "ProcedureStepDescription": "White^Word_recognition",
  "ProtocolName": "func_language_run2",
  "PulseSequenceDetails": "%SiemensSeq%\\ep2d_bold",
  "ReceiveCoilActiveElements": "HC1-7",
  "ReceiveCoilName": "HeadNeck_64",
  "ReconMatrixPE": 96,
  "RefLinesPE": 40,
  "RepetitionTime": 1.5,
  "SAR": 0.0470856,
  "ScanOptions": "PFP\\FS",
  "ScanningSequence": "EP",
  "SequenceName": "*epfid2d1_72",
  "SequenceVariant": "SK\\OSP",
  "SeriesDescription": "func_language_run2",
  "SeriesNumber": 12,
  "ShimSetting": [-1181, -1393, 679, 701, -125, -255, -28, -68],
  "SliceThickness": 2,
  "SliceTiming": [1.0775, 0, 0.74, 0.0675, 0.8075, 0.135, 0.875, 0.2025, 0.9425, 0.27, 1.01, 0.405, 1.145, 0.4725, 1.2125, 0.5375, 1.2775, 0.605, 1.345, 0.6725, 1.4125, 0.3375, 1.0775, 0, 0.74, 0.0675, 0.8075, 0.135, 0.875, 0.2025, 0.9425, 0.27, 1.01, 0.405, 1.145, 0.4725, 1.2125, 0.5375, 1.2775, 0.605, 1.345, 0.6725, 1.4125, 0.3375, 1.0775, 0, 0.74, 0.0675, 0.8075, 0.135, 0.875, 0.2025, 0.9425, 0.27, 1.01, 0.405, 1.145, 0.4725, 1.2125, 0.5375, 1.2775, 0.605, 1.345, 0.6725, 1.4125, 0.3375],
  "SoftwareVersions": "syngo MR E11",
  "SpacingBetweenSlices": 2,
  "StationName": "AWP166011",
  "TaskName": "langLoc",
  "TotalReadoutTime": 0.0551515,
  "TxRefAmp": 214.866,
  "dcmmeta_affine": [
    [-1.9992847442626953, 0.05340079963207245, 0.002955583855509758, 96.3221206665039],
    [0.052528709173202515, 1.9814090728759766, -0.26694390177726746, -69.8557357788086],
    [0.010055619291961193, 0.2667708098888397, 1.9821029901504517, -64.31785583496094],
    [0.0, 0.0, 0.0, 1.0]
],
  "dcmmeta_reorient_transform": [
    [0.0, -1.0, 0.0, 95.0],
    [1.0, 0.0, 0.0, 0.0],
    [0.0, 0.0, 1.0, 0.0],
    [0.0, 0.0, 0.0, 1.0]
],
  "dcmmeta_shape": [96, 96, 66, 239],
  "dcmmeta_slice_dim": 2,
  "dcmmeta_version": 0.6,
  "global": {
    "const": {
      "AcquisitionMatrix": [96, 0, 0, 72],
      "AngioFlag": "N",
      "BitsAllocated": 16,
      "BitsStored": 12,
      "BodyPartExamined": "BRAIN",
      "Columns": 864,
      "EchoNumbers": 1,
      "EchoTime": 30.0,
      "EchoTrainLength": 58,
      "FlipAngle": 62.0,
      "HighBit": 11,
      "ImageOrientationPatient": [0.99964238845779, -0.0262643547267, 0.00502780958342, 0.02670039942565, 0.99070450752244, -0.1333854094166],
      "ImagePositionPatient": [-889.62645834692, -859.06815641069, 59.604011147204],
      "ImageType": [
        "ORIGINAL",
        "PRIMARY",
        "M",
        "ND",
        "MOSAIC"
],
      "ImagedNucleus": "1H",
      "ImagingFrequency": 123.259285,
      "InPlanePhaseEncodingDirection": "COL",
      "MRAcquisitionType": "2D",
      "MagneticFieldStrength": 3.0,
      "Manufacturer": "SIEMENS",
      "ManufacturerModelName": "Prisma",
      "Modality": "MR",
      "NumberOfAverages": 1.0,
      "NumberOfPhaseEncodingSteps": 58,
      "PercentPhaseFieldOfView": 100.0,
      "PercentSampling": 75.0,
      "PerformedProcedureStepStartTime": "084413.393000",
      "PhotometricInterpretation": "MONOCHROME2",
      "PixelBandwidth": 2265.0,
      "PixelRepresentation": 0,
      "PixelSpacing": [2.0, 2.0],
      "ProtocolName": "func_language_run2",
      "RepetitionTime": 1500.0,
      "Rows": 864,
      "SAR": 0.04708556451619,
      "SamplesPerPixel": 1,
      "ScanOptions": [
        "PFP",
        "FS"
],
      "ScanningSequence": "EP",
      "SequenceName": "*epfid2d1_72",
      "SequenceVariant": [
        "SK",
        "OSP"
],
      "SeriesDescription": "func_language_run2",
      "SeriesNumber": 12,
      "SeriesTime": "093722.534000",
      "SliceLocation": -54.276178490166,
      "SliceThickness": 2.0,
      "SmallestImagePixelValue": 0,
      "SoftwareVersions": "syngo MR E11",
      "SpacingBetweenSlices": 2.0000000460392,
      "SpecificCharacterSet": "ISO_IR 100",
      "StudyID": "3",
      "StudyTime": "084413.208000",
      "TransmitCoilName": "Body",
      "VariableFlipAngleFlag": "N",
      "WindowCenterWidthExplanation": "Algo1",
      "dBdt": 0.0},
    "slices": {}
  },
  "time": {
    "samples": {
      "AcquisitionNumber": [1, 2, 3, 4, 5, 6, 7, 8, 9, 10, 11, 12, 13, 14, 15, 16, 17, 18, 19, 20, 21, 22, 23, 24, 25, 26, 27, 28, 29, 30, 31, 32, 33, 34, 35, 36, 37, 38, 39, 40, 41, 42, 43, 44, 45, 46, 47, 48, 49, 50, 51, 52, 53, 54, 55, 56, 57, 58, 59, 60, 61, 62, 63, 64, 65, 66, 67, 68, 69, 70, 71, 72, 73, 74, 75, 76, 77, 78, 79, 80, 81, 82, 83, 84, 85, 86, 87, 88, 89, 90, 91, 92, 93, 94, 95, 96, 97, 98, 99, 100, 101, 102, 103, 104, 105, 106, 107, 108, 109, 110, 111, 112, 113, 114, 115, 116, 117, 118, 119, 120, 121, 122, 123, 124, 125, 126, 127, 128, 129, 130, 131, 132, 133, 134, 135, 136, 137, 138, 139, 140, 141, 142, 143, 144, 145, 146, 147, 148, 149, 150, 151, 152, 153, 154, 155, 156, 157, 158, 159, 160, 161, 162, 163, 164, 165, 166, 167, 168, 169, 170, 171, 172, 173, 174, 175, 176, 177, 178, 179, 180, 181, 182, 183, 184, 185, 186, 187, 188, 189, 190, 191, 192, 193, 194, 195, 196, 197, 198, 199, 200, 201, 202, 203, 204, 205, 206, 207, 208, 209, 210, 211, 212, 213, 214, 215, 216, 217, 218, 219, 220, 221, 222, 223, 224, 225, 226, 227, 228, 229, 230, 231, 232, 233, 234, 235, 236, 237, 238, 239],
      "AcquisitionTime": ["093634.482500", "093635.982500", "093637.482500", "093638.982500", "093640.482500", "093641.982500", "093643.482500", "093644.982500", "093646.482500", "093647.982500", "093649.482500", "093650.982500", "093652.482500", "093653.982500", "093655.482500", "093656.982500", "093658.482500", "093659.982500", "093701.482500", "093702.982500", "093704.482500", "093705.982500", "093707.482500", "093708.982500", "093710.482500", "093711.982500", "093713.482500", "093714.982500", "093716.482500", "093717.982500", "093719.482500", "093720.982500", "093722.482500", "093723.982500", "093725.482500", "093726.982500", "093728.482500", "093729.982500", "093731.482500", "093732.982500", "093734.482500", "093735.982500", "093737.482500", "093738.982500", "093740.482500", "093741.982500", "093743.482500", "093744.982500", "093746.482500", "093747.982500", "093749.482500", "093750.982500", "093752.482500", "093753.982500", "093755.482500", "093756.982500", "093758.482500", "093759.982500", "093801.482500", "093802.982500", "093804.482500", "093805.982500", "093807.482500", "093808.982500", "093810.482500", "093811.982500", "093813.482500", "093814.982500", "093816.482500", "093817.982500", "093819.482500", "093820.982500", "093822.482500", "093823.982500", "093825.482500", "093826.982500", "093828.482500", "093829.982500", "093831.482500", "093832.982500", "093834.482500", "093835.982500", "093837.482500", "093838.982500", "093840.482500", "093841.982500", "093843.482500", "093844.982500", "093846.482500", "093847.982500", "093849.482500", "093850.982500", "093852.482500", "093853.982500", "093855.482500", "093856.982500", "093858.482500", "093859.982500", "093901.482500", "093902.982500", "093904.482500", "093905.982500", "093907.482500", "093908.982500", "093910.482500", "093911.982500", "093913.482500", "093914.982500", "093916.482500", "093917.982500", "093919.482500", "093920.982500", "093922.482500", "093923.982500", "093925.482500", "093926.982500", "093928.482500", "093929.982500", "093931.482500", "093932.982500", "093934.482500", "093935.982500", "093937.482500", "093938.982500", "093940.482500", "093941.982500", "093943.482500", "093944.982500", "093946.482500", "093947.982500", "093949.482500", "093950.982500", "093952.482500", "093953.982500", "093955.482500", "093956.982500", "093958.482500", "093959.982500", "094001.482500", "094002.982500", "094004.482500", "094005.982500", "094007.482500", "094008.982500", "094010.482500", "094011.982500", "094013.482500", "094014.982500", "094016.482500", "094017.982500", "094019.482500", "094020.982500", "094022.482500", "094023.982500", "094025.482500", "094026.982500", "094028.482500", "094029.982500", "094031.482500", "094032.982500", "094034.482500", "094035.982500", "094037.482500", "094038.982500", "094040.482500", "094041.982500", "094043.482500", "094044.982500", "094046.482500", "094047.982500", "094049.482500", "094050.982500", "094052.482500", "094053.982500", "094055.482500", "094056.982500", "094058.482500", "094059.982500", "094101.482500", "094102.982500", "094104.482500", "094105.982500", "094107.482500", "094108.982500", "094110.482500", "094111.982500", "094113.482500", "094114.982500", "094116.482500", "094117.982500", "094119.482500", "094120.982500", "094122.482500", "094123.982500", "094125.482500", "094126.982500", "094128.482500", "094129.982500", "094131.482500", "094132.982500", "094134.482500", "094135.982500", "094137.482500", "094138.982500", "094140.482500", "094141.982500", "094143.482500", "094144.982500", "094146.482500", "094147.982500", "094149.482500", "094150.982500", "094152.482500", "094153.982500", "094155.482500", "094156.982500", "094158.482500", "094159.982500", "094201.482500", "094202.982500", "094204.482500", "094205.982500", "094207.482500", "094208.982500", "094210.482500", "094211.982500", "094213.482500", "094214.982500", "094216.482500", "094217.982500", "094219.482500", "094220.982500", "094222.482500", "094223.982500", "094225.482500", "094226.982500", "094228.482500", "094229.982500", "094231.482500"],
      "ContentTime": ["093722.538000", "093722.542000", "093722.545000", "093722.548000", "093722.551000", "093722.559000", "093722.562000", "093722.565000", "093722.568000", "093722.571000", "093722.574000", "093722.577000", "093722.581000", "093722.584000", "093722.587000", "093722.590000", "093722.593000", "093722.596000", "093722.605000", "093722.608000", "093722.611000", "093722.615000", "093722.618000", "093722.621000", "093722.624000", "093722.627000", "093722.630000", "093722.633000", "093722.637000", "093722.640000", "093722.643000", "093722.646000", "093802.533000", "093802.537000", "093802.540000", "093802.543000", "093802.546000", "093802.553000", "093802.556000", "093802.559000", "093802.562000", "093802.566000", "093802.569000", "093802.575000", "093802.578000", "093802.581000", "093802.585000", "093802.588000", "093802.591000", "093802.594000", "093802.597000", "093802.600000", "093802.603000", "093802.606000", "093802.609000", "093802.612000", "093802.622000", "093802.626000", "093802.629000", "093842.533000", "093842.536000", "093842.540000", "093842.543000", "093842.546000", "093842.550000", "093842.553000", "093842.556000", "093842.559000", "093842.563000", "093842.566000", "093842.569000", "093842.572000", "093842.575000", "093842.578000", "093842.581000", "093842.585000", "093842.588000", "093842.591000", "093842.594000", "093842.597000", "093842.600000", "093842.604000", "093842.607000", "093842.610000", "093842.614000", "093922.533000", "093922.536000", "093922.540000", "093922.543000", "093922.546000", "093922.549000", "093922.552000", "093922.555000", "093922.558000", "093922.561000", "093922.565000", "093922.568000", "093922.571000", "093922.574000", "093922.577000", "093922.580000", "093922.583000", "093922.587000", "093922.590000", "093922.593000", "093922.596000", "093922.599000", "093922.603000", "093922.606000", "093922.609000", "093922.613000", "093922.616000", "094002.541000", "094002.545000", "094002.548000", "094002.551000", "094002.554000", "094002.557000", "094002.560000", "094002.563000", "094002.566000", "094002.570000", "094002.573000", "094002.576000", "094002.579000", "094002.582000", "094002.585000", "094002.588000", "094002.591000", "094002.595000", "094002.598000", "094002.602000", "094002.605000", "094002.608000", "094002.611000", "094002.614000", "094002.625000", "094002.628000", "094002.631000", "094042.533000", "094042.536000", "094042.540000", "094042.543000", "094042.547000", "094042.550000", "094042.553000", "094042.556000", "094042.559000", "094042.562000", "094042.566000", "094042.569000", "094042.572000", "094042.575000", "094042.578000", "094042.581000", "094042.584000", "094042.587000", "094042.591000", "094042.594000", "094042.597000", "094042.600000", "094042.603000", "094042.607000", "094042.610000", "094042.613000", "094122.533000", "094122.536000", "094122.540000", "094122.543000", "094122.546000", "094122.549000", "094122.552000", "094122.555000", "094122.558000", "094122.561000", "094122.565000", "094122.568000", "094122.571000", "094122.574000", "094122.577000", "094122.580000", "094122.584000", "094122.587000", "094122.590000", "094122.593000", "094122.596000", "094122.600000", "094122.603000", "094122.606000", "094122.609000", "094122.612000", "094122.616000", "094202.533000", "094202.537000", "094202.540000", "094202.543000", "094202.546000", "094202.549000", "094202.552000", "094202.555000", "094202.559000", "094202.562000", "094202.565000", "094202.568000", "094202.571000", "094202.574000", "094202.577000", "094202.580000", "094202.583000", "094202.587000", "094202.590000", "094202.608000", "094202.611000", "094202.614000", "094202.617000", "094202.620000", "094202.624000", "094202.627000", "094202.630000", "094232.316000", "094232.320000", "094232.324000", "094232.327000", "094232.330000", "094232.334000", "094232.337000", "094232.341000", "094232.344000", "094232.347000", "094232.350000", "094232.354000", "094232.357000", "094232.361000", "094232.364000", "094232.368000", "094232.372000", "094232.375000", "094232.379000", "094232.382000"],
      "InstanceCreationTime": ["093722.538000", "093722.542000", "093722.545000", "093722.548000", "093722.551000", "093722.559000", "093722.562000", "093722.565000", "093722.568000", "093722.571000", "093722.574000", "093722.577000", "093722.581000", "093722.584000", "093722.587000", "093722.590000", "093722.593000", "093722.596000", "093722.605000", "093722.608000", "093722.611000", "093722.615000", "093722.618000", "093722.621000", "093722.624000", "093722.627000", "093722.630000", "093722.633000", "093722.637000", "093722.640000", "093722.643000", "093722.646000", "093802.533000", "093802.537000", "093802.540000", "093802.543000", "093802.546000", "093802.553000", "093802.556000", "093802.559000", "093802.562000", "093802.566000", "093802.569000", "093802.575000", "093802.578000", "093802.581000", "093802.585000", "093802.588000", "093802.591000", "093802.594000", "093802.597000", "093802.600000", "093802.603000", "093802.606000", "093802.609000", "093802.612000", "093802.622000", "093802.626000", "093802.629000", "093842.533000", "093842.536000", "093842.540000", "093842.543000", "093842.546000", "093842.550000", "093842.553000", "093842.556000", "093842.559000", "093842.563000", "093842.566000", "093842.569000", "093842.572000", "093842.575000", "093842.578000", "093842.581000", "093842.585000", "093842.588000", "093842.591000", "093842.594000", "093842.597000", "093842.600000", "093842.604000", "093842.607000", "093842.610000", "093842.614000", "093922.533000", "093922.536000", "093922.540000", "093922.543000", "093922.546000", "093922.549000", "093922.552000", "093922.555000", "093922.558000", "093922.561000", "093922.565000", "093922.568000", "093922.571000", "093922.574000", "093922.577000", "093922.580000", "093922.583000", "093922.587000", "093922.590000", "093922.593000", "093922.596000", "093922.599000", "093922.603000", "093922.606000", "093922.609000", "093922.613000", "093922.616000", "094002.541000", "094002.545000", "094002.548000", "094002.551000", "094002.554000", "094002.557000", "094002.560000", "094002.563000", "094002.566000", "094002.570000", "094002.573000", "094002.576000", "094002.579000", "094002.582000", "094002.585000", "094002.588000", "094002.591000", "094002.595000", "094002.598000", "094002.602000", "094002.605000", "094002.608000", "094002.611000", "094002.614000", "094002.625000", "094002.628000", "094002.631000", "094042.533000", "094042.536000", "094042.540000", "094042.543000", "094042.547000", "094042.550000", "094042.553000", "094042.556000", "094042.559000", "094042.562000", "094042.566000", "094042.569000", "094042.572000", "094042.575000", "094042.578000", "094042.581000", "094042.584000", "094042.587000", "094042.591000", "094042.594000", "094042.597000", "094042.600000", "094042.603000", "094042.607000", "094042.610000", "094042.613000", "094122.533000", "094122.536000", "094122.540000", "094122.543000", "094122.546000", "094122.549000", "094122.552000", "094122.555000", "094122.558000", "094122.561000", "094122.565000", "094122.568000", "094122.571000", "094122.574000", "094122.577000", "094122.580000", "094122.584000", "094122.587000", "094122.590000", "094122.593000", "094122.596000", "094122.600000", "094122.603000", "094122.606000", "094122.609000", "094122.612000", "094122.616000", "094202.533000", "094202.537000", "094202.540000", "094202.543000", "094202.546000", "094202.549000", "094202.552000", "094202.555000", "094202.559000", "094202.562000", "094202.565000", "094202.568000", "094202.571000", "094202.574000", "094202.577000", "094202.580000", "094202.583000", "094202.587000", "094202.590000", "094202.608000", "094202.611000", "094202.614000", "094202.617000", "094202.620000", "094202.624000", "094202.627000", "094202.630000", "094232.316000", "094232.320000", "094232.324000", "094232.327000", "094232.330000", "094232.334000", "094232.337000", "094232.341000", "094232.344000", "094232.347000", "094232.350000", "094232.354000", "094232.357000", "094232.361000", "094232.364000", "094232.368000", "094232.372000", "094232.375000", "094232.379000", "094232.382000"],
      "InstanceNumber": [1, 2, 3, 4, 5, 6, 7, 8, 9, 10, 11, 12, 13, 14, 15, 16, 17, 18, 19, 20, 21, 22, 23, 24, 25, 26, 27, 28, 29, 30, 31, 32, 33, 34, 35, 36, 37, 38, 39, 40, 41, 42, 43, 44, 45, 46, 47, 48, 49, 50, 51, 52, 53, 54, 55, 56, 57, 58, 59, 60, 61, 62, 63, 64, 65, 66, 67, 68, 69, 70, 71, 72, 73, 74, 75, 76, 77, 78, 79, 80, 81, 82, 83, 84, 85, 86, 87, 88, 89, 90, 91, 92, 93, 94, 95, 96, 97, 98, 99, 100, 101, 102, 103, 104, 105, 106, 107, 108, 109, 110, 111, 112, 113, 114, 115, 116, 117, 118, 119, 120, 121, 122, 123, 124, 125, 126, 127, 128, 129, 130, 131, 132, 133, 134, 135, 136, 137, 138, 139, 140, 141, 142, 143, 144, 145, 146, 147, 148, 149, 150, 151, 152, 153, 154, 155, 156, 157, 158, 159, 160, 161, 162, 163, 164, 165, 166, 167, 168, 169, 170, 171, 172, 173, 174, 175, 176, 177, 178, 179, 180, 181, 182, 183, 184, 185, 186, 187, 188, 189, 190, 191, 192, 193, 194, 195, 196, 197, 198, 199, 200, 201, 202, 203, 204, 205, 206, 207, 208, 209, 210, 211, 212, 213, 214, 215, 216, 217, 218, 219, 220, 221, 222, 223, 224, 225, 226, 227, 228, 229, 230, 231, 232, 233, 234, 235, 236, 237, 238, 239],
      "LargestImagePixelValue": [3227, 3205, 3171, 3132, 3087, 3057, 3093, 3121, 3077, 3100, 3019, 3107, 3093, 3046, 3107, 3087, 3076, 3053, 3122, 3073, 3068, 3081, 3107, 3053, 3067, 3079, 3089, 3069, 3064, 3042, 3060, 3089, 3020, 3068, 3019, 3117, 3010, 3124, 3032, 3071, 3016, 3086, 3031, 3095, 3020, 3062, 3040, 3031, 3040, 3076, 3023, 3044, 3094, 3102, 3044, 3047, 3091, 3068, 3065, 3087, 3072, 3081, 3106, 3095, 3072, 3045, 3035, 3106, 3049, 3080, 3060, 3106, 3060, 3104, 3066, 3083, 3044, 3113, 3092, 3087, 3050, 3101, 3070, 3067, 3079, 3085, 3067, 3095, 3072, 3099, 3024, 3067, 3037, 3038, 3023, 3088, 3022, 3046, 3030, 3067, 2998, 3044, 3006, 3092, 2981, 3075, 3021, 3078, 3020, 3072, 3039, 3067, 2995, 3041, 3027, 3033, 3016, 3025, 3038, 3013, 3100, 3009, 3046, 3042, 3019, 3066, 3011, 3082, 3066, 3014, 3000, 3041, 3068, 3009, 3032, 3029, 3085, 3047, 3048, 2986, 3020, 3049, 3068, 3000, 3029, 3019, 3052, 2963, 3007, 2995, 2998, 2995, 2999, 3006, 2923, 3013, 2963, 2993, 2961, 3007, 2956, 2981, 3016, 2987, 2965, 2988, 2990, 2969, 2991, 2997, 2951, 2987, 3014, 3018, 3078, 3158, 3093, 3118, 3066, 3053, 3057, 3067, 3089, 3005, 3055, 3090, 3083, 3082, 3037, 3073, 3008, 3009, 2987, 3012, 2982, 3017, 3007, 3031, 3003, 2969, 3006, 3016, 3017, 2945, 3016, 2952, 2964, 2964, 3036, 2969, 2982, 3024, 3003, 2988, 3001, 3038, 2961, 3003, 2992, 3007, 3006, 3027, 3005, 2948, 2988, 2994, 3062, 2991, 3010, 3022, 3054, 3002, 3044, 3023, 3084, 3093, 3006, 3064, 3080],
      "WindowCenter": [731.0, 730.0, 730.0, 730.0, 730.0, 730.0, 731.0, 731.0, 731.0, 732.0, 732.0, 732.0, 733.0, 732.0, 732.0, 733.0, 733.0, 732.0, 732.0, 733.0, 733.0, 733.0, 733.0, 734.0, 734.0, 734.0, 734.0, 734.0, 733.0, 733.0, 733.0, 733.0, 733.0, 733.0, 732.0, 733.0, 733.0, 733.0, 733.0, 734.0, 734.0, 733.0, 733.0, 734.0, 733.0, 733.0, 732.0, 733.0, 733.0, 733.0, 733.0, 734.0, 734.0, 733.0, 733.0, 733.0, 733.0, 732.0, 733.0, 733.0, 734.0, 735.0, 735.0, 734.0, 733.0, 733.0, 732.0, 733.0, 732.0, 734.0, 733.0, 734.0, 733.0, 734.0, 733.0, 732.0, 732.0, 733.0, 733.0, 732.0, 732.0, 733.0, 732.0, 733.0, 732.0, 732.0, 732.0, 732.0, 733.0, 733.0, 733.0, 732.0, 732.0, 732.0, 732.0, 732.0, 732.0, 732.0, 733.0, 732.0, 732.0, 733.0, 733.0, 733.0, 732.0, 733.0, 733.0, 732.0, 733.0, 733.0, 732.0, 731.0, 731.0, 731.0, 731.0, 731.0, 731.0, 732.0, 731.0, 731.0, 731.0, 730.0, 731.0, 731.0, 731.0, 731.0, 731.0, 731.0, 731.0, 731.0, 732.0, 731.0, 732.0, 732.0, 732.0, 733.0, 733.0, 732.0, 732.0, 732.0, 732.0, 733.0, 733.0, 733.0, 732.0, 733.0, 733.0, 732.0, 731.0, 732.0, 732.0, 732.0, 732.0, 732.0, 732.0, 732.0, 732.0, 732.0, 732.0, 732.0, 732.0, 732.0, 732.0, 732.0, 732.0, 732.0, 733.0, 732.0, 733.0, 732.0, 732.0, 732.0, 732.0, 731.0, 735.0, 736.0, 735.0, 734.0, 732.0, 732.0, 732.0, 732.0, 732.0, 732.0, 733.0, 733.0, 734.0, 734.0, 734.0, 733.0, 732.0, 732.0, 732.0, 732.0, 732.0, 732.0, 732.0, 732.0, 732.0, 732.0, 732.0, 732.0, 732.0, 733.0, 733.0, 733.0, 733.0, 733.0, 733.0, 732.0, 733.0, 733.0, 733.0, 732.0, 732.0, 732.0, 731.0, 731.0, 731.0, 733.0, 732.0, 731.0, 731.0, 731.0, 731.0, 732.0, 733.0, 733.0, 733.0, 733.0, 733.0, 733.0, 733.0, 733.0, 733.0, 733.0, 734.0, 734.0, 733.0],
      "WindowWidth": [1594.0, 1590.0, 1590.0, 1589.0, 1589.0, 1589.0, 1591.0, 1593.0, 1593.0, 1594.0, 1594.0, 1595.0, 1597.0, 1595.0, 1595.0, 1596.0, 1596.0, 1596.0, 1596.0, 1597.0, 1597.0, 1598.0, 1599.0, 1601.0, 1601.0, 1601.0, 1600.0, 1599.0, 1598.0, 1597.0, 1596.0, 1599.0, 1598.0, 1597.0, 1596.0, 1599.0, 1598.0, 1599.0, 1599.0, 1600.0, 1600.0, 1599.0, 1598.0, 1600.0, 1599.0, 1597.0, 1596.0, 1597.0, 1599.0, 1599.0, 1600.0, 1600.0, 1602.0, 1599.0, 1599.0, 1598.0, 1597.0, 1596.0, 1599.0, 1600.0, 1601.0, 1604.0, 1605.0, 1601.0, 1598.0, 1598.0, 1597.0, 1598.0, 1596.0, 1600.0, 1599.0, 1600.0, 1599.0, 1600.0, 1597.0, 1596.0, 1596.0, 1598.0, 1597.0, 1596.0, 1596.0, 1597.0, 1596.0, 1597.0, 1596.0, 1597.0, 1596.0, 1597.0, 1597.0, 1599.0, 1597.0, 1596.0, 1596.0, 1595.0, 1594.0, 1594.0, 1596.0, 1596.0, 1597.0, 1596.0, 1597.0, 1597.0, 1597.0, 1597.0, 1596.0, 1597.0, 1597.0, 1597.0, 1598.0, 1597.0, 1595.0, 1593.0, 1594.0, 1594.0, 1592.0, 1591.0, 1594.0, 1594.0, 1593.0, 1592.0, 1593.0, 1591.0, 1592.0, 1592.0, 1592.0, 1593.0, 1592.0, 1593.0, 1594.0, 1593.0, 1594.0, 1594.0, 1596.0, 1595.0, 1597.0, 1597.0, 1598.0, 1596.0, 1595.0, 1595.0, 1595.0, 1599.0, 1599.0, 1597.0, 1596.0, 1598.0, 1597.0, 1594.0, 1594.0, 1596.0, 1596.0, 1596.0, 1595.0, 1594.0, 1595.0, 1596.0, 1595.0, 1596.0, 1597.0, 1596.0, 1596.0, 1596.0, 1597.0, 1595.0, 1596.0, 1596.0, 1597.0, 1597.0, 1597.0, 1596.0, 1596.0, 1594.0, 1596.0, 1594.0, 1605.0, 1606.0, 1605.0, 1600.0, 1595.0, 1596.0, 1595.0, 1595.0, 1596.0, 1597.0, 1598.0, 1599.0, 1600.0, 1600.0, 1600.0, 1598.0, 1596.0, 1595.0, 1596.0, 1595.0, 1595.0, 1596.0, 1596.0, 1597.0, 1596.0, 1596.0, 1596.0, 1596.0, 1596.0, 1599.0, 1599.0, 1598.0, 1598.0, 1599.0, 1598.0, 1596.0, 1598.0, 1597.0, 1597.0, 1596.0, 1595.0, 1596.0, 1593.0, 1593.0, 1593.0, 1599.0, 1595.0, 1593.0, 1592.0, 1593.0, 1594.0, 1595.0, 1597.0, 1598.0, 1598.0, 1598.0, 1598.0, 1598.0, 1599.0, 1598.0, 1597.0, 1598.0, 1600.0, 1600.0, 1598.0]
    },
    "slices": {}
  }
}