{
  "AcquisitionMatrixPE": 72,
  "AcquisitionNumber": 1,
  "AcquisitionTime": "09:24:35.242500",
  "BandwidthPerPixelPhaseEncode": 17.943,
  "BaseResolution": 96,
  "BodyPartExamined": "BRAIN",
  "CoilCombinationMethod": "Sum of Squares",
  "ConsistencyInfo": "N4_VE11C_LATEST_20160120",
  "ConversionSoftware": "dcm2niix",
  "ConversionSoftwareVersion": "v1.0.20211006",
  "DerivedVendorReportedEchoSpacing": 0.000552897,
  "DeviceSerialNumber": "166011",
  "EchoTime": 0.03,
  "EchoTrainLength": 58,
  "EffectiveEchoSpacing": 0.000580542,
  "FlipAngle": 62,
  "ImageOrientationPatientDICOM": [0.999642, -0.0262644, 0.00502781, 0.0267004, 0.990705, -0.133385],
  "ImageType": [
    "ORIGINAL",
    "PRIMARY",
    "M",
    "ND",
    "MOSAIC"
],
  "ImagingFrequency": 123.259,
  "InPlanePhaseEncodingDirectionDICOM": "COL",
  "InstitutionAddress": "West 130th Street 610,NY,NYC,US,10025",
  "InstitutionName": "MBBI",
  "MRAcquisitionType": "2D",
  "MagneticFieldStrength": 3,
  "Manufacturer": "Siemens",
  "ManufacturersModelName": "Prisma",
  "Modality": "MR",
  "MultibandAccelerationFactor": 3,
  "PartialFourier": 0.75,
  "PatientPosition": "HFS",
  "PercentPhaseFOV": 100,
  "PercentSampling": 75,
  "PhaseEncodingDirection": "j-",
  "PhaseEncodingSteps": 58,
  "PhaseOversampling": 0.05,
  "PhaseResolution": 0.75,
  "PixelBandwidth": 2265,
  "ProcedureStepDescription": "White^Word_recognition",
  "ProtocolName": "func_vwfate_run15",
  "PulseSequenceDetails": "%SiemensSeq%\\ep2d_bold",
  "ReceiveCoilActiveElements": "HC1-7",
  "ReceiveCoilName": "HeadNeck_64",
  "ReconMatrixPE": 96,
  "RefLinesPE": 40,
  "RepetitionTime": 1.5,
  "SAR": 0.0468878,
  "ScanOptions": "PFP\\FS",
  "ScanningSequence": "EP",
  "SequenceName": "*epfid2d1_72",
  "SequenceVariant": "SK\\OSP",
  "SeriesDescription": "func_vwfate_run15",
  "SeriesNumber": 10,
  "ShimSetting": [-1181, -1393, 679, 701, -125, -255, -28, -68],
  "SliceThickness": 2,
  "SliceTiming": [1.075, 0, 0.74, 0.0675, 0.8075, 0.135, 0.875, 0.2, 0.94, 0.2675, 1.0075, 0.4025, 1.1425, 0.47, 1.21, 0.5375, 1.2775, 0.605, 1.345, 0.6725, 1.4125, 0.335, 1.075, 0, 0.74, 0.0675, 0.8075, 0.135, 0.875, 0.2, 0.94, 0.2675, 1.0075, 0.4025, 1.1425, 0.47, 1.21, 0.5375, 1.2775, 0.605, 1.345, 0.6725, 1.4125, 0.335, 1.075, 0, 0.74, 0.0675, 0.8075, 0.135, 0.875, 0.2, 0.94, 0.2675, 1.0075, 0.4025, 1.1425, 0.47, 1.21, 0.5375, 1.2775, 0.605, 1.345, 0.6725, 1.4125, 0.335],
  "SoftwareVersions": "syngo MR E11",
  "SpacingBetweenSlices": 2,
  "StationName": "AWP166011",
  "TaskName": "vwfate",
  "TotalReadoutTime": 0.0551515,
  "TxRefAmp": 214.866,
  "dcmmeta_affine": [
    [-1.9992847442626953, 0.05340079963207245, 0.002955583855509758, 96.3221206665039],
    [0.052528709173202515, 1.9814090728759766, -0.26694390177726746, -69.8557357788086],
    [0.010055619291961193, 0.2667708098888397, 1.9821029901504517, -64.31785583496094],
    [0.0, 0.0, 0.0, 1.0]
],
  "dcmmeta_reorient_transform": [
    [0.0, -1.0, 0.0, 95.0],
    [1.0, 0.0, 0.0, 0.0],
    [0.0, 0.0, 1.0, 0.0],
    [0.0, 0.0, 0.0, 1.0]
],
  "dcmmeta_shape": [96, 96, 66, 164],
  "dcmmeta_slice_dim": 2,
  "dcmmeta_version": 0.6,
  "global": {
    "const": {
      "AcquisitionMatrix": [96, 0, 0, 72],
      "AngioFlag": "N",
      "BitsAllocated": 16,
      "BitsStored": 12,
      "BodyPartExamined": "BRAIN",
      "Columns": 864,
      "EchoNumbers": 1,
      "EchoTime": 30.0,
      "EchoTrainLength": 58,
      "FlipAngle": 62.0,
      "HighBit": 11,
      "ImageOrientationPatient": [0.99964238845779, -0.0262643547267, 0.00502780958342, 0.02670039942565, 0.99070450752244, -0.1333854094166],
      "ImagePositionPatient": [-889.62645834692, -859.06815641069, 59.604011147204],
      "ImageType": [
        "ORIGINAL",
        "PRIMARY",
        "M",
        "ND",
        "MOSAIC"
],
      "ImagedNucleus": "1H",
      "ImagingFrequency": 123.259278,
      "InPlanePhaseEncodingDirection": "COL",
      "MRAcquisitionType": "2D",
      "MagneticFieldStrength": 3.0,
      "Manufacturer": "SIEMENS",
      "ManufacturerModelName": "Prisma",
      "Modality": "MR",
      "NumberOfAverages": 1.0,
      "NumberOfPhaseEncodingSteps": 58,
      "PercentPhaseFieldOfView": 100.0,
      "PercentSampling": 75.0,
      "PerformedProcedureStepStartTime": "084413.393000",
      "PhotometricInterpretation": "MONOCHROME2",
      "PixelBandwidth": 2265.0,
      "PixelRepresentation": 0,
      "PixelSpacing": [2.0, 2.0],
      "ProtocolName": "func_vwfate_run15",
      "RepetitionTime": 1500.0,
      "Rows": 864,
      "SAR": 0.04688783508245,
      "SamplesPerPixel": 1,
      "ScanOptions": [
        "PFP",
        "FS"
],
      "ScanningSequence": "EP",
      "SequenceName": "*epfid2d1_72",
      "SequenceVariant": [
        "SK",
        "OSP"
],
      "SeriesDescription": "func_vwfate_run15",
      "SeriesNumber": 10,
      "SeriesTime": "092522.607000",
      "SliceLocation": -54.276178490166,
      "SliceThickness": 2.0,
      "SmallestImagePixelValue": 0,
      "SoftwareVersions": "syngo MR E11",
      "SpacingBetweenSlices": 2.0000000460392,
      "SpecificCharacterSet": "ISO_IR 100",
      "StudyID": "3",
      "StudyTime": "084413.208000",
      "TransmitCoilName": "Body",
      "VariableFlipAngleFlag": "N",
      "WindowCenterWidthExplanation": "Algo1",
      "dBdt": 0.0},
    "slices": {}
  },
  "time": {
    "samples": {
      "AcquisitionNumber": [1, 2, 3, 4, 5, 6, 7, 8, 9, 10, 11, 12, 13, 14, 15, 16, 17, 18, 19, 20, 21, 22, 23, 24, 25, 26, 27, 28, 29, 30, 31, 32, 33, 34, 35, 36, 37, 38, 39, 40, 41, 42, 43, 44, 45, 46, 47, 48, 49, 50, 51, 52, 53, 54, 55, 56, 57, 58, 59, 60, 61, 62, 63, 64, 65, 66, 67, 68, 69, 70, 71, 72, 73, 74, 75, 76, 77, 78, 79, 80, 81, 82, 83, 84, 85, 86, 87, 88, 89, 90, 91, 92, 93, 94, 95, 96, 97, 98, 99, 100, 101, 102, 103, 104, 105, 106, 107, 108, 109, 110, 111, 112, 113, 114, 115, 116, 117, 118, 119, 120, 121, 122, 123, 124, 125, 126, 127, 128, 129, 130, 131, 132, 133, 134, 135, 136, 137, 138, 139, 140, 141, 142, 143, 144, 145, 146, 147, 148, 149, 150, 151, 152, 153, 154, 155, 156, 157, 158, 159, 160, 161, 162, 163, 164],
      "AcquisitionTime": ["092435.242500", "092436.742500", "092438.242500", "092439.742500", "092441.242500", "092442.742500", "092444.242500", "092445.742500", "092447.242500", "092448.742500", "092450.242500", "092451.742500", "092453.242500", "092454.742500", "092456.242500", "092457.742500", "092459.242500", "092500.742500", "092502.242500", "092503.742500", "092505.242500", "092506.742500", "092508.242500", "092509.742500", "092511.242500", "092512.742500", "092514.242500", "092515.742500", "092517.242500", "092518.742500", "092520.242500", "092521.742500", "092523.242500", "092524.742500", "092526.242500", "092527.742500", "092529.242500", "092530.742500", "092532.242500", "092533.742500", "092535.242500", "092536.742500", "092538.242500", "092539.742500", "092541.242500", "092542.742500", "092544.242500", "092545.742500", "092547.242500", "092548.742500", "092550.242500", "092551.742500", "092553.242500", "092554.742500", "092556.242500", "092557.742500", "092559.242500", "092600.742500", "092602.242500", "092603.742500", "092605.242500", "092606.742500", "092608.242500", "092609.742500", "092611.242500", "092612.742500", "092614.242500", "092615.742500", "092617.242500", "092618.742500", "092620.242500", "092621.742500", "092623.242500", "092624.742500", "092626.242500", "092627.742500", "092629.242500", "092630.742500", "092632.242500", "092633.742500", "092635.242500", "092636.742500", "092638.242500", "092639.742500", "092641.242500", "092642.742500", "092644.242500", "092645.742500", "092647.242500", "092648.742500", "092650.242500", "092651.742500", "092653.242500", "092654.742500", "092656.242500", "092657.742500", "092659.242500", "092700.742500", "092702.242500", "092703.742500", "092705.242500", "092706.742500", "092708.242500", "092709.742500", "092711.242500", "092712.742500", "092714.242500", "092715.742500", "092717.242500", "092718.742500", "092720.242500", "092721.742500", "092723.242500", "092724.742500", "092726.242500", "092727.742500", "092729.242500", "092730.742500", "092732.242500", "092733.742500", "092735.242500", "092736.742500", "092738.242500", "092739.742500", "092741.242500", "092742.742500", "092744.242500", "092745.742500", "092747.242500", "092748.742500", "092750.242500", "092751.742500", "092753.242500", "092754.742500", "092756.242500", "092757.742500", "092759.242500", "092800.742500", "092802.242500", "092803.742500", "092805.242500", "092806.742500", "092808.242500", "092809.742500", "092811.242500", "092812.742500", "092814.242500", "092815.742500", "092817.242500", "092818.742500", "092820.242500", "092821.742500", "092823.242500", "092824.742500", "092826.242500", "092827.742500", "092829.242500", "092830.742500", "092832.242500", "092833.742500", "092835.242500", "092836.742500", "092838.242500", "092839.742500"],
      "ContentTime": ["092522.611000", "092522.615000", "092522.624000", "092522.627000", "092522.630000", "092522.633000", "092522.636000", "092522.639000", "092522.642000", "092522.645000", "092522.648000", "092522.652000", "092522.655000", "092522.658000", "092522.661000", "092522.664000", "092522.667000", "092522.676000", "092522.680000", "092522.683000", "092522.686000", "092522.689000", "092522.692000", "092522.696000", "092522.699000", "092522.702000", "092522.705000", "092522.708000", "092522.711000", "092522.714000", "092522.717000", "092602.605000", "092602.609000", "092602.612000", "092602.615000", "092602.618000", "092602.621000", "092602.624000", "092602.627000", "092602.630000", "092602.633000", "092602.636000", "092602.639000", "092602.645000", "092602.648000", "092602.651000", "092602.654000", "092602.658000", "092602.661000", "092602.664000", "092602.667000", "092602.670000", "092602.674000", "092602.677000", "092602.680000", "092602.683000", "092602.686000", "092602.689000", "092642.606000", "092642.609000", "092642.613000", "092642.616000", "092642.619000", "092642.622000", "092642.625000", "092642.628000", "092642.631000", "092642.634000", "092642.637000", "092642.640000", "092642.643000", "092642.647000", "092642.650000", "092642.655000", "092642.659000", "092642.662000", "092642.665000", "092642.668000", "092642.672000", "092642.675000", "092642.678000", "092642.681000", "092642.684000", "092642.687000", "092722.606000", "092722.609000", "092722.613000", "092722.616000", "092722.619000", "092722.622000", "092722.625000", "092722.628000", "092722.631000", "092722.634000", "092722.637000", "092722.640000", "092722.643000", "092722.646000", "092722.649000", "092722.653000", "092722.656000", "092722.659000", "092722.662000", "092722.665000", "092722.668000", "092722.671000", "092722.674000", "092722.677000", "092722.680000", "092722.683000", "092722.686000", "092802.606000", "092802.610000", "092802.613000", "092802.616000", "092802.619000", "092802.622000", "092802.625000", "092802.628000", "092802.631000", "092802.634000", "092802.637000", "092802.640000", "092802.643000", "092802.647000", "092802.650000", "092802.653000", "092802.656000", "092802.659000", "092802.662000", "092802.665000", "092802.668000", "092802.671000", "092802.674000", "092802.677000", "092802.680000", "092802.684000", "092802.687000", "092841.148000", "092841.152000", "092841.155000", "092841.158000", "092841.162000", "092841.165000", "092841.168000", "092841.172000", "092841.175000", "092841.178000", "092841.182000", "092841.185000", "092841.189000", "092841.192000", "092841.195000", "092841.199000", "092841.202000", "092841.205000", "092841.208000", "092841.211000", "092841.214000", "092841.217000", "092841.221000", "092841.224000", "092841.227000", "092841.230000"],
      "InstanceCreationTime": ["092522.611000", "092522.615000", "092522.624000", "092522.627000", "092522.630000", "092522.633000", "092522.636000", "092522.639000", "092522.642000", "092522.645000", "092522.648000", "092522.652000", "092522.655000", "092522.658000", "092522.661000", "092522.664000", "092522.667000", "092522.676000", "092522.680000", "092522.683000", "092522.686000", "092522.689000", "092522.692000", "092522.696000", "092522.699000", "092522.702000", "092522.705000", "092522.708000", "092522.711000", "092522.714000", "092522.717000", "092602.605000", "092602.609000", "092602.612000", "092602.615000", "092602.618000", "092602.621000", "092602.624000", "092602.627000", "092602.630000", "092602.633000", "092602.636000", "092602.639000", "092602.645000", "092602.648000", "092602.651000", "092602.654000", "092602.658000", "092602.661000", "092602.664000", "092602.667000", "092602.670000", "092602.674000", "092602.677000", "092602.680000", "092602.683000", "092602.686000", "092602.689000", "092642.606000", "092642.609000", "092642.613000", "092642.616000", "092642.619000", "092642.622000", "092642.625000", "092642.628000", "092642.631000", "092642.634000", "092642.637000", "092642.640000", "092642.643000", "092642.647000", "092642.650000", "092642.655000", "092642.659000", "092642.662000", "092642.665000", "092642.668000", "092642.672000", "092642.675000", "092642.678000", "092642.681000", "092642.684000", "092642.687000", "092722.606000", "092722.609000", "092722.613000", "092722.616000", "092722.619000", "092722.622000", "092722.625000", "092722.628000", "092722.631000", "092722.634000", "092722.637000", "092722.640000", "092722.643000", "092722.646000", "092722.649000", "092722.653000", "092722.656000", "092722.659000", "092722.662000", "092722.665000", "092722.668000", "092722.671000", "092722.674000", "092722.677000", "092722.680000", "092722.683000", "092722.686000", "092802.606000", "092802.610000", "092802.613000", "092802.616000", "092802.619000", "092802.622000", "092802.625000", "092802.628000", "092802.631000", "092802.634000", "092802.637000", "092802.640000", "092802.643000", "092802.647000", "092802.650000", "092802.653000", "092802.656000", "092802.659000", "092802.662000", "092802.665000", "092802.668000", "092802.671000", "092802.674000", "092802.677000", "092802.680000", "092802.684000", "092802.687000", "092841.148000", "092841.152000", "092841.155000", "092841.158000", "092841.162000", "092841.165000", "092841.168000", "092841.172000", "092841.175000", "092841.178000", "092841.182000", "092841.185000", "092841.189000", "092841.192000", "092841.195000", "092841.199000", "092841.202000", "092841.205000", "092841.208000", "092841.211000", "092841.214000", "092841.217000", "092841.221000", "092841.224000", "092841.227000", "092841.230000"],
      "InstanceNumber": [1, 2, 3, 4, 5, 6, 7, 8, 9, 10, 11, 12, 13, 14, 15, 16, 17, 18, 19, 20, 21, 22, 23, 24, 25, 26, 27, 28, 29, 30, 31, 32, 33, 34, 35, 36, 37, 38, 39, 40, 41, 42, 43, 44, 45, 46, 47, 48, 49, 50, 51, 52, 53, 54, 55, 56, 57, 58, 59, 60, 61, 62, 63, 64, 65, 66, 67, 68, 69, 70, 71, 72, 73, 74, 75, 76, 77, 78, 79, 80, 81, 82, 83, 84, 85, 86, 87, 88, 89, 90, 91, 92, 93, 94, 95, 96, 97, 98, 99, 100, 101, 102, 103, 104, 105, 106, 107, 108, 109, 110, 111, 112, 113, 114, 115, 116, 117, 118, 119, 120, 121, 122, 123, 124, 125, 126, 127, 128, 129, 130, 131, 132, 133, 134, 135, 136, 137, 138, 139, 140, 141, 142, 143, 144, 145, 146, 147, 148, 149, 150, 151, 152, 153, 154, 155, 156, 157, 158, 159, 160, 161, 162, 163, 164],
      "LargestImagePixelValue": [3145, 3071, 3082, 3098, 3083, 3033, 3050, 3077, 3063, 3061, 3089, 3002, 3064, 3012, 3073, 3023, 3066, 3021, 3095, 2997, 3057, 3042, 3051, 3005, 3053, 3055, 3066, 3054, 3049, 3138, 3028, 3093, 3069, 3066, 3044, 3097, 3026, 3105, 3064, 3072, 3053, 3083, 3113, 3046, 3093, 3053, 3079, 3078, 3118, 3061, 3125, 3076, 3095, 3064, 3103, 3141, 3053, 3135, 3089, 3118, 3101, 3083, 3170, 3052, 3161, 3080, 3153, 3044, 3161, 3100, 3113, 3086, 3129, 3146, 3076, 3172, 3099, 3127, 3125, 3104, 3118, 3131, 3176, 3136, 3119, 3083, 3152, 3094, 3111, 3131, 3129, 3144, 3095, 3167, 3100, 3141, 3128, 3112, 3106, 3161, 3039, 3143, 3073, 3144, 3066, 3108, 3083, 3083, 3082, 3072, 3138, 3060, 3142, 3097, 3156, 3102, 3175, 3082, 3141, 3102, 3121, 3108, 3126, 3140, 3130, 3151, 3086, 3185, 3118, 3131, 3102, 3165, 3149, 3159, 3131, 3146, 3148, 3119, 3143, 3096, 3127, 3087, 3116, 3121, 3105, 3095, 3107, 3158, 3109, 3153, 3095, 3149, 3097, 3166, 3120, 3143, 3069, 3157, 3095, 3086, 3095, 3109, 3144, 3115],
      "WindowCenter": [735.0, 735.0, 734.0, 733.0, 733.0, 733.0, 733.0, 733.0, 733.0, 734.0, 733.0, 733.0, 733.0, 732.0, 733.0, 732.0, 732.0, 732.0, 732.0, 731.0, 731.0, 731.0, 731.0, 731.0, 732.0, 731.0, 732.0, 732.0, 731.0, 732.0, 731.0, 732.0, 732.0, 732.0, 732.0, 731.0, 731.0, 731.0, 732.0, 731.0, 732.0, 732.0, 733.0, 732.0, 732.0, 732.0, 732.0, 732.0, 732.0, 732.0, 732.0, 732.0, 732.0, 732.0, 731.0, 732.0, 732.0, 732.0, 732.0, 732.0, 732.0, 732.0, 733.0, 732.0, 732.0, 732.0, 732.0, 731.0, 732.0, 731.0, 731.0, 731.0, 731.0, 732.0, 732.0, 733.0, 733.0, 733.0, 732.0, 732.0, 732.0, 732.0, 733.0, 733.0, 732.0, 733.0, 734.0, 731.0, 731.0, 731.0, 731.0, 732.0, 732.0, 732.0, 732.0, 732.0, 732.0, 732.0, 732.0, 732.0, 732.0, 732.0, 732.0, 733.0, 733.0, 732.0, 732.0, 732.0, 732.0, 732.0, 732.0, 732.0, 732.0, 732.0, 732.0, 733.0, 732.0, 732.0, 732.0, 732.0, 731.0, 730.0, 731.0, 730.0, 731.0, 731.0, 731.0, 732.0, 731.0, 730.0, 730.0, 730.0, 730.0, 730.0, 730.0, 730.0, 730.0, 730.0, 730.0, 730.0, 730.0, 730.0, 730.0, 730.0, 730.0, 731.0, 731.0, 731.0, 731.0, 731.0, 731.0, 730.0, 730.0, 730.0, 730.0, 730.0, 730.0, 730.0, 730.0, 730.0, 730.0, 730.0, 730.0, 731.0],
      "WindowWidth": [1607.0, 1604.0, 1602.0, 1600.0, 1598.0, 1597.0, 1599.0, 1599.0, 1599.0, 1600.0, 1598.0, 1598.0, 1598.0, 1596.0, 1597.0, 1595.0, 1595.0, 1596.0, 1595.0, 1592.0, 1593.0, 1593.0, 1593.0, 1594.0, 1594.0, 1594.0, 1595.0, 1595.0, 1594.0, 1596.0, 1594.0, 1595.0, 1595.0, 1595.0, 1594.0, 1594.0, 1592.0, 1594.0, 1594.0, 1594.0, 1596.0, 1595.0, 1597.0, 1596.0, 1597.0, 1596.0, 1596.0, 1595.0, 1595.0, 1595.0, 1596.0, 1596.0, 1596.0, 1595.0, 1594.0, 1596.0, 1595.0, 1597.0, 1596.0, 1596.0, 1596.0, 1596.0, 1598.0, 1596.0, 1597.0, 1595.0, 1596.0, 1594.0, 1595.0, 1592.0, 1593.0, 1593.0, 1594.0, 1595.0, 1597.0, 1600.0, 1599.0, 1598.0, 1596.0, 1596.0, 1597.0, 1596.0, 1597.0, 1598.0, 1596.0, 1599.0, 1600.0, 1592.0, 1591.0, 1591.0, 1593.0, 1595.0, 1595.0, 1596.0, 1595.0, 1596.0, 1596.0, 1595.0, 1595.0, 1595.0, 1595.0, 1596.0, 1596.0, 1597.0, 1597.0, 1596.0, 1594.0, 1594.0, 1594.0, 1594.0, 1595.0, 1594.0, 1595.0, 1595.0, 1595.0, 1597.0, 1596.0, 1595.0, 1595.0, 1594.0, 1593.0, 1590.0, 1591.0, 1591.0, 1591.0, 1592.0, 1593.0, 1594.0, 1592.0, 1590.0, 1590.0, 1590.0, 1590.0, 1589.0, 1589.0, 1588.0, 1588.0, 1589.0, 1590.0, 1590.0, 1590.0, 1590.0, 1589.0, 1589.0, 1589.0, 1591.0, 1592.0, 1593.0, 1592.0, 1592.0, 1592.0, 1591.0, 1590.0, 1590.0, 1589.0, 1590.0, 1589.0, 1590.0, 1590.0, 1590.0, 1591.0, 1591.0, 1591.0, 1591.0]
    },
    "slices": {}
  }
}