{
  "AcquisitionMatrixPE": 72,
  "AcquisitionNumber": 1,
  "AcquisitionTime": "13:26:15.522500",
  "BandwidthPerPixelPhaseEncode": 17.943,
  "BaseResolution": 96,
  "BodyPartExamined": "BRAIN",
  "CoilCombinationMethod": "Sum of Squares",
  "ConsistencyInfo": "N4_VE11C_LATEST_20160120",
  "ConversionSoftware": "dcm2niix",
  "ConversionSoftwareVersion": "v1.0.20211006",
  "DerivedVendorReportedEchoSpacing": 0.000552897,
  "DeviceSerialNumber": "166011",
  "EchoTime": 0.03,
  "EchoTrainLength": 58,
  "EffectiveEchoSpacing": 0.000580542,
  "FlipAngle": 62,
  "ImageOrientationPatientDICOM": [0.998537, 0.019561, 0.0504107, -0.0116771, 0.988283, -0.152185],
  "ImageType": [
    "ORIGINAL",
    "PRIMARY",
    "M",
    "ND",
    "MOSAIC"
],
  "ImagingFrequency": 123.26,
  "InPlanePhaseEncodingDirectionDICOM": "COL",
  "InstitutionAddress": "West 130th Street 610,NY,NYC,US,10025",
  "InstitutionName": "MBBI",
  "MRAcquisitionType": "2D",
  "MagneticFieldStrength": 3,
  "Manufacturer": "Siemens",
  "ManufacturersModelName": "Prisma",
  "Modality": "MR",
  "MultibandAccelerationFactor": 3,
  "PartialFourier": 0.75,
  "PatientPosition": "HFS",
  "PercentPhaseFOV": 100,
  "PercentSampling": 75,
  "PhaseEncodingDirection": "j-",
  "PhaseEncodingSteps": 58,
  "PhaseOversampling": 0.05,
  "PhaseResolution": 0.75,
  "PixelBandwidth": 2265,
  "ProcedureStepDescription": "White^Word_recognition",
  "ProtocolName": "func_vwfate_run1",
  "PulseSequenceDetails": "%SiemensSeq%\\ep2d_bold",
  "ReceiveCoilActiveElements": "HC1-7",
  "ReceiveCoilName": "HeadNeck_64",
  "ReconMatrixPE": 96,
  "RefLinesPE": 40,
  "RepetitionTime": 1.5,
  "SAR": 0.0487858,
  "ScanOptions": "PFP\\FS",
  "ScanningSequence": "EP",
  "SequenceName": "*epfid2d1_72",
  "SequenceVariant": "SK\\OSP",
  "SeriesDescription": "func_vwfate_run1",
  "SeriesNumber": 8,
  "ShimSetting": [-1118, -1345, 691, 542, -83, 82, 41, 1],
  "SliceThickness": 2,
  "SliceTiming": [1.0775, 0, 0.74, 0.0675, 0.8075, 0.135, 0.875, 0.2025, 0.9425, 0.27, 1.01, 0.405, 1.145, 0.4725, 1.2125, 0.54, 1.28, 0.605, 1.345, 0.6725, 1.4125, 0.3375, 1.0775, 0, 0.74, 0.0675, 0.8075, 0.135, 0.875, 0.2025, 0.9425, 0.27, 1.01, 0.405, 1.145, 0.4725, 1.2125, 0.54, 1.28, 0.605, 1.345, 0.6725, 1.4125, 0.3375, 1.0775, 0, 0.74, 0.0675, 0.8075, 0.135, 0.875, 0.2025, 0.9425, 0.27, 1.01, 0.405, 1.145, 0.4725, 1.2125, 0.54, 1.28, 0.605, 1.345, 0.6725, 1.4125, 0.3375],
  "SoftwareVersions": "syngo MR E11",
  "SpacingBetweenSlices": 2,
  "StationName": "AWP166011",
  "TaskName": "vwfate",
  "TotalReadoutTime": 0.0551515,
  "TxRefAmp": 218.606,
  "dcmmeta_affine": [
    [-1.997074007987976, -0.023354237899184227, 0.10559385269880295, 92.73981475830078],
    [-0.039121948182582855, 1.9765660762786865, -0.30274707078933716, -69.62374114990234],
    [0.10082140564918518, 0.3043696880340576, 1.9741312265396118, -78.43706512451172],
    [0.0, 0.0, 0.0, 1.0]
],
  "dcmmeta_reorient_transform": [
    [0.0, -1.0, 0.0, 95.0],
    [1.0, 0.0, 0.0, 0.0],
    [0.0, 0.0, 1.0, 0.0],
    [0.0, 0.0, 0.0, 1.0]
],
  "dcmmeta_shape": [96, 96, 66, 164],
  "dcmmeta_slice_dim": 2,
  "dcmmeta_version": 0.6,
  "global": {
    "const": {
      "AcquisitionMatrix": [96, 0, 0, 72],
      "AngioFlag": "N",
      "BitsAllocated": 16,
      "BitsStored": 12,
      "BodyPartExamined": "BRAIN",
      "Columns": 864,
      "EchoNumbers": 1,
      "EchoTime": 30.0,
      "EchoTrainLength": 58,
      "FlipAngle": 62.0,
      "HighBit": 11,
      "ImageOrientationPatient": [0.99853699447404, 0.01956097442457, 0.05041070269612, -0.0116771187432, 0.98828306639537, -0.1521848401584],
      "ImagePositionPatient": [-848.42954590892, -892.17426588634, 28.640591736384],
      "ImageType": [
        "ORIGINAL",
        "PRIMARY",
        "M",
        "ND",
        "MOSAIC"
],
      "ImagedNucleus": "1H",
      "ImagingFrequency": 123.259508,
      "InPlanePhaseEncodingDirection": "COL",
      "MRAcquisitionType": "2D",
      "MagneticFieldStrength": 3.0,
      "Manufacturer": "SIEMENS",
      "ManufacturerModelName": "Prisma",
      "Modality": "MR",
      "NumberOfAverages": 1.0,
      "NumberOfPhaseEncodingSteps": 58,
      "PercentPhaseFieldOfView": 100.0,
      "PercentSampling": 75.0,
      "PerformedProcedureStepStartTime": "125540.153000",
      "PhotometricInterpretation": "MONOCHROME2",
      "PixelBandwidth": 2265.0,
      "PixelRepresentation": 0,
      "PixelSpacing": [2.0, 2.0],
      "ProtocolName": "func_vwfate_run1",
      "RepetitionTime": 1500.0,
      "Rows": 864,
      "SAR": 0.04878576309148,
      "SamplesPerPixel": 1,
      "ScanOptions": [
        "PFP",
        "FS"
],
      "ScanningSequence": "EP",
      "SequenceName": "*epfid2d1_72",
      "SequenceVariant": [
        "SK",
        "OSP"
],
      "SeriesDescription": "func_vwfate_run1",
      "SeriesNumber": 8,
      "SeriesTime": "132703.025000",
      "SliceLocation": -61.986961222527,
      "SliceThickness": 2.0,
      "SmallestImagePixelValue": 0,
      "SoftwareVersions": "syngo MR E11",
      "SpacingBetweenSlices": 2.0000000117618,
      "SpecificCharacterSet": "ISO_IR 100",
      "StudyID": "1",
      "StudyTime": "125540.089000",
      "TransmitCoilName": "Body",
      "VariableFlipAngleFlag": "N",
      "WindowCenterWidthExplanation": "Algo1",
      "dBdt": 0.0},
    "slices": {}
  },
  "time": {
    "samples": {
      "AcquisitionNumber": [1, 2, 3, 4, 5, 6, 7, 8, 9, 10, 11, 12, 13, 14, 15, 16, 17, 18, 19, 20, 21, 22, 23, 24, 25, 26, 27, 28, 29, 30, 31, 32, 33, 34, 35, 36, 37, 38, 39, 40, 41, 42, 43, 44, 45, 46, 47, 48, 49, 50, 51, 52, 53, 54, 55, 56, 57, 58, 59, 60, 61, 62, 63, 64, 65, 66, 67, 68, 69, 70, 71, 72, 73, 74, 75, 76, 77, 78, 79, 80, 81, 82, 83, 84, 85, 86, 87, 88, 89, 90, 91, 92, 93, 94, 95, 96, 97, 98, 99, 100, 101, 102, 103, 104, 105, 106, 107, 108, 109, 110, 111, 112, 113, 114, 115, 116, 117, 118, 119, 120, 121, 122, 123, 124, 125, 126, 127, 128, 129, 130, 131, 132, 133, 134, 135, 136, 137, 138, 139, 140, 141, 142, 143, 144, 145, 146, 147, 148, 149, 150, 151, 152, 153, 154, 155, 156, 157, 158, 159, 160, 161, 162, 163, 164],
      "AcquisitionTime": ["132615.522500", "132617.022500", "132618.522500", "132620.022500", "132621.522500", "132623.022500", "132624.522500", "132626.022500", "132627.522500", "132629.022500", "132630.522500", "132632.022500", "132633.522500", "132635.022500", "132636.522500", "132638.022500", "132639.522500", "132641.022500", "132642.522500", "132644.022500", "132645.522500", "132647.022500", "132648.522500", "132650.022500", "132651.522500", "132653.022500", "132654.522500", "132656.022500", "132657.522500", "132659.022500", "132700.522500", "132702.022500", "132703.522500", "132705.022500", "132706.522500", "132708.022500", "132709.522500", "132711.022500", "132712.522500", "132714.022500", "132715.522500", "132717.022500", "132718.522500", "132720.022500", "132721.522500", "132723.022500", "132724.522500", "132726.022500", "132727.522500", "132729.022500", "132730.522500", "132732.022500", "132733.522500", "132735.022500", "132736.522500", "132738.022500", "132739.522500", "132741.022500", "132742.522500", "132744.022500", "132745.522500", "132747.022500", "132748.522500", "132750.022500", "132751.522500", "132753.022500", "132754.522500", "132756.022500", "132757.522500", "132759.022500", "132800.522500", "132802.022500", "132803.522500", "132805.022500", "132806.522500", "132808.022500", "132809.522500", "132811.022500", "132812.522500", "132814.022500", "132815.522500", "132817.022500", "132818.522500", "132820.022500", "132821.522500", "132823.022500", "132824.522500", "132826.022500", "132827.522500", "132829.022500", "132830.522500", "132832.022500", "132833.522500", "132835.022500", "132836.522500", "132838.022500", "132839.522500", "132841.022500", "132842.522500", "132844.022500", "132845.522500", "132847.022500", "132848.522500", "132850.022500", "132851.522500", "132853.022500", "132854.522500", "132856.022500", "132857.522500", "132859.022500", "132900.522500", "132902.022500", "132903.522500", "132905.022500", "132906.522500", "132908.022500", "132909.522500", "132911.022500", "132912.522500", "132914.022500", "132915.522500", "132917.022500", "132918.522500", "132920.022500", "132921.522500", "132923.022500", "132924.522500", "132926.022500", "132927.522500", "132929.022500", "132930.522500", "132932.022500", "132933.522500", "132935.022500", "132936.522500", "132938.022500", "132939.522500", "132941.022500", "132942.522500", "132944.022500", "132945.522500", "132947.022500", "132948.522500", "132950.022500", "132951.522500", "132953.022500", "132954.522500", "132956.022500", "132957.522500", "132959.022500", "133000.522500", "133002.022500", "133003.522500", "133005.022500", "133006.522500", "133008.022500", "133009.522500", "133011.022500", "133012.522500", "133014.022500", "133015.522500", "133017.022500", "133018.522500", "133020.022500"],
      "ContentTime": ["132703.029000", "132703.033000", "132703.044000", "132703.047000", "132703.050000", "132703.053000", "132703.056000", "132703.059000", "132703.062000", "132703.065000", "132703.068000", "132703.071000", "132703.074000", "132703.077000", "132703.080000", "132703.083000", "132703.086000", "132703.089000", "132703.093000", "132703.096000", "132703.099000", "132703.102000", "132703.105000", "132703.112000", "132703.115000", "132703.118000", "132703.122000", "132703.124000", "132703.127000", "132703.130000", "132703.134000", "132743.025000", "132743.028000", "132743.031000", "132743.034000", "132743.037000", "132743.040000", "132743.043000", "132743.046000", "132743.049000", "132743.052000", "132743.055000", "132743.058000", "132743.068000", "132743.071000", "132743.075000", "132743.078000", "132743.081000", "132743.096000", "132743.099000", "132743.102000", "132743.105000", "132743.108000", "132743.111000", "132743.114000", "132743.117000", "132743.120000", "132743.123000", "132823.025000", "132823.029000", "132823.032000", "132823.035000", "132823.038000", "132823.041000", "132823.044000", "132823.047000", "132823.050000", "132823.053000", "132823.056000", "132823.059000", "132823.062000", "132823.066000", "132823.068000", "132823.072000", "132823.075000", "132823.078000", "132823.081000", "132823.083000", "132823.089000", "132823.093000", "132823.096000", "132823.099000", "132823.103000", "132823.107000", "132903.024000", "132903.027000", "132903.030000", "132903.033000", "132903.036000", "132903.039000", "132903.042000", "132903.045000", "132903.048000", "132903.051000", "132903.054000", "132903.057000", "132903.060000", "132903.063000", "132903.076000", "132903.079000", "132903.082000", "132903.085000", "132903.088000", "132903.091000", "132903.094000", "132903.097000", "132903.100000", "132903.103000", "132903.106000", "132903.109000", "132903.112000", "132943.025000", "132943.028000", "132943.031000", "132943.034000", "132943.037000", "132943.040000", "132943.043000", "132943.046000", "132943.049000", "132943.052000", "132943.055000", "132943.058000", "132943.061000", "132943.064000", "132943.067000", "132943.070000", "132943.073000", "132943.076000", "132943.079000", "132943.082000", "132943.085000", "132943.088000", "132943.091000", "132943.094000", "132943.097000", "132943.100000", "132943.103000", "133021.661000", "133021.665000", "133021.668000", "133021.671000", "133021.674000", "133021.677000", "133021.680000", "133021.683000", "133021.687000", "133021.692000", "133021.695000", "133021.698000", "133021.701000", "133021.704000", "133021.707000", "133021.710000", "133021.713000", "133021.716000", "133021.719000", "133021.722000", "133021.726000", "133021.729000", "133021.732000", "133021.735000", "133021.738000", "133021.742000"],
      "InstanceCreationTime": ["132703.029000", "132703.033000", "132703.044000", "132703.047000", "132703.050000", "132703.053000", "132703.056000", "132703.059000", "132703.062000", "132703.065000", "132703.068000", "132703.071000", "132703.074000", "132703.077000", "132703.080000", "132703.083000", "132703.086000", "132703.089000", "132703.093000", "132703.096000", "132703.099000", "132703.102000", "132703.105000", "132703.112000", "132703.115000", "132703.118000", "132703.122000", "132703.124000", "132703.127000", "132703.130000", "132703.134000", "132743.025000", "132743.028000", "132743.031000", "132743.034000", "132743.037000", "132743.040000", "132743.043000", "132743.046000", "132743.049000", "132743.052000", "132743.055000", "132743.058000", "132743.068000", "132743.071000", "132743.075000", "132743.078000", "132743.081000", "132743.096000", "132743.099000", "132743.102000", "132743.105000", "132743.108000", "132743.111000", "132743.114000", "132743.117000", "132743.120000", "132743.123000", "132823.025000", "132823.029000", "132823.032000", "132823.035000", "132823.038000", "132823.041000", "132823.044000", "132823.047000", "132823.050000", "132823.053000", "132823.056000", "132823.059000", "132823.062000", "132823.066000", "132823.068000", "132823.072000", "132823.075000", "132823.078000", "132823.081000", "132823.083000", "132823.089000", "132823.093000", "132823.096000", "132823.099000", "132823.103000", "132823.107000", "132903.024000", "132903.027000", "132903.030000", "132903.033000", "132903.036000", "132903.039000", "132903.042000", "132903.045000", "132903.048000", "132903.051000", "132903.054000", "132903.057000", "132903.060000", "132903.063000", "132903.076000", "132903.079000", "132903.082000", "132903.085000", "132903.088000", "132903.091000", "132903.094000", "132903.097000", "132903.100000", "132903.103000", "132903.106000", "132903.109000", "132903.112000", "132943.025000", "132943.028000", "132943.031000", "132943.034000", "132943.037000", "132943.040000", "132943.043000", "132943.046000", "132943.049000", "132943.052000", "132943.055000", "132943.058000", "132943.061000", "132943.064000", "132943.067000", "132943.070000", "132943.073000", "132943.076000", "132943.079000", "132943.082000", "132943.085000", "132943.088000", "132943.091000", "132943.094000", "132943.097000", "132943.100000", "132943.103000", "133021.661000", "133021.665000", "133021.668000", "133021.671000", "133021.674000", "133021.677000", "133021.680000", "133021.683000", "133021.687000", "133021.692000", "133021.695000", "133021.698000", "133021.701000", "133021.704000", "133021.707000", "133021.710000", "133021.713000", "133021.716000", "133021.719000", "133021.722000", "133021.726000", "133021.729000", "133021.732000", "133021.735000", "133021.738000", "133021.742000"],
      "InstanceNumber": [1, 2, 3, 4, 5, 6, 7, 8, 9, 10, 11, 12, 13, 14, 15, 16, 17, 18, 19, 20, 21, 22, 23, 24, 25, 26, 27, 28, 29, 30, 31, 32, 33, 34, 35, 36, 37, 38, 39, 40, 41, 42, 43, 44, 45, 46, 47, 48, 49, 50, 51, 52, 53, 54, 55, 56, 57, 58, 59, 60, 61, 62, 63, 64, 65, 66, 67, 68, 69, 70, 71, 72, 73, 74, 75, 76, 77, 78, 79, 80, 81, 82, 83, 84, 85, 86, 87, 88, 89, 90, 91, 92, 93, 94, 95, 96, 97, 98, 99, 100, 101, 102, 103, 104, 105, 106, 107, 108, 109, 110, 111, 112, 113, 114, 115, 116, 117, 118, 119, 120, 121, 122, 123, 124, 125, 126, 127, 128, 129, 130, 131, 132, 133, 134, 135, 136, 137, 138, 139, 140, 141, 142, 143, 144, 145, 146, 147, 148, 149, 150, 151, 152, 153, 154, 155, 156, 157, 158, 159, 160, 161, 162, 163, 164],
      "LargestImagePixelValue": [2801, 2727, 2644, 2689, 2674, 2665, 2629, 2637, 2651, 2670, 2704, 2683, 2643, 2614, 2668, 2631, 2668, 2654, 2645, 2665, 2672, 2664, 2627, 2647, 2655, 2656, 2654, 2675, 2668, 2667, 2646, 2650, 2667, 2636, 2667, 2644, 2659, 2649, 2638, 2639, 2624, 2647, 2631, 2656, 2628, 2658, 2623, 2633, 2624, 2676, 2654, 2655, 2619, 2629, 2629, 2672, 2623, 2668, 2634, 2658, 2626, 2654, 2634, 2666, 2648, 2669, 2649, 2650, 2626, 2617, 2624, 2611, 2607, 2604, 2622, 2611, 2637, 2602, 2619, 2597, 2601, 2600, 2620, 2594, 2605, 2592, 2632, 2606, 2629, 2607, 2643, 2613, 2635, 2603, 2617, 2601, 2657, 2590, 2607, 2594, 2644, 2614, 2641, 2623, 2610, 2604, 2596, 2588, 2583, 2619, 2565, 2598, 2598, 2621, 2612, 2651, 2620, 2640, 2608, 2613, 2583, 2588, 2601, 2589, 2576, 2599, 2588, 2639, 2585, 2654, 2597, 2615, 2595, 2611, 2597, 2615, 2561, 2563, 2549, 2596, 2591, 2586, 2582, 2591, 2594, 2596, 2566, 2563, 2565, 2595, 2569, 2591, 2588, 2581, 2593, 2619, 2607, 2588, 2595, 2571, 2603, 2609, 2592, 2591],
      "WindowCenter": [723.0, 721.0, 721.0, 722.0, 722.0, 721.0, 720.0, 720.0, 721.0, 722.0, 722.0, 722.0, 721.0, 720.0, 721.0, 721.0, 720.0, 720.0, 721.0, 722.0, 723.0, 721.0, 720.0, 719.0, 720.0, 721.0, 722.0, 722.0, 721.0, 721.0, 721.0, 722.0, 722.0, 721.0, 721.0, 721.0, 722.0, 721.0, 720.0, 719.0, 719.0, 720.0, 721.0, 721.0, 720.0, 720.0, 721.0, 722.0, 722.0, 721.0, 719.0, 718.0, 718.0, 720.0, 720.0, 721.0, 720.0, 721.0, 721.0, 722.0, 722.0, 722.0, 722.0, 722.0, 721.0, 721.0, 721.0, 723.0, 721.0, 722.0, 721.0, 721.0, 720.0, 719.0, 719.0, 720.0, 721.0, 721.0, 721.0, 720.0, 720.0, 720.0, 721.0, 721.0, 721.0, 720.0, 721.0, 721.0, 720.0, 720.0, 720.0, 720.0, 720.0, 720.0, 719.0, 719.0, 719.0, 719.0, 720.0, 720.0, 719.0, 720.0, 721.0, 721.0, 721.0, 721.0, 720.0, 719.0, 720.0, 721.0, 721.0, 721.0, 720.0, 720.0, 721.0, 721.0, 721.0, 720.0, 719.0, 720.0, 721.0, 720.0, 719.0, 718.0, 719.0, 721.0, 721.0, 721.0, 719.0, 719.0, 720.0, 720.0, 719.0, 718.0, 718.0, 719.0, 718.0, 718.0, 718.0, 717.0, 715.0, 714.0, 714.0, 713.0, 712.0, 711.0, 711.0, 711.0, 712.0, 713.0, 714.0, 715.0, 716.0, 716.0, 715.0, 715.0, 716.0, 718.0, 719.0, 719.0, 718.0, 717.0, 718.0, 719.0],
      "WindowWidth": [1580.0, 1576.0, 1576.0, 1579.0, 1579.0, 1576.0, 1573.0, 1573.0, 1575.0, 1578.0, 1579.0, 1577.0, 1574.0, 1573.0, 1575.0, 1574.0, 1573.0, 1572.0, 1575.0, 1579.0, 1580.0, 1576.0, 1571.0, 1569.0, 1572.0, 1575.0, 1577.0, 1578.0, 1576.0, 1574.0, 1575.0, 1578.0, 1578.0, 1576.0, 1575.0, 1575.0, 1578.0, 1575.0, 1572.0, 1568.0, 1569.0, 1571.0, 1574.0, 1574.0, 1571.0, 1572.0, 1574.0, 1577.0, 1576.0, 1574.0, 1569.0, 1567.0, 1567.0, 1571.0, 1573.0, 1575.0, 1573.0, 1574.0, 1576.0, 1578.0, 1578.0, 1579.0, 1577.0, 1577.0, 1576.0, 1576.0, 1575.0, 1579.0, 1576.0, 1577.0, 1576.0, 1574.0, 1570.0, 1568.0, 1569.0, 1571.0, 1573.0, 1574.0, 1574.0, 1573.0, 1573.0, 1573.0, 1573.0, 1574.0, 1574.0, 1573.0, 1573.0, 1574.0, 1573.0, 1571.0, 1571.0, 1570.0, 1571.0, 1570.0, 1568.0, 1568.0, 1568.0, 1569.0, 1570.0, 1570.0, 1570.0, 1571.0, 1574.0, 1575.0, 1576.0, 1574.0, 1571.0, 1569.0, 1571.0, 1574.0, 1574.0, 1573.0, 1572.0, 1571.0, 1574.0, 1576.0, 1575.0, 1571.0, 1570.0, 1572.0, 1573.0, 1572.0, 1570.0, 1567.0, 1569.0, 1573.0, 1573.0, 1573.0, 1568.0, 1570.0, 1571.0, 1571.0, 1569.0, 1567.0, 1566.0, 1568.0, 1566.0, 1567.0, 1565.0, 1561.0, 1558.0, 1556.0, 1555.0, 1552.0, 1548.0, 1545.0, 1545.0, 1546.0, 1549.0, 1551.0, 1554.0, 1557.0, 1559.0, 1559.0, 1557.0, 1558.0, 1561.0, 1564.0, 1567.0, 1568.0, 1565.0, 1563.0, 1564.0, 1568.0]
    },
    "slices": {}
  }
}