{
  "AcquisitionMatrixPE": 72,
  "AcquisitionNumber": 1,
  "AcquisitionTime": "14:16:6.012500",
  "BandwidthPerPixelPhaseEncode": 17.943,
  "BaseResolution": 96,
  "BodyPartExamined": "BRAIN",
  "CoilCombinationMethod": "Sum of Squares",
  "ConsistencyInfo": "N4_VE11C_LATEST_20160120",
  "ConversionSoftware": "dcm2niix",
  "ConversionSoftwareVersion": "v1.0.20211006",
  "DerivedVendorReportedEchoSpacing": 0.000552897,
  "DeviceSerialNumber": "166011",
  "EchoTime": 0.03,
  "EchoTrainLength": 58,
  "EffectiveEchoSpacing": 0.000580542,
  "FlipAngle": 62,
  "ImageOrientationPatientDICOM": [0.998881, -0.0151048, 0.0448287, 0.0280757, 0.951997, -0.304817],
  "ImageType": [
    "ORIGINAL",
    "PRIMARY",
    "M",
    "ND",
    "MOSAIC"
],
  "ImagingFrequency": 123.26,
  "InPlanePhaseEncodingDirectionDICOM": "COL",
  "InstitutionAddress": "West 130th Street 610,NY,NYC,US,10025",
  "InstitutionName": "MBBI",
  "MRAcquisitionType": "2D",
  "MagneticFieldStrength": 3,
  "Manufacturer": "Siemens",
  "ManufacturersModelName": "Prisma",
  "Modality": "MR",
  "MultibandAccelerationFactor": 3,
  "PartialFourier": 0.75,
  "PatientPosition": "HFS",
  "PercentPhaseFOV": 100,
  "PercentSampling": 75,
  "PhaseEncodingDirection": "j-",
  "PhaseEncodingSteps": 58,
  "PhaseOversampling": 0.05,
  "PhaseResolution": 0.75,
  "PixelBandwidth": 2265,
  "ProcedureStepDescription": "White^Word_recognition",
  "ProtocolName": "func_vwfate_run6",
  "PulseSequenceDetails": "%SiemensSeq%\\ep2d_bold",
  "ReceiveCoilActiveElements": "HC1-7",
  "ReceiveCoilName": "HeadNeck_64",
  "ReconMatrixPE": 96,
  "RefLinesPE": 40,
  "RepetitionTime": 1.5,
  "SAR": 0.0533752,
  "ScanOptions": "PFP\\FS",
  "ScanningSequence": "EP",
  "SequenceName": "*epfid2d1_72",
  "SequenceVariant": "SK\\OSP",
  "SeriesDescription": "func_vwfate_run6",
  "SeriesNumber": 19,
  "ShimSetting": [-1122, -1322, 674, 493, -77, -29, -21, 9],
  "SliceThickness": 2,
  "SliceTiming": [1.075, 0, 0.74, 0.0675, 0.8075, 0.135, 0.875, 0.2025, 0.9425, 0.27, 1.0075, 0.4025, 1.1425, 0.47, 1.21, 0.5375, 1.2775, 0.605, 1.345, 0.6725, 1.4125, 0.335, 1.075, 0, 0.74, 0.0675, 0.8075, 0.135, 0.875, 0.2025, 0.9425, 0.27, 1.0075, 0.4025, 1.1425, 0.47, 1.21, 0.5375, 1.2775, 0.605, 1.345, 0.6725, 1.4125, 0.335, 1.075, 0, 0.74, 0.0675, 0.8075, 0.135, 0.875, 0.2025, 0.9425, 0.27, 1.0075, 0.4025, 1.1425, 0.47, 1.21, 0.5375, 1.2775, 0.605, 1.345, 0.6725, 1.4125, 0.335],
  "SoftwareVersions": "syngo MR E11",
  "SpacingBetweenSlices": 2,
  "StationName": "AWP166011",
  "TaskName": "vwfate",
  "TotalReadoutTime": 0.0551515,
  "TxRefAmp": 227.313,
  "dcmmeta_affine": [
    [-1.9977610111236572, 0.05615143105387688, 0.076145239174366, 91.56938171386719],
    [0.030209578573703766, 1.9039939641952515, -0.6114690899848938, -65.24723815917969],
    [0.08965747803449631, 0.6096343994140625, 1.9027104377746582, -99.2325210571289],
    [0.0, 0.0, 0.0, 1.0]
],
  "dcmmeta_reorient_transform": [
    [0.0, -1.0, 0.0, 95.0],
    [1.0, 0.0, 0.0, 0.0],
    [0.0, 0.0, 1.0, 0.0],
    [0.0, 0.0, 0.0, 1.0]
],
  "dcmmeta_shape": [96, 96, 66, 164],
  "dcmmeta_slice_dim": 2,
  "dcmmeta_version": 0.6,
  "global": {
    "const": {
      "AcquisitionMatrix": [96, 0, 0, 72],
      "AngioFlag": "N",
      "BitsAllocated": 16,
      "BitsStored": 12,
      "BodyPartExamined": "BRAIN",
      "Columns": 864,
      "EchoNumbers": 1,
      "EchoTime": 30.0,
      "EchoTrainLength": 58,
      "FlipAngle": 62.0,
      "HighBit": 11,
      "ImageOrientationPatient": [0.99888048817198, -0.015104789401, 0.04482873728369, 0.02807571461318, 0.95199697200796, -0.3048171903562],
      "ImagePositionPatient": [-885.60613141536, -835.16538608614, 158.35387751957],
      "ImageType": [
        "ORIGINAL",
        "PRIMARY",
        "M",
        "ND",
        "MOSAIC"
],
      "ImagedNucleus": "1H",
      "ImagingFrequency": 123.259542,
      "InPlanePhaseEncodingDirection": "COL",
      "MRAcquisitionType": "2D",
      "MagneticFieldStrength": 3.0,
      "Manufacturer": "SIEMENS",
      "ManufacturerModelName": "Prisma",
      "Modality": "MR",
      "NumberOfAverages": 1.0,
      "NumberOfPhaseEncodingSteps": 58,
      "PercentPhaseFieldOfView": 100.0,
      "PercentSampling": 75.0,
      "PerformedProcedureStepStartTime": "125540.153000",
      "PhotometricInterpretation": "MONOCHROME2",
      "PixelBandwidth": 2265.0,
      "PixelRepresentation": 0,
      "PixelSpacing": [2.0, 2.0],
      "ProtocolName": "func_vwfate_run6",
      "RepetitionTime": 1500.0,
      "Rows": 864,
      "SAR": 0.053375170358,
      "SamplesPerPixel": 1,
      "ScanOptions": [
        "PFP",
        "FS"
],
      "ScanningSequence": "EP",
      "SequenceName": "*epfid2d1_72",
      "SequenceVariant": [
        "SK",
        "OSP"
],
      "SeriesDescription": "func_vwfate_run6",
      "SeriesNumber": 19,
      "SeriesTime": "141643.044000",
      "SliceLocation": -70.970762184053,
      "SliceThickness": 2.0,
      "SmallestImagePixelValue": 0,
      "SoftwareVersions": "syngo MR E11",
      "SpacingBetweenSlices": 1.999999934387,
      "SpecificCharacterSet": "ISO_IR 100",
      "StudyID": "1",
      "StudyTime": "125540.089000",
      "TransmitCoilName": "Body",
      "VariableFlipAngleFlag": "N",
      "WindowCenterWidthExplanation": "Algo1",
      "dBdt": 0.0},
    "slices": {}
  },
  "time": {
    "samples": {
      "AcquisitionNumber": [1, 2, 3, 4, 5, 6, 7, 8, 9, 10, 11, 12, 13, 14, 15, 16, 17, 18, 19, 20, 21, 22, 23, 24, 25, 26, 27, 28, 29, 30, 31, 32, 33, 34, 35, 36, 37, 38, 39, 40, 41, 42, 43, 44, 45, 46, 47, 48, 49, 50, 51, 52, 53, 54, 55, 56, 57, 58, 59, 60, 61, 62, 63, 64, 65, 66, 67, 68, 69, 70, 71, 72, 73, 74, 75, 76, 77, 78, 79, 80, 81, 82, 83, 84, 85, 86, 87, 88, 89, 90, 91, 92, 93, 94, 95, 96, 97, 98, 99, 100, 101, 102, 103, 104, 105, 106, 107, 108, 109, 110, 111, 112, 113, 114, 115, 116, 117, 118, 119, 120, 121, 122, 123, 124, 125, 126, 127, 128, 129, 130, 131, 132, 133, 134, 135, 136, 137, 138, 139, 140, 141, 142, 143, 144, 145, 146, 147, 148, 149, 150, 151, 152, 153, 154, 155, 156, 157, 158, 159, 160, 161, 162, 163, 164],
      "AcquisitionTime": ["141606.012500", "141607.512500", "141609.012500", "141610.512500", "141612.012500", "141613.512500", "141615.012500", "141616.512500", "141618.012500", "141619.512500", "141621.012500", "141622.512500", "141624.012500", "141625.512500", "141627.012500", "141628.512500", "141630.012500", "141631.512500", "141633.012500", "141634.512500", "141636.012500", "141637.512500", "141639.012500", "141640.512500", "141642.012500", "141643.512500", "141645.012500", "141646.512500", "141648.012500", "141649.512500", "141651.012500", "141652.512500", "141654.012500", "141655.512500", "141657.012500", "141658.512500", "141700.012500", "141701.512500", "141703.012500", "141704.512500", "141706.012500", "141707.512500", "141709.012500", "141710.512500", "141712.012500", "141713.512500", "141715.012500", "141716.512500", "141718.012500", "141719.512500", "141721.012500", "141722.512500", "141724.012500", "141725.512500", "141727.012500", "141728.512500", "141730.012500", "141731.512500", "141733.012500", "141734.512500", "141736.012500", "141737.512500", "141739.012500", "141740.512500", "141742.012500", "141743.512500", "141745.012500", "141746.512500", "141748.012500", "141749.512500", "141751.012500", "141752.512500", "141754.012500", "141755.512500", "141757.012500", "141758.512500", "141800.012500", "141801.512500", "141803.012500", "141804.512500", "141806.012500", "141807.512500", "141809.012500", "141810.512500", "141812.012500", "141813.512500", "141815.012500", "141816.512500", "141818.012500", "141819.512500", "141821.012500", "141822.512500", "141824.012500", "141825.512500", "141827.012500", "141828.512500", "141830.012500", "141831.512500", "141833.012500", "141834.512500", "141836.012500", "141837.512500", "141839.012500", "141840.512500", "141842.012500", "141843.512500", "141845.012500", "141846.512500", "141848.012500", "141849.512500", "141851.012500", "141852.512500", "141854.012500", "141855.512500", "141857.012500", "141858.512500", "141900.012500", "141901.512500", "141903.012500", "141904.512500", "141906.012500", "141907.512500", "141909.012500", "141910.512500", "141912.012500", "141913.512500", "141915.012500", "141916.512500", "141918.012500", "141919.512500", "141921.012500", "141922.512500", "141924.012500", "141925.512500", "141927.012500", "141928.512500", "141930.012500", "141931.512500", "141933.012500", "141934.512500", "141936.012500", "141937.512500", "141939.012500", "141940.512500", "141942.012500", "141943.512500", "141945.012500", "141946.512500", "141948.012500", "141949.512500", "141951.012500", "141952.512500", "141954.012500", "141955.512500", "141957.012500", "141958.512500", "142000.012500", "142001.512500", "142003.012500", "142004.512500", "142006.012500", "142007.512500", "142009.012500", "142010.512500"],
      "ContentTime": ["141643.048000", "141643.052000", "141643.055000", "141643.074000", "141643.077000", "141643.080000", "141643.083000", "141643.086000", "141643.089000", "141643.092000", "141643.095000", "141643.098000", "141643.102000", "141643.105000", "141643.108000", "141643.110000", "141643.113000", "141643.122000", "141643.125000", "141643.128000", "141643.131000", "141643.134000", "141643.137000", "141643.140000", "141643.143000", "141723.025000", "141723.035000", "141723.038000", "141723.042000", "141723.045000", "141723.048000", "141723.051000", "141723.054000", "141723.057000", "141723.060000", "141723.063000", "141723.066000", "141723.069000", "141723.072000", "141723.075000", "141723.078000", "141723.081000", "141723.084000", "141723.087000", "141723.090000", "141723.093000", "141723.096000", "141723.099000", "141723.103000", "141723.105000", "141723.108000", "141803.024000", "141803.031000", "141803.034000", "141803.037000", "141803.040000", "141803.043000", "141803.046000", "141803.049000", "141803.052000", "141803.055000", "141803.058000", "141803.061000", "141803.064000", "141803.067000", "141803.070000", "141803.073000", "141803.076000", "141803.079000", "141803.082000", "141803.085000", "141803.088000", "141803.091000", "141803.094000", "141803.097000", "141803.100000", "141803.103000", "141803.106000", "141823.025000", "141823.028000", "141823.031000", "141823.034000", "141823.037000", "141823.040000", "141823.043000", "141823.046000", "141823.049000", "141823.052000", "141823.055000", "141823.058000", "141823.061000", "141903.025000", "141903.028000", "141903.043000", "141903.046000", "141903.049000", "141903.052000", "141903.055000", "141903.058000", "141903.061000", "141903.064000", "141903.067000", "141903.070000", "141903.073000", "141903.076000", "141903.079000", "141903.082000", "141903.085000", "141903.088000", "141903.091000", "141903.094000", "141903.097000", "141903.099000", "141903.102000", "141903.106000", "141903.108000", "141903.111000", "141903.114000", "141943.024000", "141943.027000", "141943.030000", "141943.033000", "141943.036000", "141943.039000", "141943.042000", "141943.045000", "141943.048000", "141943.051000", "141943.054000", "141943.057000", "141943.060000", "141943.063000", "141943.066000", "141943.069000", "141943.072000", "141943.075000", "141943.078000", "141943.081000", "141943.084000", "141943.087000", "141943.090000", "141943.093000", "141943.096000", "141943.099000", "141943.102000", "142011.217000", "142011.220000", "142011.223000", "142011.226000", "142011.229000", "142011.232000", "142011.235000", "142011.238000", "142011.241000", "142011.244000", "142011.248000", "142011.251000", "142011.255000", "142011.258000", "142011.261000", "142011.265000", "142011.268000", "142011.271000", "142011.275000"],
      "InstanceCreationTime": ["141643.048000", "141643.052000", "141643.055000", "141643.074000", "141643.077000", "141643.080000", "141643.083000", "141643.086000", "141643.089000", "141643.092000", "141643.095000", "141643.098000", "141643.102000", "141643.105000", "141643.108000", "141643.110000", "141643.113000", "141643.122000", "141643.125000", "141643.128000", "141643.131000", "141643.134000", "141643.137000", "141643.140000", "141643.143000", "141723.025000", "141723.035000", "141723.038000", "141723.042000", "141723.045000", "141723.048000", "141723.051000", "141723.054000", "141723.057000", "141723.060000", "141723.063000", "141723.066000", "141723.069000", "141723.072000", "141723.075000", "141723.078000", "141723.081000", "141723.084000", "141723.087000", "141723.090000", "141723.093000", "141723.096000", "141723.099000", "141723.103000", "141723.105000", "141723.108000", "141803.024000", "141803.031000", "141803.034000", "141803.037000", "141803.040000", "141803.043000", "141803.046000", "141803.049000", "141803.052000", "141803.055000", "141803.058000", "141803.061000", "141803.064000", "141803.067000", "141803.070000", "141803.073000", "141803.076000", "141803.079000", "141803.082000", "141803.085000", "141803.088000", "141803.091000", "141803.094000", "141803.097000", "141803.100000", "141803.103000", "141803.106000", "141823.025000", "141823.028000", "141823.031000", "141823.034000", "141823.037000", "141823.040000", "141823.043000", "141823.046000", "141823.049000", "141823.052000", "141823.055000", "141823.058000", "141823.061000", "141903.025000", "141903.028000", "141903.043000", "141903.046000", "141903.049000", "141903.052000", "141903.055000", "141903.058000", "141903.061000", "141903.064000", "141903.067000", "141903.070000", "141903.073000", "141903.076000", "141903.079000", "141903.082000", "141903.085000", "141903.088000", "141903.091000", "141903.094000", "141903.097000", "141903.099000", "141903.102000", "141903.106000", "141903.108000", "141903.111000", "141903.114000", "141943.024000", "141943.027000", "141943.030000", "141943.033000", "141943.036000", "141943.039000", "141943.042000", "141943.045000", "141943.048000", "141943.051000", "141943.054000", "141943.057000", "141943.060000", "141943.063000", "141943.066000", "141943.069000", "141943.072000", "141943.075000", "141943.078000", "141943.081000", "141943.084000", "141943.087000", "141943.090000", "141943.093000", "141943.096000", "141943.099000", "141943.102000", "142011.217000", "142011.220000", "142011.223000", "142011.226000", "142011.229000", "142011.232000", "142011.235000", "142011.238000", "142011.241000", "142011.244000", "142011.248000", "142011.251000", "142011.255000", "142011.258000", "142011.261000", "142011.265000", "142011.268000", "142011.271000", "142011.275000"],
      "InstanceNumber": [1, 2, 3, 4, 5, 6, 7, 8, 9, 10, 11, 12, 13, 14, 15, 16, 17, 18, 19, 20, 21, 22, 23, 24, 25, 26, 27, 28, 29, 30, 31, 32, 33, 34, 35, 36, 37, 38, 39, 40, 41, 42, 43, 44, 45, 46, 47, 48, 49, 50, 51, 52, 53, 54, 55, 56, 57, 58, 59, 60, 61, 62, 63, 64, 65, 66, 67, 68, 69, 70, 71, 72, 73, 74, 75, 76, 77, 78, 79, 80, 81, 82, 83, 84, 85, 86, 87, 88, 89, 90, 91, 92, 93, 94, 95, 96, 97, 98, 99, 100, 101, 102, 103, 104, 105, 106, 107, 108, 109, 110, 111, 112, 113, 114, 115, 116, 117, 118, 119, 120, 121, 122, 123, 124, 125, 126, 127, 128, 129, 130, 131, 132, 133, 134, 135, 136, 137, 138, 139, 140, 141, 142, 143, 144, 145, 146, 147, 148, 149, 150, 151, 152, 153, 154, 155, 156, 157, 158, 159, 160, 161, 162, 163, 164],
      "LargestImagePixelValue": [2422, 2334, 2337, 2281, 2280, 2268, 2292, 2245, 2255, 2254, 2256, 2233, 2234, 2244, 2218, 2250, 2224, 2219, 2256, 2237, 2224, 2251, 2217, 2218, 2212, 2190, 2217, 2192, 2152, 2152, 2156, 2165, 2158, 2175, 2181, 2168, 2179, 2190, 2194, 2203, 2166, 2203, 2194, 2208, 2179, 2193, 2193, 2204, 2181, 2233, 2196, 2250, 2207, 2239, 2202, 2202, 2193, 2246, 2216, 2256, 2258, 2238, 2217, 2276, 2229, 2288, 2253, 2276, 2246, 2240, 2214, 2254, 2226, 2250, 2227, 2220, 2261, 2242, 2315, 2280, 2297, 2246, 2295, 2286, 2276, 2279, 2284, 2296, 2266, 2300, 2288, 2305, 2302, 2283, 2289, 2282, 2304, 2293, 2319, 2320, 2295, 2305, 2311, 2312, 2328, 2299, 2293, 2326, 2298, 2291, 2319, 2335, 2294, 2314, 2303, 2269, 2250, 2211, 2184, 2221, 2241, 2212, 2203, 2192, 2207, 2213, 2217, 2211, 2214, 2208, 2205, 2205, 2199, 2212, 2213, 2200, 2203, 2212, 2209, 2207, 2222, 2216, 2213, 2206, 2204, 2215, 2226, 2213, 2221, 2197, 2182, 2214, 2215, 2191, 2188, 2193, 2195, 2196, 2184, 2190, 2191, 2209, 2190, 2221],
      "WindowCenter": [696.0, 694.0, 694.0, 694.0, 693.0, 693.0, 693.0, 694.0, 695.0, 696.0, 696.0, 695.0, 696.0, 696.0, 697.0, 697.0, 697.0, 697.0, 698.0, 698.0, 697.0, 695.0, 693.0, 693.0, 693.0, 694.0, 695.0, 695.0, 694.0, 692.0, 691.0, 693.0, 694.0, 695.0, 694.0, 693.0, 692.0, 694.0, 695.0, 695.0, 694.0, 693.0, 692.0, 693.0, 693.0, 694.0, 693.0, 693.0, 692.0, 694.0, 694.0, 694.0, 694.0, 693.0, 693.0, 694.0, 695.0, 695.0, 694.0, 694.0, 694.0, 695.0, 695.0, 696.0, 695.0, 695.0, 694.0, 695.0, 695.0, 695.0, 694.0, 695.0, 694.0, 694.0, 692.0, 692.0, 693.0, 694.0, 695.0, 694.0, 694.0, 693.0, 692.0, 693.0, 693.0, 692.0, 692.0, 690.0, 689.0, 691.0, 691.0, 692.0, 692.0, 690.0, 690.0, 690.0, 691.0, 692.0, 693.0, 692.0, 691.0, 691.0, 693.0, 695.0, 695.0, 694.0, 693.0, 693.0, 694.0, 695.0, 695.0, 695.0, 693.0, 693.0, 692.0, 692.0, 693.0, 692.0, 691.0, 689.0, 685.0, 682.0, 681.0, 682.0, 683.0, 684.0, 686.0, 686.0, 687.0, 688.0, 688.0, 689.0, 690.0, 690.0, 689.0, 689.0, 690.0, 692.0, 692.0, 692.0, 692.0, 692.0, 692.0, 691.0, 692.0, 692.0, 692.0, 691.0, 691.0, 691.0, 693.0, 693.0, 692.0, 691.0, 690.0, 689.0, 691.0, 691.0, 691.0, 691.0, 690.0, 690.0, 691.0, 692.0],
      "WindowWidth": [1504.0, 1499.0, 1500.0, 1499.0, 1497.0, 1496.0, 1497.0, 1499.0, 1502.0, 1504.0, 1503.0, 1503.0, 1504.0, 1506.0, 1507.0, 1508.0, 1506.0, 1507.0, 1511.0, 1508.0, 1506.0, 1501.0, 1497.0, 1497.0, 1497.0, 1499.0, 1503.0, 1501.0, 1498.0, 1494.0, 1492.0, 1496.0, 1500.0, 1501.0, 1500.0, 1495.0, 1493.0, 1499.0, 1502.0, 1502.0, 1499.0, 1497.0, 1494.0, 1495.0, 1497.0, 1500.0, 1497.0, 1495.0, 1494.0, 1498.0, 1498.0, 1500.0, 1498.0, 1497.0, 1496.0, 1499.0, 1500.0, 1501.0, 1499.0, 1498.0, 1498.0, 1500.0, 1501.0, 1503.0, 1501.0, 1501.0, 1499.0, 1502.0, 1501.0, 1501.0, 1500.0, 1501.0, 1499.0, 1499.0, 1494.0, 1493.0, 1496.0, 1498.0, 1501.0, 1499.0, 1499.0, 1495.0, 1494.0, 1495.0, 1496.0, 1494.0, 1492.0, 1488.0, 1485.0, 1489.0, 1491.0, 1494.0, 1493.0, 1488.0, 1486.0, 1487.0, 1490.0, 1494.0, 1496.0, 1493.0, 1491.0, 1491.0, 1497.0, 1501.0, 1501.0, 1499.0, 1496.0, 1496.0, 1499.0, 1502.0, 1502.0, 1501.0, 1495.0, 1495.0, 1493.0, 1492.0, 1495.0, 1494.0, 1490.0, 1484.0, 1474.0, 1468.0, 1465.0, 1466.0, 1469.0, 1473.0, 1476.0, 1478.0, 1480.0, 1481.0, 1483.0, 1485.0, 1487.0, 1488.0, 1486.0, 1486.0, 1489.0, 1493.0, 1493.0, 1493.0, 1493.0, 1493.0, 1494.0, 1492.0, 1492.0, 1493.0, 1494.0, 1491.0, 1491.0, 1490.0, 1495.0, 1496.0, 1494.0, 1490.0, 1487.0, 1486.0, 1490.0, 1491.0, 1491.0, 1490.0, 1488.0, 1489.0, 1491.0, 1493.0]
    },
    "slices": {}
  }
}