{
  "AcquisitionMatrixPE": 72,
  "AcquisitionNumber": 1,
  "AcquisitionTime": "18:51:15.257500",
  "BandwidthPerPixelPhaseEncode": 17.943,
  "BaseResolution": 96,
  "BodyPartExamined": "BRAIN",
  "CoilCombinationMethod": "Sum of Squares",
  "ConsistencyInfo": "N4_VE11C_LATEST_20160120",
  "ConversionSoftware": "dcm2niix",
  "ConversionSoftwareVersion": "v1.0.20211006",
  "DerivedVendorReportedEchoSpacing": 0.000552897,
  "DeviceSerialNumber": "166011",
  "EchoTime": 0.03,
  "EchoTrainLength": 58,
  "EffectiveEchoSpacing": 0.000580542,
  "FlipAngle": 62,
  "ImageOrientationPatientDICOM": [0.997375, -0.0158571, 0.0706545, 0.0264655, 0.98805, -0.151844],
  "ImageType": [
    "ORIGINAL",
    "PRIMARY",
    "M",
    "ND",
    "MOSAIC"
],
  "ImagingFrequency": 123.259,
  "InPlanePhaseEncodingDirectionDICOM": "COL",
  "InstitutionAddress": "West 130th Street 610,NY,NYC,US,10025",
  "InstitutionName": "MBBI",
  "MRAcquisitionType": "2D",
  "MagneticFieldStrength": 3,
  "Manufacturer": "Siemens",
  "ManufacturersModelName": "Prisma",
  "Modality": "MR",
  "MultibandAccelerationFactor": 3,
  "PartialFourier": 0.75,
  "PatientPosition": "HFS",
  "PercentPhaseFOV": 100,
  "PercentSampling": 75,
  "PhaseEncodingDirection": "j-",
  "PhaseEncodingSteps": 58,
  "PhaseOversampling": 0.05,
  "PhaseResolution": 0.75,
  "PixelBandwidth": 2265,
  "ProcedureStepDescription": "White^Word_recognition",
  "ProtocolName": "func_vwfate_run1",
  "PulseSequenceDetails": "%SiemensSeq%\\ep2d_bold",
  "ReceiveCoilActiveElements": "HC1-7",
  "ReceiveCoilName": "HeadNeck_64",
  "ReconMatrixPE": 96,
  "RefLinesPE": 40,
  "RepetitionTime": 1.5,
  "SAR": 0.0419769,
  "ScanOptions": "PFP\\FS",
  "ScanningSequence": "EP",
  "SequenceName": "*epfid2d1_72",
  "SequenceVariant": "SK\\OSP",
  "SeriesDescription": "func_vwfate_run1",
  "SeriesNumber": 8,
  "ShimSetting": [-1124, -1364, 710, 526, -49, 63, -110, -1],
  "SliceThickness": 2,
  "SliceTiming": [1.075, 0, 0.74, 0.0675, 0.8075, 0.135, 0.875, 0.2, 0.94, 0.2675, 1.0075, 0.4025, 1.1425, 0.47, 1.21, 0.5375, 1.2775, 0.605, 1.345, 0.6725, 1.4125, 0.335, 1.075, 0, 0.74, 0.0675, 0.8075, 0.135, 0.875, 0.2, 0.94, 0.2675, 1.0075, 0.4025, 1.1425, 0.47, 1.21, 0.5375, 1.2775, 0.605, 1.345, 0.6725, 1.4125, 0.335, 1.075, 0, 0.74, 0.0675, 0.8075, 0.135, 0.875, 0.2, 0.94, 0.2675, 1.0075, 0.4025, 1.1425, 0.47, 1.21, 0.5375, 1.2775, 0.605, 1.345, 0.6725, 1.4125, 0.335],
  "SoftwareVersions": "syngo MR E11",
  "SpacingBetweenSlices": 2,
  "StationName": "AWP166011",
  "TaskName": "vwfate",
  "TotalReadoutTime": 0.0551515,
  "TxRefAmp": 212.648,
  "dcmmeta_affine": [
    [-1.9947495460510254, 0.05293107032775879, 0.13480475544929504, 84.245849609375],
    [0.03171414136886597, 1.9761000871658325, -0.30663102865219116, -70.00260925292969],
    [0.1413090080022812, 0.3036884665489197, 1.9717518091201782, -64.2000732421875],
    [0.0, 0.0, 0.0, 1.0]
],
  "dcmmeta_reorient_transform": [
    [0.0, -1.0, 0.0, 95.0],
    [1.0, 0.0, 0.0, 0.0],
    [0.0, 0.0, 1.0, 0.0],
    [0.0, 0.0, 0.0, 1.0]
],
  "dcmmeta_shape": [96, 96, 66, 164],
  "dcmmeta_slice_dim": 2,
  "dcmmeta_version": 0.6,
  "global": {
    "const": {
      "AcquisitionMatrix": [96, 0, 0, 72],
      "AngioFlag": "N",
      "BitsAllocated": 16,
      "BitsStored": 12,
      "BodyPartExamined": "BRAIN",
      "Columns": 864,
      "EchoNumbers": 1,
      "EchoTime": 30.0,
      "EchoTrainLength": 58,
      "FlipAngle": 62.0,
      "HighBit": 11,
      "ImageOrientationPatient": [0.99737480156462, -0.0158570713286, 0.07065450086739, 0.02646553568403, 0.9880500520566, -0.1518442295641],
      "ImagePositionPatient": [-875.58367855721, -864.37111291244, 27.004039027794],
      "ImageType": [
        "ORIGINAL",
        "PRIMARY",
        "M",
        "ND",
        "MOSAIC"
],
      "ImagedNucleus": "1H",
      "ImagingFrequency": 123.259434,
      "InPlanePhaseEncodingDirection": "COL",
      "MRAcquisitionType": "2D",
      "MagneticFieldStrength": 3.0,
      "Manufacturer": "SIEMENS",
      "ManufacturerModelName": "Prisma",
      "Modality": "MR",
      "NumberOfAverages": 1.0,
      "NumberOfPhaseEncodingSteps": 58,
      "PercentPhaseFieldOfView": 100.0,
      "PercentSampling": 75.0,
      "PerformedProcedureStepStartTime": "182355.268000",
      "PhotometricInterpretation": "MONOCHROME2",
      "PixelBandwidth": 2265.0,
      "PixelRepresentation": 0,
      "PixelSpacing": [2.0, 2.0],
      "ProtocolName": "func_vwfate_run1",
      "RepetitionTime": 1500.0,
      "Rows": 864,
      "SAR": 0.04197690279037,
      "SamplesPerPixel": 1,
      "ScanOptions": [
        "PFP",
        "FS"
],
      "ScanningSequence": "EP",
      "SequenceName": "*epfid2d1_72",
      "SequenceVariant": [
        "SK",
        "OSP"
],
      "SeriesDescription": "func_vwfate_run1",
      "SeriesNumber": 8,
      "SeriesTime": "185151.690000",
      "SliceLocation": -46.882451009051,
      "SliceThickness": 2.0,
      "SmallestImagePixelValue": 0,
      "SoftwareVersions": "syngo MR E11",
      "SpacingBetweenSlices": 2.000000030563,
      "SpecificCharacterSet": "ISO_IR 100",
      "StudyID": "1",
      "StudyTime": "182355.205000",
      "TransmitCoilName": "Body",
      "VariableFlipAngleFlag": "N",
      "WindowCenterWidthExplanation": "Algo1",
      "dBdt": 0.0},
    "slices": {}
  },
  "time": {
    "samples": {
      "AcquisitionNumber": [1, 2, 3, 4, 5, 6, 7, 8, 9, 10, 11, 12, 13, 14, 15, 16, 17, 18, 19, 20, 21, 22, 23, 24, 25, 26, 27, 28, 29, 30, 31, 32, 33, 34, 35, 36, 37, 38, 39, 40, 41, 42, 43, 44, 45, 46, 47, 48, 49, 50, 51, 52, 53, 54, 55, 56, 57, 58, 59, 60, 61, 62, 63, 64, 65, 66, 67, 68, 69, 70, 71, 72, 73, 74, 75, 76, 77, 78, 79, 80, 81, 82, 83, 84, 85, 86, 87, 88, 89, 90, 91, 92, 93, 94, 95, 96, 97, 98, 99, 100, 101, 102, 103, 104, 105, 106, 107, 108, 109, 110, 111, 112, 113, 114, 115, 116, 117, 118, 119, 120, 121, 122, 123, 124, 125, 126, 127, 128, 129, 130, 131, 132, 133, 134, 135, 136, 137, 138, 139, 140, 141, 142, 143, 144, 145, 146, 147, 148, 149, 150, 151, 152, 153, 154, 155, 156, 157, 158, 159, 160, 161, 162, 163, 164],
      "AcquisitionTime": ["185115.257500", "185116.757500", "185118.257500", "185119.757500", "185121.257500", "185122.757500", "185124.257500", "185125.757500", "185127.257500", "185128.757500", "185130.257500", "185131.757500", "185133.257500", "185134.757500", "185136.257500", "185137.757500", "185139.257500", "185140.757500", "185142.257500", "185143.757500", "185145.257500", "185146.757500", "185148.257500", "185149.757500", "185151.257500", "185152.757500", "185154.257500", "185155.757500", "185157.257500", "185158.757500", "185200.257500", "185201.757500", "185203.257500", "185204.757500", "185206.257500", "185207.757500", "185209.257500", "185210.757500", "185212.257500", "185213.757500", "185215.257500", "185216.757500", "185218.257500", "185219.757500", "185221.257500", "185222.757500", "185224.257500", "185225.757500", "185227.257500", "185228.757500", "185230.257500", "185231.757500", "185233.257500", "185234.757500", "185236.257500", "185237.757500", "185239.257500", "185240.757500", "185242.257500", "185243.757500", "185245.257500", "185246.757500", "185248.257500", "185249.757500", "185251.257500", "185252.757500", "185254.257500", "185255.757500", "185257.257500", "185258.757500", "185300.257500", "185301.757500", "185303.257500", "185304.757500", "185306.257500", "185307.757500", "185309.257500", "185310.757500", "185312.257500", "185313.757500", "185315.257500", "185316.757500", "185318.257500", "185319.757500", "185321.257500", "185322.757500", "185324.257500", "185325.757500", "185327.257500", "185328.757500", "185330.257500", "185331.757500", "185333.257500", "185334.757500", "185336.257500", "185337.757500", "185339.257500", "185340.757500", "185342.257500", "185343.757500", "185345.257500", "185346.757500", "185348.257500", "185349.757500", "185351.257500", "185352.757500", "185354.257500", "185355.757500", "185357.257500", "185358.757500", "185400.257500", "185401.757500", "185403.257500", "185404.757500", "185406.257500", "185407.757500", "185409.257500", "185410.757500", "185412.257500", "185413.757500", "185415.257500", "185416.757500", "185418.257500", "185419.757500", "185421.257500", "185422.757500", "185424.257500", "185425.757500", "185427.257500", "185428.757500", "185430.257500", "185431.757500", "185433.257500", "185434.757500", "185436.257500", "185437.757500", "185439.257500", "185440.757500", "185442.257500", "185443.757500", "185445.257500", "185446.757500", "185448.257500", "185449.757500", "185451.257500", "185452.757500", "185454.257500", "185455.757500", "185457.257500", "185458.757500", "185500.257500", "185501.757500", "185503.257500", "185504.757500", "185506.257500", "185507.757500", "185509.257500", "185510.757500", "185512.257500", "185513.757500", "185515.257500", "185516.757500", "185518.257500", "185519.757500"],
      "ContentTime": ["185151.694000", "185151.698000", "185151.701000", "185151.704000", "185151.707000", "185151.710000", "185151.713000", "185151.716000", "185151.719000", "185151.723000", "185151.726000", "185151.729000", "185151.732000", "185151.735000", "185151.738000", "185151.741000", "185151.745000", "185151.748000", "185151.756000", "185151.759000", "185151.762000", "185151.765000", "185151.769000", "185151.772000", "185231.690000", "185231.693000", "185231.696000", "185231.699000", "185231.702000", "185231.706000", "185231.709000", "185231.712000", "185231.715000", "185231.718000", "185231.721000", "185231.724000", "185231.727000", "185231.730000", "185231.733000", "185231.736000", "185231.740000", "185231.743000", "185231.746000", "185231.749000", "185231.752000", "185231.755000", "185231.758000", "185231.761000", "185231.764000", "185231.768000", "185311.690000", "185311.693000", "185311.696000", "185311.699000", "185311.703000", "185311.706000", "185311.709000", "185311.712000", "185311.715000", "185311.718000", "185311.721000", "185311.724000", "185311.727000", "185311.730000", "185311.733000", "185311.736000", "185311.740000", "185311.743000", "185311.746000", "185311.749000", "185311.752000", "185311.755000", "185311.758000", "185311.761000", "185311.764000", "185311.767000", "185311.770000", "185351.689000", "185351.692000", "185351.695000", "185351.699000", "185351.702000", "185351.705000", "185351.708000", "185351.711000", "185351.714000", "185351.717000", "185351.720000", "185351.724000", "185351.727000", "185351.730000", "185351.733000", "185351.736000", "185351.739000", "185351.742000", "185351.745000", "185351.749000", "185351.752000", "185351.755000", "185351.758000", "185351.761000", "185351.764000", "185351.767000", "185351.770000", "185431.689000", "185431.692000", "185431.695000", "185431.699000", "185431.702000", "185431.705000", "185431.708000", "185431.711000", "185431.714000", "185431.717000", "185431.720000", "185431.723000", "185431.726000", "185431.729000", "185431.732000", "185431.735000", "185431.738000", "185431.751000", "185431.754000", "185431.758000", "185431.761000", "185431.764000", "185431.767000", "185431.770000", "185431.773000", "185431.776000", "185511.690000", "185511.693000", "185511.697000", "185511.700000", "185511.703000", "185511.706000", "185511.709000", "185511.712000", "185511.715000", "185511.718000", "185511.721000", "185511.725000", "185511.728000", "185511.731000", "185511.734000", "185511.737000", "185511.740000", "185511.743000", "185511.746000", "185511.749000", "185511.753000", "185511.756000", "185511.759000", "185511.762000", "185511.765000", "185511.768000", "185511.771000", "185521.313000", "185521.317000", "185521.320000", "185521.324000", "185521.327000", "185521.330000", "185521.334000"],
      "InstanceCreationTime": ["185151.694000", "185151.698000", "185151.701000", "185151.704000", "185151.707000", "185151.710000", "185151.713000", "185151.716000", "185151.719000", "185151.723000", "185151.726000", "185151.729000", "185151.732000", "185151.735000", "185151.738000", "185151.741000", "185151.745000", "185151.748000", "185151.756000", "185151.759000", "185151.762000", "185151.765000", "185151.769000", "185151.772000", "185231.690000", "185231.693000", "185231.696000", "185231.699000", "185231.702000", "185231.706000", "185231.709000", "185231.712000", "185231.715000", "185231.718000", "185231.721000", "185231.724000", "185231.727000", "185231.730000", "185231.733000", "185231.736000", "185231.740000", "185231.743000", "185231.746000", "185231.749000", "185231.752000", "185231.755000", "185231.758000", "185231.761000", "185231.764000", "185231.768000", "185311.690000", "185311.693000", "185311.696000", "185311.699000", "185311.703000", "185311.706000", "185311.709000", "185311.712000", "185311.715000", "185311.718000", "185311.721000", "185311.724000", "185311.727000", "185311.730000", "185311.733000", "185311.736000", "185311.740000", "185311.743000", "185311.746000", "185311.749000", "185311.752000", "185311.755000", "185311.758000", "185311.761000", "185311.764000", "185311.767000", "185311.770000", "185351.689000", "185351.692000", "185351.695000", "185351.699000", "185351.702000", "185351.705000", "185351.708000", "185351.711000", "185351.714000", "185351.717000", "185351.720000", "185351.724000", "185351.727000", "185351.730000", "185351.733000", "185351.736000", "185351.739000", "185351.742000", "185351.745000", "185351.749000", "185351.752000", "185351.755000", "185351.758000", "185351.761000", "185351.764000", "185351.767000", "185351.770000", "185431.689000", "185431.692000", "185431.695000", "185431.699000", "185431.702000", "185431.705000", "185431.708000", "185431.711000", "185431.714000", "185431.717000", "185431.720000", "185431.723000", "185431.726000", "185431.729000", "185431.732000", "185431.735000", "185431.738000", "185431.751000", "185431.754000", "185431.758000", "185431.761000", "185431.764000", "185431.767000", "185431.770000", "185431.773000", "185431.776000", "185511.690000", "185511.693000", "185511.697000", "185511.700000", "185511.703000", "185511.706000", "185511.709000", "185511.712000", "185511.715000", "185511.718000", "185511.721000", "185511.725000", "185511.728000", "185511.731000", "185511.734000", "185511.737000", "185511.740000", "185511.743000", "185511.746000", "185511.749000", "185511.753000", "185511.756000", "185511.759000", "185511.762000", "185511.765000", "185511.768000", "185511.771000", "185521.313000", "185521.317000", "185521.320000", "185521.324000", "185521.327000", "185521.330000", "185521.334000"],
      "InstanceNumber": [1, 2, 3, 4, 5, 6, 7, 8, 9, 10, 11, 12, 13, 14, 15, 16, 17, 18, 19, 20, 21, 22, 23, 24, 25, 26, 27, 28, 29, 30, 31, 32, 33, 34, 35, 36, 37, 38, 39, 40, 41, 42, 43, 44, 45, 46, 47, 48, 49, 50, 51, 52, 53, 54, 55, 56, 57, 58, 59, 60, 61, 62, 63, 64, 65, 66, 67, 68, 69, 70, 71, 72, 73, 74, 75, 76, 77, 78, 79, 80, 81, 82, 83, 84, 85, 86, 87, 88, 89, 90, 91, 92, 93, 94, 95, 96, 97, 98, 99, 100, 101, 102, 103, 104, 105, 106, 107, 108, 109, 110, 111, 112, 113, 114, 115, 116, 117, 118, 119, 120, 121, 122, 123, 124, 125, 126, 127, 128, 129, 130, 131, 132, 133, 134, 135, 136, 137, 138, 139, 140, 141, 142, 143, 144, 145, 146, 147, 148, 149, 150, 151, 152, 153, 154, 155, 156, 157, 158, 159, 160, 161, 162, 163, 164],
      "LargestImagePixelValue": [2307, 2291, 2352, 2370, 2399, 2400, 2291, 2283, 2315, 2300, 2268, 2275, 2283, 2263, 2288, 2294, 2268, 2273, 2297, 2286, 2298, 2288, 2281, 2289, 2285, 2309, 2277, 2292, 2281, 2271, 2266, 2285, 2277, 2275, 2264, 2274, 2278, 2266, 2281, 2290, 2284, 2269, 2296, 2269, 2272, 2287, 2292, 2261, 2260, 2247, 2262, 2279, 2272, 2263, 2285, 2291, 2283, 2306, 2267, 2264, 2248, 2273, 2275, 2265, 2249, 2270, 2286, 2280, 2279, 2277, 2275, 2268, 2288, 2297, 2292, 2293, 2274, 2285, 2302, 2288, 2285, 2304, 2282, 2295, 2273, 2273, 2333, 2295, 2260, 2283, 2264, 2292, 2314, 2278, 2327, 2284, 2295, 2276, 2241, 2248, 2263, 2316, 2265, 2236, 2280, 2271, 2230, 2260, 2271, 2300, 2315, 2300, 2282, 2299, 2302, 2295, 2286, 2297, 2269, 2267, 2280, 2274, 2284, 2254, 2265, 2269, 2258, 2263, 2248, 2283, 2273, 2264, 2279, 2293, 2326, 2272, 2297, 2279, 2267, 2268, 2280, 2277, 2251, 2297, 2260, 2293, 2283, 2296, 2279, 2270, 2273, 2270, 2281, 2292, 2279, 2302, 2273, 2303, 2299, 2297, 2302, 2313, 2340, 2320],
      "WindowCenter": [708.0, 708.0, 712.0, 712.0, 712.0, 711.0, 710.0, 709.0, 709.0, 709.0, 708.0, 708.0, 708.0, 709.0, 709.0, 710.0, 710.0, 710.0, 710.0, 710.0, 710.0, 711.0, 711.0, 712.0, 711.0, 711.0, 711.0, 711.0, 710.0, 709.0, 709.0, 710.0, 712.0, 711.0, 709.0, 707.0, 707.0, 708.0, 709.0, 710.0, 711.0, 710.0, 710.0, 709.0, 708.0, 710.0, 710.0, 709.0, 708.0, 707.0, 708.0, 709.0, 709.0, 708.0, 710.0, 710.0, 708.0, 707.0, 707.0, 707.0, 707.0, 708.0, 708.0, 708.0, 708.0, 708.0, 709.0, 709.0, 708.0, 708.0, 708.0, 709.0, 711.0, 712.0, 711.0, 710.0, 709.0, 709.0, 709.0, 709.0, 709.0, 710.0, 709.0, 709.0, 708.0, 707.0, 711.0, 709.0, 707.0, 707.0, 705.0, 705.0, 705.0, 701.0, 702.0, 701.0, 702.0, 703.0, 704.0, 705.0, 706.0, 706.0, 705.0, 705.0, 705.0, 706.0, 706.0, 707.0, 707.0, 707.0, 708.0, 708.0, 707.0, 707.0, 707.0, 708.0, 708.0, 708.0, 708.0, 708.0, 709.0, 708.0, 706.0, 706.0, 705.0, 705.0, 705.0, 705.0, 705.0, 706.0, 706.0, 706.0, 707.0, 707.0, 707.0, 707.0, 708.0, 707.0, 707.0, 706.0, 707.0, 708.0, 708.0, 708.0, 708.0, 708.0, 708.0, 708.0, 706.0, 705.0, 705.0, 705.0, 706.0, 706.0, 707.0, 706.0, 705.0, 705.0, 706.0, 706.0, 706.0, 707.0, 709.0, 708.0],
      "WindowWidth": [1525.0, 1524.0, 1534.0, 1536.0, 1534.0, 1531.0, 1530.0, 1528.0, 1527.0, 1526.0, 1523.0, 1523.0, 1525.0, 1526.0, 1528.0, 1529.0, 1529.0, 1531.0, 1529.0, 1529.0, 1530.0, 1531.0, 1533.0, 1535.0, 1533.0, 1532.0, 1531.0, 1532.0, 1531.0, 1526.0, 1527.0, 1529.0, 1534.0, 1532.0, 1527.0, 1522.0, 1521.0, 1523.0, 1527.0, 1530.0, 1531.0, 1529.0, 1529.0, 1526.0, 1524.0, 1528.0, 1529.0, 1528.0, 1524.0, 1522.0, 1524.0, 1526.0, 1526.0, 1525.0, 1529.0, 1529.0, 1524.0, 1522.0, 1520.0, 1521.0, 1523.0, 1523.0, 1524.0, 1524.0, 1524.0, 1525.0, 1526.0, 1526.0, 1524.0, 1523.0, 1524.0, 1526.0, 1531.0, 1535.0, 1532.0, 1529.0, 1527.0, 1526.0, 1527.0, 1528.0, 1528.0, 1528.0, 1526.0, 1526.0, 1524.0, 1522.0, 1531.0, 1528.0, 1522.0, 1520.0, 1517.0, 1516.0, 1515.0, 1504.0, 1508.0, 1504.0, 1507.0, 1510.0, 1513.0, 1516.0, 1518.0, 1518.0, 1516.0, 1515.0, 1516.0, 1519.0, 1519.0, 1521.0, 1521.0, 1522.0, 1525.0, 1525.0, 1521.0, 1520.0, 1521.0, 1523.0, 1524.0, 1523.0, 1524.0, 1523.0, 1526.0, 1525.0, 1519.0, 1517.0, 1516.0, 1516.0, 1515.0, 1515.0, 1517.0, 1518.0, 1519.0, 1520.0, 1520.0, 1520.0, 1521.0, 1521.0, 1523.0, 1521.0, 1520.0, 1519.0, 1521.0, 1523.0, 1523.0, 1525.0, 1525.0, 1524.0, 1525.0, 1522.0, 1519.0, 1516.0, 1516.0, 1515.0, 1519.0, 1520.0, 1521.0, 1518.0, 1517.0, 1517.0, 1517.0, 1517.0, 1518.0, 1520.0, 1526.0, 1525.0]
    },
    "slices": {}
  }
}