{
  "AcquisitionMatrixPE": 72,
  "AcquisitionNumber": 1,
  "AcquisitionTime": "19:02:42.382500",
  "BandwidthPerPixelPhaseEncode": 17.943,
  "BaseResolution": 96,
  "BodyPartExamined": "BRAIN",
  "CoilCombinationMethod": "Sum of Squares",
  "ConsistencyInfo": "N4_VE11C_LATEST_20160120",
  "ConversionSoftware": "dcm2niix",
  "ConversionSoftwareVersion": "v1.0.20211006",
  "DerivedVendorReportedEchoSpacing": 0.000552897,
  "DeviceSerialNumber": "166011",
  "EchoTime": 0.03,
  "EchoTrainLength": 58,
  "EffectiveEchoSpacing": 0.000580542,
  "FlipAngle": 62,
  "ImageOrientationPatientDICOM": [0.997375, -0.0158571, 0.0706545, 0.0264655, 0.98805, -0.151844],
  "ImageType": [
    "ORIGINAL",
    "PRIMARY",
    "M",
    "ND",
    "MOSAIC"
],
  "ImagingFrequency": 123.259,
  "InPlanePhaseEncodingDirectionDICOM": "COL",
  "InstitutionAddress": "West 130th Street 610,NY,NYC,US,10025",
  "InstitutionName": "MBBI",
  "MRAcquisitionType": "2D",
  "MagneticFieldStrength": 3,
  "Manufacturer": "Siemens",
  "ManufacturersModelName": "Prisma",
  "Modality": "MR",
  "MultibandAccelerationFactor": 3,
  "PartialFourier": 0.75,
  "PatientPosition": "HFS",
  "PercentPhaseFOV": 100,
  "PercentSampling": 75,
  "PhaseEncodingDirection": "j-",
  "PhaseEncodingSteps": 58,
  "PhaseOversampling": 0.05,
  "PhaseResolution": 0.75,
  "PixelBandwidth": 2265,
  "ProcedureStepDescription": "White^Word_recognition",
  "ProtocolName": "func_catLoc_run1",
  "PulseSequenceDetails": "%SiemensSeq%\\ep2d_bold",
  "ReceiveCoilActiveElements": "HC1-7",
  "ReceiveCoilName": "HeadNeck_64",
  "ReconMatrixPE": 96,
  "RefLinesPE": 40,
  "RepetitionTime": 1.5,
  "SAR": 0.0421083,
  "ScanOptions": "PFP\\FS",
  "ScanningSequence": "EP",
  "SequenceName": "*epfid2d1_72",
  "SequenceVariant": "SK\\OSP",
  "SeriesDescription": "func_catLoc_run1",
  "SeriesNumber": 10,
  "ShimSetting": [-1124, -1364, 710, 526, -49, 63, -110, -1],
  "SliceThickness": 2,
  "SliceTiming": [1.0775, 0, 0.74, 0.0675, 0.8075, 0.135, 0.875, 0.2025, 0.9425, 0.27, 1.01, 0.405, 1.145, 0.47, 1.21, 0.5375, 1.2775, 0.605, 1.345, 0.6725, 1.4125, 0.3375, 1.0775, 0, 0.74, 0.0675, 0.8075, 0.135, 0.875, 0.2025, 0.9425, 0.27, 1.01, 0.405, 1.145, 0.47, 1.21, 0.5375, 1.2775, 0.605, 1.345, 0.6725, 1.4125, 0.3375, 1.0775, 0, 0.74, 0.0675, 0.8075, 0.135, 0.875, 0.2025, 0.9425, 0.27, 1.01, 0.405, 1.145, 0.47, 1.21, 0.5375, 1.2775, 0.605, 1.345, 0.6725, 1.4125, 0.3375],
  "SoftwareVersions": "syngo MR E11",
  "SpacingBetweenSlices": 2,
  "StationName": "AWP166011",
  "TaskName": "catLoc",
  "TotalReadoutTime": 0.0551515,
  "TxRefAmp": 212.648,
  "dcmmeta_affine": [
    [-1.9947495460510254, 0.05293107032775879, 0.13480475544929504, 84.245849609375],
    [0.03171414136886597, 1.9761000871658325, -0.30663102865219116, -70.00260925292969],
    [0.1413090080022812, 0.3036884665489197, 1.9717518091201782, -64.2000732421875],
    [0.0, 0.0, 0.0, 1.0]
],
  "dcmmeta_reorient_transform": [
    [0.0, -1.0, 0.0, 95.0],
    [1.0, 0.0, 0.0, 0.0],
    [0.0, 0.0, 1.0, 0.0],
    [0.0, 0.0, 0.0, 1.0]
],
  "dcmmeta_shape": [96, 96, 66, 214],
  "dcmmeta_slice_dim": 2,
  "dcmmeta_version": 0.6,
  "global": {
    "const": {
      "AcquisitionMatrix": [96, 0, 0, 72],
      "AngioFlag": "N",
      "BitsAllocated": 16,
      "BitsStored": 12,
      "BodyPartExamined": "BRAIN",
      "Columns": 864,
      "EchoNumbers": 1,
      "EchoTime": 30.0,
      "EchoTrainLength": 58,
      "FlipAngle": 62.0,
      "HighBit": 11,
      "ImageOrientationPatient": [0.99737480156462, -0.0158570713286, 0.07065450086739, 0.02646553568403, 0.9880500520566, -0.1518442295641],
      "ImagePositionPatient": [-875.58367855721, -864.37111291244, 27.004039027794],
      "ImageType": [
        "ORIGINAL",
        "PRIMARY",
        "M",
        "ND",
        "MOSAIC"
],
      "ImagedNucleus": "1H",
      "ImagingFrequency": 123.259441,
      "InPlanePhaseEncodingDirection": "COL",
      "MRAcquisitionType": "2D",
      "MagneticFieldStrength": 3.0,
      "Manufacturer": "SIEMENS",
      "ManufacturerModelName": "Prisma",
      "Modality": "MR",
      "NumberOfAverages": 1.0,
      "NumberOfPhaseEncodingSteps": 58,
      "PercentPhaseFieldOfView": 100.0,
      "PercentSampling": 75.0,
      "PerformedProcedureStepStartTime": "182355.268000",
      "PhotometricInterpretation": "MONOCHROME2",
      "PixelBandwidth": 2265.0,
      "PixelRepresentation": 0,
      "PixelSpacing": [2.0, 2.0],
      "ProtocolName": "func_catLoc_run1",
      "RepetitionTime": 1500.0,
      "Rows": 864,
      "SAR": 0.04210826596976,
      "SamplesPerPixel": 1,
      "ScanOptions": [
        "PFP",
        "FS"
],
      "ScanningSequence": "EP",
      "SequenceName": "*epfid2d1_72",
      "SequenceVariant": [
        "SK",
        "OSP"
],
      "SeriesDescription": "func_catLoc_run1",
      "SeriesNumber": 10,
      "SeriesTime": "190324.882000",
      "SliceLocation": -46.882451009051,
      "SliceThickness": 2.0,
      "SmallestImagePixelValue": 0,
      "SoftwareVersions": "syngo MR E11",
      "SpacingBetweenSlices": 2.000000030563,
      "SpecificCharacterSet": "ISO_IR 100",
      "StudyID": "1",
      "StudyTime": "182355.205000",
      "TransmitCoilName": "Body",
      "VariableFlipAngleFlag": "N",
      "WindowCenterWidthExplanation": "Algo1",
      "dBdt": 0.0},
    "slices": {}
  },
  "time": {
    "samples": {
      "AcquisitionNumber": [1, 2, 3, 4, 5, 6, 7, 8, 9, 10, 11, 12, 13, 14, 15, 16, 17, 18, 19, 20, 21, 22, 23, 24, 25, 26, 27, 28, 29, 30, 31, 32, 33, 34, 35, 36, 37, 38, 39, 40, 41, 42, 43, 44, 45, 46, 47, 48, 49, 50, 51, 52, 53, 54, 55, 56, 57, 58, 59, 60, 61, 62, 63, 64, 65, 66, 67, 68, 69, 70, 71, 72, 73, 74, 75, 76, 77, 78, 79, 80, 81, 82, 83, 84, 85, 86, 87, 88, 89, 90, 91, 92, 93, 94, 95, 96, 97, 98, 99, 100, 101, 102, 103, 104, 105, 106, 107, 108, 109, 110, 111, 112, 113, 114, 115, 116, 117, 118, 119, 120, 121, 122, 123, 124, 125, 126, 127, 128, 129, 130, 131, 132, 133, 134, 135, 136, 137, 138, 139, 140, 141, 142, 143, 144, 145, 146, 147, 148, 149, 150, 151, 152, 153, 154, 155, 156, 157, 158, 159, 160, 161, 162, 163, 164, 165, 166, 167, 168, 169, 170, 171, 172, 173, 174, 175, 176, 177, 178, 179, 180, 181, 182, 183, 184, 185, 186, 187, 188, 189, 190, 191, 192, 193, 194, 195, 196, 197, 198, 199, 200, 201, 202, 203, 204, 205, 206, 207, 208, 209, 210, 211, 212, 213, 214],
      "AcquisitionTime": ["190242.382500", "190243.882500", "190245.382500", "190246.882500", "190248.382500", "190249.882500", "190251.382500", "190252.882500", "190254.382500", "190255.882500", "190257.382500", "190258.882500", "190300.382500", "190301.882500", "190303.382500", "190304.882500", "190306.382500", "190307.882500", "190309.382500", "190310.882500", "190312.382500", "190313.882500", "190315.382500", "190316.882500", "190318.382500", "190319.882500", "190321.382500", "190322.882500", "190324.382500", "190325.882500", "190327.382500", "190328.882500", "190330.382500", "190331.882500", "190333.382500", "190334.882500", "190336.382500", "190337.882500", "190339.382500", "190340.882500", "190342.382500", "190343.882500", "190345.382500", "190346.882500", "190348.382500", "190349.882500", "190351.382500", "190352.882500", "190354.382500", "190355.882500", "190357.382500", "190358.882500", "190400.382500", "190401.882500", "190403.382500", "190404.882500", "190406.382500", "190407.882500", "190409.382500", "190410.882500", "190412.382500", "190413.882500", "190415.382500", "190416.882500", "190418.382500", "190419.882500", "190421.382500", "190422.882500", "190424.382500", "190425.882500", "190427.382500", "190428.882500", "190430.382500", "190431.882500", "190433.382500", "190434.882500", "190436.382500", "190437.882500", "190439.382500", "190440.882500", "190442.382500", "190443.882500", "190445.382500", "190446.882500", "190448.382500", "190449.882500", "190451.382500", "190452.882500", "190454.382500", "190455.882500", "190457.382500", "190458.882500", "190500.382500", "190501.882500", "190503.382500", "190504.882500", "190506.382500", "190507.882500", "190509.382500", "190510.882500", "190512.382500", "190513.882500", "190515.382500", "190516.882500", "190518.382500", "190519.882500", "190521.382500", "190522.882500", "190524.382500", "190525.882500", "190527.382500", "190528.882500", "190530.382500", "190531.882500", "190533.382500", "190534.882500", "190536.382500", "190537.882500", "190539.382500", "190540.882500", "190542.382500", "190543.882500", "190545.382500", "190546.882500", "190548.382500", "190549.882500", "190551.382500", "190552.882500", "190554.382500", "190555.882500", "190557.382500", "190558.882500", "190600.382500", "190601.882500", "190603.382500", "190604.882500", "190606.382500", "190607.882500", "190609.382500", "190610.882500", "190612.382500", "190613.882500", "190615.382500", "190616.882500", "190618.382500", "190619.882500", "190621.382500", "190622.882500", "190624.382500", "190625.882500", "190627.382500", "190628.882500", "190630.382500", "190631.882500", "190633.382500", "190634.882500", "190636.382500", "190637.882500", "190639.382500", "190640.882500", "190642.382500", "190643.882500", "190645.382500", "190646.882500", "190648.382500", "190649.882500", "190651.382500", "190652.882500", "190654.382500", "190655.882500", "190657.382500", "190658.882500", "190700.382500", "190701.882500", "190703.382500", "190704.882500", "190706.382500", "190707.882500", "190709.382500", "190710.882500", "190712.382500", "190713.882500", "190715.382500", "190716.882500", "190718.382500", "190719.882500", "190721.382500", "190722.882500", "190724.382500", "190725.882500", "190727.382500", "190728.882500", "190730.382500", "190731.882500", "190733.382500", "190734.882500", "190736.382500", "190737.882500", "190739.382500", "190740.882500", "190742.382500", "190743.882500", "190745.382500", "190746.882500", "190748.382500", "190749.882500", "190751.382500", "190752.882500", "190754.382500", "190755.882500", "190757.382500", "190758.882500", "190800.382500", "190801.882500"],
      "ContentTime": ["190324.886000", "190324.890000", "190324.899000", "190324.903000", "190324.906000", "190324.911000", "190324.914000", "190324.917000", "190324.920000", "190324.923000", "190324.926000", "190324.929000", "190324.941000", "190324.945000", "190324.953000", "190324.956000", "190324.959000", "190324.962000", "190324.965000", "190324.968000", "190324.971000", "190324.975000", "190324.978000", "190324.981000", "190324.996000", "190325.001000", "190325.004000", "190325.007000", "190404.881000", "190404.895000", "190404.898000", "190404.901000", "190404.904000", "190404.907000", "190404.911000", "190404.914000", "190404.917000", "190404.920000", "190404.923000", "190404.926000", "190404.929000", "190404.932000", "190404.935000", "190404.941000", "190404.944000", "190404.947000", "190404.950000", "190404.953000", "190404.956000", "190404.959000", "190404.962000", "190404.965000", "190404.968000", "190404.971000", "190404.975000", "190444.881000", "190444.884000", "190444.887000", "190444.890000", "190444.894000", "190444.897000", "190444.900000", "190444.903000", "190444.906000", "190444.915000", "190444.918000", "190444.921000", "190444.924000", "190444.927000", "190444.930000", "190444.933000", "190444.936000", "190444.939000", "190444.942000", "190444.945000", "190444.956000", "190444.960000", "190444.963000", "190444.966000", "190444.969000", "190444.972000", "190444.975000", "190524.881000", "190524.884000", "190524.888000", "190524.891000", "190524.894000", "190524.897000", "190524.900000", "190524.903000", "190524.906000", "190524.909000", "190524.912000", "190524.915000", "190524.918000", "190524.921000", "190524.925000", "190524.928000", "190524.931000", "190524.934000", "190524.937000", "190524.940000", "190524.943000", "190524.946000", "190524.949000", "190524.952000", "190524.955000", "190524.958000", "190604.881000", "190604.884000", "190604.887000", "190604.890000", "190604.894000", "190604.897000", "190604.900000", "190604.903000", "190604.906000", "190604.909000", "190604.912000", "190604.915000", "190604.918000", "190604.921000", "190604.924000", "190604.927000", "190604.930000", "190604.933000", "190604.937000", "190604.940000", "190604.943000", "190604.946000", "190604.949000", "190604.952000", "190604.955000", "190604.958000", "190604.961000", "190644.880000", "190644.883000", "190644.887000", "190644.890000", "190644.893000", "190644.896000", "190644.899000", "190644.902000", "190644.905000", "190644.908000", "190644.911000", "190644.914000", "190644.917000", "190644.920000", "190644.924000", "190644.927000", "190644.930000", "190644.933000", "190644.936000", "190644.939000", "190644.942000", "190644.945000", "190644.948000", "190644.951000", "190644.954000", "190644.957000", "190644.960000", "190724.881000", "190724.884000", "190724.888000", "190724.891000", "190724.894000", "190724.897000", "190724.900000", "190724.903000", "190724.906000", "190724.909000", "190724.912000", "190724.915000", "190724.918000", "190724.922000", "190724.925000", "190724.928000", "190724.931000", "190724.934000", "190724.937000", "190724.940000", "190724.943000", "190724.946000", "190724.949000", "190724.952000", "190724.955000", "190724.959000", "190802.797000", "190802.801000", "190802.804000", "190802.807000", "190802.811000", "190802.814000", "190802.817000", "190802.820000", "190802.824000", "190802.827000", "190802.830000", "190802.845000", "190802.856000", "190802.860000", "190802.863000", "190802.866000", "190802.870000", "190802.873000", "190802.876000", "190802.880000", "190802.883000", "190802.886000", "190802.889000", "190802.892000", "190802.896000", "190802.899000"],
      "InstanceCreationTime": ["190324.886000", "190324.890000", "190324.899000", "190324.903000", "190324.906000", "190324.911000", "190324.914000", "190324.917000", "190324.920000", "190324.923000", "190324.926000", "190324.929000", "190324.941000", "190324.945000", "190324.953000", "190324.956000", "190324.959000", "190324.962000", "190324.965000", "190324.968000", "190324.971000", "190324.975000", "190324.978000", "190324.981000", "190324.996000", "190325.001000", "190325.004000", "190325.007000", "190404.881000", "190404.895000", "190404.898000", "190404.901000", "190404.904000", "190404.907000", "190404.911000", "190404.914000", "190404.917000", "190404.920000", "190404.923000", "190404.926000", "190404.929000", "190404.932000", "190404.935000", "190404.941000", "190404.944000", "190404.947000", "190404.950000", "190404.953000", "190404.956000", "190404.959000", "190404.962000", "190404.965000", "190404.968000", "190404.971000", "190404.975000", "190444.881000", "190444.884000", "190444.887000", "190444.890000", "190444.894000", "190444.897000", "190444.900000", "190444.903000", "190444.906000", "190444.915000", "190444.918000", "190444.921000", "190444.924000", "190444.927000", "190444.930000", "190444.933000", "190444.936000", "190444.939000", "190444.942000", "190444.945000", "190444.956000", "190444.960000", "190444.963000", "190444.966000", "190444.969000", "190444.972000", "190444.975000", "190524.881000", "190524.884000", "190524.888000", "190524.891000", "190524.894000", "190524.897000", "190524.900000", "190524.903000", "190524.906000", "190524.909000", "190524.912000", "190524.915000", "190524.918000", "190524.921000", "190524.925000", "190524.928000", "190524.931000", "190524.934000", "190524.937000", "190524.940000", "190524.943000", "190524.946000", "190524.949000", "190524.952000", "190524.955000", "190524.958000", "190604.881000", "190604.884000", "190604.887000", "190604.890000", "190604.894000", "190604.897000", "190604.900000", "190604.903000", "190604.906000", "190604.909000", "190604.912000", "190604.915000", "190604.918000", "190604.921000", "190604.924000", "190604.927000", "190604.930000", "190604.933000", "190604.937000", "190604.940000", "190604.943000", "190604.946000", "190604.949000", "190604.952000", "190604.955000", "190604.958000", "190604.961000", "190644.880000", "190644.883000", "190644.887000", "190644.890000", "190644.893000", "190644.896000", "190644.899000", "190644.902000", "190644.905000", "190644.908000", "190644.911000", "190644.914000", "190644.917000", "190644.920000", "190644.924000", "190644.927000", "190644.930000", "190644.933000", "190644.936000", "190644.939000", "190644.942000", "190644.945000", "190644.948000", "190644.951000", "190644.954000", "190644.957000", "190644.960000", "190724.881000", "190724.884000", "190724.888000", "190724.891000", "190724.894000", "190724.897000", "190724.900000", "190724.903000", "190724.906000", "190724.909000", "190724.912000", "190724.915000", "190724.918000", "190724.922000", "190724.925000", "190724.928000", "190724.931000", "190724.934000", "190724.937000", "190724.940000", "190724.943000", "190724.946000", "190724.949000", "190724.952000", "190724.955000", "190724.959000", "190802.797000", "190802.801000", "190802.804000", "190802.807000", "190802.811000", "190802.814000", "190802.817000", "190802.820000", "190802.824000", "190802.827000", "190802.830000", "190802.845000", "190802.856000", "190802.860000", "190802.863000", "190802.866000", "190802.870000", "190802.873000", "190802.876000", "190802.880000", "190802.883000", "190802.886000", "190802.889000", "190802.892000", "190802.896000", "190802.899000"],
      "InstanceNumber": [1, 2, 3, 4, 5, 6, 7, 8, 9, 10, 11, 12, 13, 14, 15, 16, 17, 18, 19, 20, 21, 22, 23, 24, 25, 26, 27, 28, 29, 30, 31, 32, 33, 34, 35, 36, 37, 38, 39, 40, 41, 42, 43, 44, 45, 46, 47, 48, 49, 50, 51, 52, 53, 54, 55, 56, 57, 58, 59, 60, 61, 62, 63, 64, 65, 66, 67, 68, 69, 70, 71, 72, 73, 74, 75, 76, 77, 78, 79, 80, 81, 82, 83, 84, 85, 86, 87, 88, 89, 90, 91, 92, 93, 94, 95, 96, 97, 98, 99, 100, 101, 102, 103, 104, 105, 106, 107, 108, 109, 110, 111, 112, 113, 114, 115, 116, 117, 118, 119, 120, 121, 122, 123, 124, 125, 126, 127, 128, 129, 130, 131, 132, 133, 134, 135, 136, 137, 138, 139, 140, 141, 142, 143, 144, 145, 146, 147, 148, 149, 150, 151, 152, 153, 154, 155, 156, 157, 158, 159, 160, 161, 162, 163, 164, 165, 166, 167, 168, 169, 170, 171, 172, 173, 174, 175, 176, 177, 178, 179, 180, 181, 182, 183, 184, 185, 186, 187, 188, 189, 190, 191, 192, 193, 194, 195, 196, 197, 198, 199, 200, 201, 202, 203, 204, 205, 206, 207, 208, 209, 210, 211, 212, 213, 214],
      "LargestImagePixelValue": [2455, 2404, 2332, 2360, 2364, 2327, 2295, 2276, 2288, 2312, 2324, 2337, 2330, 2317, 2301, 2304, 2313, 2332, 2343, 2353, 2322, 2360, 2357, 2369, 2383, 2339, 2342, 2361, 2361, 2403, 2373, 2352, 2372, 2363, 2343, 2351, 2411, 2452, 2433, 2424, 2403, 2397, 2376, 2437, 2423, 2419, 2410, 2374, 2380, 2400, 2426, 2434, 2380, 2323, 2356, 2383, 2374, 2346, 2327, 2370, 2332, 2329, 2369, 2342, 2340, 2331, 2314, 2308, 2319, 2303, 2331, 2339, 2337, 2322, 2340, 2366, 2352, 2348, 2328, 2320, 2345, 2356, 2332, 2345, 2320, 2361, 2305, 2325, 2315, 2318, 2312, 2304, 2310, 2311, 2300, 2315, 2322, 2304, 2308, 2295, 2316, 2297, 2299, 2312, 2300, 2298, 2295, 2309, 2306, 2342, 2322, 2307, 2349, 2312, 2342, 2298, 2299, 2340, 2326, 2298, 2306, 2313, 2308, 2285, 2313, 2285, 2300, 2325, 2328, 2303, 2315, 2315, 2340, 2302, 2309, 2292, 2313, 2305, 2356, 2336, 2331, 2307, 2303, 2309, 2308, 2322, 2303, 2325, 2318, 2331, 2327, 2298, 2303, 2302, 2340, 2332, 2318, 2323, 2294, 2296, 2284, 2365, 2442, 2370, 2346, 2328, 2318, 2325, 2328, 2333, 2346, 2351, 2365, 2365, 2359, 2387, 2387, 2353, 2378, 2387, 2371, 2375, 2355, 2378, 2365, 2383, 2406, 2413, 2336, 2371, 2368, 2331, 2361, 2311, 2308, 2307, 2292, 2319, 2299, 2314, 2289, 2317, 2307, 2318, 2312, 2329, 2325, 2335, 2299, 2313, 2312, 2295, 2311, 2329],
      "WindowCenter": [710.0, 708.0, 707.0, 707.0, 707.0, 706.0, 706.0, 705.0, 706.0, 706.0, 707.0, 707.0, 706.0, 706.0, 706.0, 706.0, 706.0, 707.0, 707.0, 707.0, 707.0, 708.0, 708.0, 707.0, 707.0, 706.0, 706.0, 707.0, 707.0, 707.0, 707.0, 706.0, 706.0, 706.0, 707.0, 707.0, 709.0, 710.0, 709.0, 708.0, 707.0, 707.0, 707.0, 708.0, 708.0, 708.0, 707.0, 706.0, 706.0, 707.0, 708.0, 708.0, 707.0, 707.0, 708.0, 708.0, 708.0, 707.0, 706.0, 707.0, 706.0, 706.0, 707.0, 707.0, 706.0, 706.0, 706.0, 705.0, 706.0, 705.0, 706.0, 706.0, 706.0, 706.0, 707.0, 707.0, 707.0, 707.0, 706.0, 706.0, 706.0, 706.0, 706.0, 706.0, 706.0, 706.0, 706.0, 707.0, 706.0, 705.0, 705.0, 705.0, 706.0, 707.0, 707.0, 707.0, 707.0, 706.0, 706.0, 706.0, 705.0, 706.0, 706.0, 706.0, 706.0, 705.0, 705.0, 705.0, 705.0, 706.0, 706.0, 705.0, 705.0, 705.0, 705.0, 704.0, 703.0, 703.0, 703.0, 703.0, 704.0, 704.0, 704.0, 704.0, 704.0, 704.0, 704.0, 705.0, 705.0, 704.0, 705.0, 704.0, 704.0, 704.0, 704.0, 703.0, 704.0, 704.0, 705.0, 705.0, 705.0, 704.0, 703.0, 703.0, 703.0, 704.0, 704.0, 704.0, 704.0, 705.0, 705.0, 705.0, 704.0, 704.0, 704.0, 705.0, 704.0, 704.0, 704.0, 703.0, 704.0, 706.0, 705.0, 704.0, 702.0, 701.0, 700.0, 699.0, 700.0, 701.0, 701.0, 701.0, 702.0, 702.0, 703.0, 703.0, 704.0, 703.0, 703.0, 704.0, 704.0, 703.0, 703.0, 703.0, 703.0, 705.0, 705.0, 706.0, 703.0, 705.0, 705.0, 706.0, 706.0, 705.0, 704.0, 704.0, 704.0, 704.0, 704.0, 704.0, 704.0, 704.0, 704.0, 704.0, 705.0, 705.0, 705.0, 704.0, 703.0, 703.0, 703.0, 704.0, 704.0, 705.0],
      "WindowWidth": [1531.0, 1524.0, 1522.0, 1523.0, 1523.0, 1520.0, 1518.0, 1518.0, 1518.0, 1520.0, 1521.0, 1522.0, 1521.0, 1520.0, 1519.0, 1519.0, 1521.0, 1522.0, 1523.0, 1523.0, 1523.0, 1524.0, 1525.0, 1523.0, 1522.0, 1520.0, 1519.0, 1521.0, 1523.0, 1522.0, 1522.0, 1520.0, 1520.0, 1520.0, 1521.0, 1523.0, 1527.0, 1530.0, 1528.0, 1526.0, 1522.0, 1522.0, 1523.0, 1524.0, 1524.0, 1523.0, 1522.0, 1520.0, 1520.0, 1522.0, 1524.0, 1524.0, 1522.0, 1521.0, 1524.0, 1524.0, 1525.0, 1522.0, 1521.0, 1521.0, 1520.0, 1519.0, 1521.0, 1521.0, 1520.0, 1518.0, 1518.0, 1518.0, 1518.0, 1517.0, 1519.0, 1519.0, 1519.0, 1518.0, 1521.0, 1522.0, 1523.0, 1521.0, 1519.0, 1518.0, 1520.0, 1520.0, 1519.0, 1519.0, 1518.0, 1518.0, 1519.0, 1522.0, 1520.0, 1517.0, 1515.0, 1516.0, 1519.0, 1521.0, 1521.0, 1522.0, 1522.0, 1520.0, 1519.0, 1519.0, 1518.0, 1519.0, 1520.0, 1520.0, 1518.0, 1517.0, 1517.0, 1516.0, 1517.0, 1519.0, 1518.0, 1516.0, 1515.0, 1516.0, 1516.0, 1513.0, 1511.0, 1511.0, 1512.0, 1512.0, 1513.0, 1514.0, 1513.0, 1513.0, 1515.0, 1513.0, 1515.0, 1517.0, 1516.0, 1515.0, 1516.0, 1515.0, 1515.0, 1514.0, 1514.0, 1512.0, 1514.0, 1514.0, 1516.0, 1517.0, 1516.0, 1513.0, 1510.0, 1511.0, 1512.0, 1513.0, 1514.0, 1515.0, 1515.0, 1517.0, 1517.0, 1516.0, 1515.0, 1515.0, 1515.0, 1516.0, 1515.0, 1515.0, 1513.0, 1512.0, 1515.0, 1518.0, 1516.0, 1513.0, 1509.0, 1505.0, 1503.0, 1501.0, 1502.0, 1505.0, 1506.0, 1507.0, 1507.0, 1507.0, 1510.0, 1512.0, 1512.0, 1511.0, 1511.0, 1515.0, 1513.0, 1511.0, 1510.0, 1511.0, 1512.0, 1515.0, 1517.0, 1519.0, 1511.0, 1517.0, 1518.0, 1518.0, 1518.0, 1517.0, 1514.0, 1514.0, 1514.0, 1514.0, 1514.0, 1514.0, 1513.0, 1514.0, 1514.0, 1515.0, 1515.0, 1516.0, 1516.0, 1514.0, 1512.0, 1511.0, 1512.0, 1513.0, 1515.0, 1516.0]
    },
    "slices": {}
  }
}