{
  "AcquisitionMatrixPE": 72,
  "AcquisitionNumber": 1,
  "AcquisitionTime": "17:50:4.712500",
  "BandwidthPerPixelPhaseEncode": 17.943,
  "BaseResolution": 96,
  "BodyPartExamined": "BRAIN",
  "CoilCombinationMethod": "Sum of Squares",
  "ConsistencyInfo": "N4_VE11C_LATEST_20160120",
  "ConversionSoftware": "dcm2niix",
  "ConversionSoftwareVersion": "v1.0.20211006",
  "DerivedVendorReportedEchoSpacing": 0.000552897,
  "DeviceSerialNumber": "166011",
  "EchoTime": 0.03,
  "EchoTrainLength": 58,
  "EffectiveEchoSpacing": 0.000580542,
  "FlipAngle": 62,
  "ImageOrientationPatientDICOM": [0.99997, -0.00770501, -0.000243909, 0.00767939, 0.998412, -0.0558044],
  "ImageType": [
    "ORIGINAL",
    "PRIMARY",
    "M",
    "ND",
    "MOSAIC"
],
  "ImagingFrequency": 123.259,
  "InPlanePhaseEncodingDirectionDICOM": "COL",
  "InstitutionAddress": "West 130th Street 610,NY,NYC,US,10025",
  "InstitutionName": "MBBI",
  "MRAcquisitionType": "2D",
  "MagneticFieldStrength": 3,
  "Manufacturer": "Siemens",
  "ManufacturersModelName": "Prisma",
  "Modality": "MR",
  "MultibandAccelerationFactor": 3,
  "PartialFourier": 0.75,
  "PatientPosition": "HFS",
  "PercentPhaseFOV": 100,
  "PercentSampling": 75,
  "PhaseEncodingDirection": "j-",
  "PhaseEncodingSteps": 58,
  "PhaseOversampling": 0.05,
  "PhaseResolution": 0.75,
  "PixelBandwidth": 2265,
  "ProcedureStepDescription": "White^Word_recognition",
  "ProtocolName": "func_vwfate_run12",
  "PulseSequenceDetails": "%SiemensSeq%\\ep2d_bold",
  "ReceiveCoilActiveElements": "HC1-7",
  "ReceiveCoilName": "HeadNeck_64",
  "ReconMatrixPE": 96,
  "RefLinesPE": 40,
  "RepetitionTime": 1.5,
  "SAR": 0.0439749,
  "ScanOptions": "PFP\\FS",
  "ScanningSequence": "EP",
  "SequenceName": "*epfid2d1_72",
  "SequenceVariant": "SK\\OSP",
  "SeriesDescription": "func_vwfate_run12",
  "SeriesNumber": 15,
  "ShimSetting": [-1151, -1371, 690, 634, -94, -39, 112, 3],
  "SliceThickness": 2,
  "SliceTiming": [1.0775, 0, 0.74, 0.0675, 0.8075, 0.135, 0.875, 0.2025, 0.9425, 0.27, 1.01, 0.405, 1.145, 0.4725, 1.2125, 0.54, 1.28, 0.6075, 1.3475, 0.675, 1.415, 0.3375, 1.0775, 0, 0.74, 0.0675, 0.8075, 0.135, 0.875, 0.2025, 0.9425, 0.27, 1.01, 0.405, 1.145, 0.4725, 1.2125, 0.54, 1.28, 0.6075, 1.3475, 0.675, 1.415, 0.3375, 1.0775, 0, 0.74, 0.0675, 0.8075, 0.135, 0.875, 0.2025, 0.9425, 0.27, 1.01, 0.405, 1.145, 0.4725, 1.2125, 0.54, 1.28, 0.6075, 1.3475, 0.675, 1.415, 0.3375],
  "SoftwareVersions": "syngo MR E11",
  "SpacingBetweenSlices": 2,
  "StationName": "AWP166011",
  "TaskName": "vwfate",
  "TotalReadoutTime": 0.0551515,
  "TxRefAmp": 227.963,
  "dcmmeta_affine": [
    [-1.9999405145645142, 0.01535878423601389, -0.0013469904661178589, 97.68870544433594],
    [0.015410018153488636, 1.9968243837356567, -0.11160174012184143, -66.99475860595703],
    [-0.00048781814984977245, 0.11160880327224731, 1.9968833923339844, -66.02440643310547],
    [0.0, 0.0, 0.0, 1.0]
],
  "dcmmeta_reorient_transform": [
    [0.0, -1.0, 0.0, 95.0],
    [1.0, 0.0, 0.0, 0.0],
    [0.0, 0.0, 1.0, 0.0],
    [0.0, 0.0, 0.0, 1.0]
],
  "dcmmeta_shape": [96, 96, 66, 164],
  "dcmmeta_slice_dim": 2,
  "dcmmeta_version": 0.6,
  "global": {
    "const": {
      "AcquisitionMatrix": [96, 0, 0, 72],
      "AngioFlag": "N",
      "BitsAllocated": 16,
      "BitsStored": 12,
      "BodyPartExamined": "BRAIN",
      "Columns": 864,
      "EchoNumbers": 1,
      "EchoTime": 30.0,
      "EchoTrainLength": 58,
      "FlipAngle": 62.0,
      "HighBit": 11,
      "ImageOrientationPatient": [0.99997028622949, -0.0077050091802, -0.0002439090779, 0.00767939205089, 0.99841218717462, -0.0558044034008],
      "ImagePositionPatient": [-873.02273961199, -883.56666867258, -12.376465965232],
      "ImageType": [
        "ORIGINAL",
        "PRIMARY",
        "M",
        "ND",
        "MOSAIC"
],
      "ImagedNucleus": "1H",
      "ImagingFrequency": 123.259078,
      "InPlanePhaseEncodingDirection": "COL",
      "MRAcquisitionType": "2D",
      "MagneticFieldStrength": 3.0,
      "Manufacturer": "SIEMENS",
      "ManufacturerModelName": "Prisma",
      "Modality": "MR",
      "NumberOfAverages": 1.0,
      "NumberOfPhaseEncodingSteps": 58,
      "PercentPhaseFieldOfView": 100.0,
      "PercentSampling": 75.0,
      "PerformedProcedureStepStartTime": "162628.253000",
      "PhotometricInterpretation": "MONOCHROME2",
      "PixelBandwidth": 2265.0,
      "PixelRepresentation": 0,
      "PixelSpacing": [2.0, 2.0],
      "ProtocolName": "func_vwfate_run12",
      "RepetitionTime": 1500.0,
      "Rows": 864,
      "SAR": 0.0439748749872,
      "SamplesPerPixel": 1,
      "ScanOptions": [
        "PFP",
        "FS"
],
      "ScanningSequence": "EP",
      "SequenceName": "*epfid2d1_72",
      "SequenceVariant": [
        "SK",
        "OSP"
],
      "SeriesDescription": "func_vwfate_run12",
      "SeriesNumber": 15,
      "SeriesTime": "175037.493000",
      "SliceLocation": -62.248946986132,
      "SliceThickness": 2.0,
      "SmallestImagePixelValue": 0,
      "SoftwareVersions": "syngo MR E11",
      "SpacingBetweenSlices": 1.9999999520028,
      "SpecificCharacterSet": "ISO_IR 100",
      "StudyID": "2",
      "StudyTime": "162628.179000",
      "TransmitCoilName": "Body",
      "VariableFlipAngleFlag": "N",
      "WindowCenterWidthExplanation": "Algo1",
      "dBdt": 0.0},
    "slices": {}
  },
  "time": {
    "samples": {
      "AcquisitionNumber": [1, 2, 3, 4, 5, 6, 7, 8, 9, 10, 11, 12, 13, 14, 15, 16, 17, 18, 19, 20, 21, 22, 23, 24, 25, 26, 27, 28, 29, 30, 31, 32, 33, 34, 35, 36, 37, 38, 39, 40, 41, 42, 43, 44, 45, 46, 47, 48, 49, 50, 51, 52, 53, 54, 55, 56, 57, 58, 59, 60, 61, 62, 63, 64, 65, 66, 67, 68, 69, 70, 71, 72, 73, 74, 75, 76, 77, 78, 79, 80, 81, 82, 83, 84, 85, 86, 87, 88, 89, 90, 91, 92, 93, 94, 95, 96, 97, 98, 99, 100, 101, 102, 103, 104, 105, 106, 107, 108, 109, 110, 111, 112, 113, 114, 115, 116, 117, 118, 119, 120, 121, 122, 123, 124, 125, 126, 127, 128, 129, 130, 131, 132, 133, 134, 135, 136, 137, 138, 139, 140, 141, 142, 143, 144, 145, 146, 147, 148, 149, 150, 151, 152, 153, 154, 155, 156, 157, 158, 159, 160, 161, 162, 163, 164],
      "AcquisitionTime": ["175004.712500", "175006.212500", "175007.712500", "175009.212500", "175010.712500", "175012.212500", "175013.712500", "175015.212500", "175016.712500", "175018.212500", "175019.712500", "175021.212500", "175022.712500", "175024.212500", "175025.712500", "175027.212500", "175028.712500", "175030.212500", "175031.712500", "175033.212500", "175034.712500", "175036.212500", "175037.712500", "175039.212500", "175040.712500", "175042.212500", "175043.712500", "175045.212500", "175046.712500", "175048.212500", "175049.712500", "175051.212500", "175052.712500", "175054.212500", "175055.712500", "175057.212500", "175058.712500", "175100.212500", "175101.712500", "175103.212500", "175104.712500", "175106.212500", "175107.712500", "175109.212500", "175110.712500", "175112.212500", "175113.712500", "175115.212500", "175116.712500", "175118.212500", "175119.712500", "175121.212500", "175122.712500", "175124.212500", "175125.712500", "175127.212500", "175128.712500", "175130.212500", "175131.712500", "175133.212500", "175134.712500", "175136.212500", "175137.712500", "175139.212500", "175140.712500", "175142.212500", "175143.712500", "175145.212500", "175146.712500", "175148.212500", "175149.712500", "175151.212500", "175152.712500", "175154.212500", "175155.712500", "175157.212500", "175158.712500", "175200.212500", "175201.712500", "175203.212500", "175204.712500", "175206.212500", "175207.712500", "175209.212500", "175210.712500", "175212.212500", "175213.712500", "175215.212500", "175216.712500", "175218.212500", "175219.712500", "175221.212500", "175222.712500", "175224.212500", "175225.712500", "175227.212500", "175228.712500", "175230.212500", "175231.712500", "175233.212500", "175234.712500", "175236.212500", "175237.712500", "175239.212500", "175240.712500", "175242.212500", "175243.712500", "175245.212500", "175246.712500", "175248.212500", "175249.712500", "175251.212500", "175252.712500", "175254.212500", "175255.712500", "175257.212500", "175258.712500", "175300.212500", "175301.712500", "175303.212500", "175304.712500", "175306.212500", "175307.712500", "175309.212500", "175310.712500", "175312.212500", "175313.712500", "175315.212500", "175316.712500", "175318.212500", "175319.712500", "175321.212500", "175322.712500", "175324.212500", "175325.712500", "175327.212500", "175328.712500", "175330.212500", "175331.712500", "175333.212500", "175334.712500", "175336.212500", "175337.712500", "175339.212500", "175340.712500", "175342.212500", "175343.712500", "175345.212500", "175346.712500", "175348.212500", "175349.712500", "175351.212500", "175352.712500", "175354.212500", "175355.712500", "175357.212500", "175358.712500", "175400.212500", "175401.712500", "175403.212500", "175404.712500", "175406.212500", "175407.712500", "175409.212500"],
      "ContentTime": ["175037.497000", "175037.501000", "175037.504000", "175037.507000", "175037.510000", "175037.513000", "175037.516000", "175037.519000", "175037.522000", "175037.525000", "175037.528000", "175037.531000", "175037.539000", "175037.542000", "175037.545000", "175037.548000", "175037.557000", "175037.560000", "175037.563000", "175037.566000", "175037.569000", "175117.491000", "175117.494000", "175117.497000", "175117.500000", "175117.503000", "175117.506000", "175117.509000", "175117.512000", "175117.515000", "175117.518000", "175117.521000", "175117.524000", "175117.527000", "175117.530000", "175117.533000", "175117.536000", "175117.539000", "175117.542000", "175117.545000", "175117.548000", "175117.551000", "175117.553000", "175117.557000", "175117.560000", "175117.562000", "175117.565000", "175117.568000", "175157.492000", "175157.495000", "175157.498000", "175157.501000", "175157.504000", "175157.507000", "175157.510000", "175157.513000", "175157.516000", "175157.519000", "175157.522000", "175157.525000", "175157.528000", "175157.531000", "175157.534000", "175157.537000", "175157.540000", "175157.543000", "175157.546000", "175157.557000", "175157.560000", "175157.563000", "175157.566000", "175157.568000", "175157.571000", "175157.574000", "175157.577000", "175237.492000", "175237.495000", "175237.498000", "175237.501000", "175237.504000", "175237.507000", "175237.510000", "175237.513000", "175237.516000", "175237.519000", "175237.522000", "175237.525000", "175237.528000", "175237.531000", "175237.534000", "175237.537000", "175237.540000", "175237.543000", "175237.546000", "175237.549000", "175237.551000", "175237.554000", "175237.557000", "175237.560000", "175237.563000", "175237.566000", "175317.491000", "175317.494000", "175317.497000", "175317.500000", "175317.503000", "175317.506000", "175317.509000", "175317.512000", "175317.515000", "175317.518000", "175317.521000", "175317.524000", "175317.527000", "175317.530000", "175317.533000", "175317.536000", "175317.539000", "175317.541000", "175317.544000", "175317.547000", "175317.550000", "175317.553000", "175317.556000", "175317.559000", "175317.562000", "175317.565000", "175317.568000", "175357.492000", "175357.495000", "175357.498000", "175357.501000", "175357.504000", "175357.507000", "175357.510000", "175357.513000", "175357.516000", "175357.519000", "175357.522000", "175357.525000", "175357.528000", "175357.531000", "175357.534000", "175357.537000", "175357.540000", "175357.543000", "175357.546000", "175357.549000", "175357.552000", "175357.555000", "175357.558000", "175357.561000", "175357.564000", "175357.567000", "175357.570000", "175410.622000", "175410.625000", "175410.628000", "175410.631000", "175410.634000", "175410.637000", "175410.640000", "175410.655000", "175410.658000"],
      "InstanceCreationTime": ["175037.497000", "175037.501000", "175037.504000", "175037.507000", "175037.510000", "175037.513000", "175037.516000", "175037.519000", "175037.522000", "175037.525000", "175037.528000", "175037.531000", "175037.539000", "175037.542000", "175037.545000", "175037.548000", "175037.557000", "175037.560000", "175037.563000", "175037.566000", "175037.569000", "175117.491000", "175117.494000", "175117.497000", "175117.500000", "175117.503000", "175117.506000", "175117.509000", "175117.512000", "175117.515000", "175117.518000", "175117.521000", "175117.524000", "175117.527000", "175117.530000", "175117.533000", "175117.536000", "175117.539000", "175117.542000", "175117.545000", "175117.548000", "175117.551000", "175117.553000", "175117.557000", "175117.560000", "175117.562000", "175117.565000", "175117.568000", "175157.492000", "175157.495000", "175157.498000", "175157.501000", "175157.504000", "175157.507000", "175157.510000", "175157.513000", "175157.516000", "175157.519000", "175157.522000", "175157.525000", "175157.528000", "175157.531000", "175157.534000", "175157.537000", "175157.540000", "175157.543000", "175157.546000", "175157.557000", "175157.560000", "175157.563000", "175157.566000", "175157.568000", "175157.571000", "175157.574000", "175157.577000", "175237.492000", "175237.495000", "175237.498000", "175237.501000", "175237.504000", "175237.507000", "175237.510000", "175237.513000", "175237.516000", "175237.519000", "175237.522000", "175237.525000", "175237.528000", "175237.531000", "175237.534000", "175237.537000", "175237.540000", "175237.543000", "175237.546000", "175237.549000", "175237.551000", "175237.554000", "175237.557000", "175237.560000", "175237.563000", "175237.566000", "175317.491000", "175317.494000", "175317.497000", "175317.500000", "175317.503000", "175317.506000", "175317.509000", "175317.512000", "175317.515000", "175317.518000", "175317.521000", "175317.524000", "175317.527000", "175317.530000", "175317.533000", "175317.536000", "175317.539000", "175317.541000", "175317.544000", "175317.547000", "175317.550000", "175317.553000", "175317.556000", "175317.559000", "175317.562000", "175317.565000", "175317.568000", "175357.492000", "175357.495000", "175357.498000", "175357.501000", "175357.504000", "175357.507000", "175357.510000", "175357.513000", "175357.516000", "175357.519000", "175357.522000", "175357.525000", "175357.528000", "175357.531000", "175357.534000", "175357.537000", "175357.540000", "175357.543000", "175357.546000", "175357.549000", "175357.552000", "175357.555000", "175357.558000", "175357.561000", "175357.564000", "175357.567000", "175357.570000", "175410.622000", "175410.625000", "175410.628000", "175410.631000", "175410.634000", "175410.637000", "175410.640000", "175410.655000", "175410.658000"],
      "InstanceNumber": [1, 2, 3, 4, 5, 6, 7, 8, 9, 10, 11, 12, 13, 14, 15, 16, 17, 18, 19, 20, 21, 22, 23, 24, 25, 26, 27, 28, 29, 30, 31, 32, 33, 34, 35, 36, 37, 38, 39, 40, 41, 42, 43, 44, 45, 46, 47, 48, 49, 50, 51, 52, 53, 54, 55, 56, 57, 58, 59, 60, 61, 62, 63, 64, 65, 66, 67, 68, 69, 70, 71, 72, 73, 74, 75, 76, 77, 78, 79, 80, 81, 82, 83, 84, 85, 86, 87, 88, 89, 90, 91, 92, 93, 94, 95, 96, 97, 98, 99, 100, 101, 102, 103, 104, 105, 106, 107, 108, 109, 110, 111, 112, 113, 114, 115, 116, 117, 118, 119, 120, 121, 122, 123, 124, 125, 126, 127, 128, 129, 130, 131, 132, 133, 134, 135, 136, 137, 138, 139, 140, 141, 142, 143, 144, 145, 146, 147, 148, 149, 150, 151, 152, 153, 154, 155, 156, 157, 158, 159, 160, 161, 162, 163, 164],
      "LargestImagePixelValue": [2313, 2247, 2241, 2228, 2223, 2221, 2207, 2178, 2184, 2206, 2199, 2192, 2172, 2189, 2186, 2262, 2199, 2211, 2209, 2212, 2257, 2225, 2278, 2241, 2246, 2254, 2239, 2237, 2244, 2237, 2255, 2247, 2223, 2252, 2218, 2275, 2270, 2252, 2282, 2271, 2215, 2174, 2184, 2185, 2165, 2157, 2122, 2106, 2125, 2100, 2138, 2152, 2110, 2172, 2130, 2108, 2151, 2104, 2118, 2123, 2102, 2123, 2105, 2130, 2108, 2088, 2092, 2114, 2089, 2084, 2079, 2107, 2095, 2121, 2145, 2072, 2080, 2108, 2122, 2148, 2104, 2147, 2141, 2260, 2229, 2183, 2150, 2100, 2089, 2119, 2079, 2133, 2106, 2145, 2087, 2068, 2115, 2076, 2127, 2188, 2103, 2156, 2130, 2098, 2077, 2129, 2138, 2117, 2118, 2405, 2105, 2147, 2142, 2134, 2098, 2178, 2182, 2125, 2157, 2163, 2133, 2128, 2145, 2124, 2123, 2131, 2130, 2135, 2117, 2095, 2116, 2138, 2139, 2117, 2145, 2139, 2163, 2122, 2136, 2141, 2124, 2140, 2111, 2130, 2089, 2134, 2106, 2157, 2146, 2135, 2100, 2109, 2104, 2119, 2128, 2129, 2112, 2126, 2137, 2154, 2119, 2131, 2102, 2139],
      "WindowCenter": [699.0, 698.0, 698.0, 697.0, 696.0, 694.0, 694.0, 694.0, 694.0, 695.0, 696.0, 696.0, 696.0, 696.0, 696.0, 697.0, 695.0, 695.0, 695.0, 695.0, 695.0, 695.0, 696.0, 696.0, 696.0, 696.0, 696.0, 696.0, 696.0, 697.0, 697.0, 695.0, 697.0, 698.0, 696.0, 696.0, 695.0, 695.0, 696.0, 697.0, 697.0, 696.0, 695.0, 694.0, 693.0, 691.0, 689.0, 688.0, 689.0, 688.0, 689.0, 690.0, 690.0, 692.0, 692.0, 692.0, 693.0, 692.0, 694.0, 694.0, 694.0, 695.0, 695.0, 697.0, 696.0, 695.0, 695.0, 695.0, 694.0, 694.0, 693.0, 693.0, 693.0, 693.0, 693.0, 692.0, 693.0, 692.0, 695.0, 694.0, 693.0, 694.0, 695.0, 697.0, 696.0, 695.0, 695.0, 695.0, 693.0, 694.0, 694.0, 696.0, 696.0, 696.0, 695.0, 694.0, 694.0, 693.0, 694.0, 694.0, 693.0, 694.0, 693.0, 693.0, 692.0, 693.0, 694.0, 694.0, 694.0, 697.0, 695.0, 696.0, 695.0, 695.0, 694.0, 695.0, 695.0, 695.0, 695.0, 695.0, 695.0, 695.0, 695.0, 694.0, 693.0, 693.0, 693.0, 693.0, 692.0, 692.0, 691.0, 692.0, 692.0, 692.0, 692.0, 691.0, 692.0, 691.0, 691.0, 691.0, 690.0, 690.0, 690.0, 690.0, 690.0, 691.0, 691.0, 692.0, 691.0, 692.0, 691.0, 691.0, 691.0, 692.0, 692.0, 692.0, 693.0, 693.0, 694.0, 694.0, 693.0, 692.0, 691.0, 691.0],
      "WindowWidth": [1501.0, 1498.0, 1497.0, 1494.0, 1491.0, 1487.0, 1487.0, 1487.0, 1487.0, 1488.0, 1491.0, 1492.0, 1492.0, 1492.0, 1490.0, 1493.0, 1490.0, 1490.0, 1490.0, 1488.0, 1489.0, 1488.0, 1490.0, 1490.0, 1491.0, 1492.0, 1491.0, 1490.0, 1491.0, 1493.0, 1494.0, 1488.0, 1494.0, 1496.0, 1492.0, 1492.0, 1490.0, 1489.0, 1490.0, 1493.0, 1493.0, 1491.0, 1488.0, 1486.0, 1483.0, 1479.0, 1474.0, 1472.0, 1474.0, 1473.0, 1475.0, 1477.0, 1476.0, 1481.0, 1481.0, 1483.0, 1483.0, 1481.0, 1486.0, 1486.0, 1487.0, 1488.0, 1490.0, 1494.0, 1492.0, 1490.0, 1490.0, 1489.0, 1487.0, 1486.0, 1485.0, 1485.0, 1484.0, 1483.0, 1483.0, 1481.0, 1483.0, 1483.0, 1488.0, 1486.0, 1485.0, 1487.0, 1488.0, 1493.0, 1490.0, 1489.0, 1490.0, 1488.0, 1485.0, 1487.0, 1486.0, 1491.0, 1491.0, 1493.0, 1489.0, 1488.0, 1488.0, 1485.0, 1486.0, 1487.0, 1485.0, 1487.0, 1483.0, 1483.0, 1483.0, 1485.0, 1486.0, 1486.0, 1486.0, 1493.0, 1488.0, 1491.0, 1490.0, 1490.0, 1487.0, 1489.0, 1489.0, 1488.0, 1490.0, 1489.0, 1489.0, 1488.0, 1488.0, 1487.0, 1485.0, 1485.0, 1483.0, 1483.0, 1482.0, 1480.0, 1480.0, 1481.0, 1481.0, 1481.0, 1481.0, 1480.0, 1481.0, 1478.0, 1479.0, 1478.0, 1477.0, 1477.0, 1476.0, 1477.0, 1476.0, 1479.0, 1478.0, 1480.0, 1480.0, 1481.0, 1479.0, 1479.0, 1480.0, 1481.0, 1482.0, 1481.0, 1484.0, 1485.0, 1487.0, 1486.0, 1483.0, 1482.0, 1479.0, 1479.0]
    },
    "slices": {}
  }
}