{
  "AcquisitionMatrixPE": 72,
  "AcquisitionNumber": 1,
  "AcquisitionTime": "17:14:32.310000",
  "BandwidthPerPixelPhaseEncode": 17.943,
  "BaseResolution": 96,
  "BodyPartExamined": "BRAIN",
  "CoilCombinationMethod": "Sum of Squares",
  "ConsistencyInfo": "N4_VE11C_LATEST_20160120",
  "ConversionSoftware": "dcm2niix",
  "ConversionSoftwareVersion": "v1.0.20211006",
  "DerivedVendorReportedEchoSpacing": 0.000552897,
  "DeviceSerialNumber": "166011",
  "EchoTime": 0.03,
  "EchoTrainLength": 58,
  "EffectiveEchoSpacing": 0.000580542,
  "FlipAngle": 62,
  "ImageOrientationPatientDICOM": [0.99997, -0.00770501, -0.000243909, 0.00767939, 0.998412, -0.0558044],
  "ImageType": [
    "ORIGINAL",
    "PRIMARY",
    "M",
    "ND",
    "MOSAIC"
],
  "ImagingFrequency": 123.259,
  "InPlanePhaseEncodingDirectionDICOM": "COL",
  "InstitutionAddress": "West 130th Street 610,NY,NYC,US,10025",
  "InstitutionName": "MBBI",
  "MRAcquisitionType": "2D",
  "MagneticFieldStrength": 3,
  "Manufacturer": "Siemens",
  "ManufacturersModelName": "Prisma",
  "Modality": "MR",
  "MultibandAccelerationFactor": 3,
  "PartialFourier": 0.75,
  "PatientPosition": "HFS",
  "PercentPhaseFOV": 100,
  "PercentSampling": 75,
  "PhaseEncodingDirection": "j-",
  "PhaseEncodingSteps": 58,
  "PhaseOversampling": 0.05,
  "PhaseResolution": 0.75,
  "PixelBandwidth": 2265,
  "ProcedureStepDescription": "White^Word_recognition",
  "ProtocolName": "func_catLoc_run3",
  "PulseSequenceDetails": "%SiemensSeq%\\ep2d_bold",
  "ReceiveCoilActiveElements": "HC1-7",
  "ReceiveCoilName": "HeadNeck_64",
  "ReconMatrixPE": 96,
  "RefLinesPE": 40,
  "RepetitionTime": 1.5,
  "SAR": 0.0441125,
  "ScanOptions": "PFP\\FS",
  "ScanningSequence": "EP",
  "SequenceName": "*epfid2d1_72",
  "SequenceVariant": "SK\\OSP",
  "SeriesDescription": "func_catLoc_run3",
  "SeriesNumber": 10,
  "ShimSetting": [-1151, -1371, 690, 634, -94, -39, 112, 3],
  "SliceThickness": 2,
  "SliceTiming": [1.0775, 0, 0.74, 0.0675, 0.8075, 0.135, 0.875, 0.2025, 0.9425, 0.27, 1.01, 0.405, 1.145, 0.4725, 1.2125, 0.54, 1.28, 0.6075, 1.3475, 0.6725, 1.4125, 0.3375, 1.0775, 0, 0.74, 0.0675, 0.8075, 0.135, 0.875, 0.2025, 0.9425, 0.27, 1.01, 0.405, 1.145, 0.4725, 1.2125, 0.54, 1.28, 0.6075, 1.3475, 0.6725, 1.4125, 0.3375, 1.0775, 0, 0.74, 0.0675, 0.8075, 0.135, 0.875, 0.2025, 0.9425, 0.27, 1.01, 0.405, 1.145, 0.4725, 1.2125, 0.54, 1.28, 0.6075, 1.3475, 0.6725, 1.4125, 0.3375],
  "SoftwareVersions": "syngo MR E11",
  "SpacingBetweenSlices": 2,
  "StationName": "AWP166011",
  "TaskName": "catLoc",
  "TotalReadoutTime": 0.0551515,
  "TxRefAmp": 227.963,
  "dcmmeta_affine": [
    [-1.9999405145645142, 0.01535878423601389, -0.0013469904661178589, 97.68870544433594],
    [0.015410018153488636, 1.9968243837356567, -0.11160174012184143, -66.99475860595703],
    [-0.00048781814984977245, 0.11160880327224731, 1.9968833923339844, -66.02440643310547],
    [0.0, 0.0, 0.0, 1.0]
],
  "dcmmeta_reorient_transform": [
    [0.0, -1.0, 0.0, 95.0],
    [1.0, 0.0, 0.0, 0.0],
    [0.0, 0.0, 1.0, 0.0],
    [0.0, 0.0, 0.0, 1.0]
],
  "dcmmeta_shape": [96, 96, 66, 214],
  "dcmmeta_slice_dim": 2,
  "dcmmeta_version": 0.6,
  "global": {
    "const": {
      "AcquisitionMatrix": [96, 0, 0, 72],
      "AngioFlag": "N",
      "BitsAllocated": 16,
      "BitsStored": 12,
      "BodyPartExamined": "BRAIN",
      "Columns": 864,
      "EchoNumbers": 1,
      "EchoTime": 30.0,
      "EchoTrainLength": 58,
      "FlipAngle": 62.0,
      "HighBit": 11,
      "ImageOrientationPatient": [0.99997028622949, -0.0077050091802, -0.0002439090779, 0.00767939205089, 0.99841218717462, -0.0558044034008],
      "ImagePositionPatient": [-873.02273961199, -883.56666867258, -12.376465965232],
      "ImageType": [
        "ORIGINAL",
        "PRIMARY",
        "M",
        "ND",
        "MOSAIC"
],
      "ImagedNucleus": "1H",
      "ImagingFrequency": 123.259064,
      "InPlanePhaseEncodingDirection": "COL",
      "MRAcquisitionType": "2D",
      "MagneticFieldStrength": 3.0,
      "Manufacturer": "SIEMENS",
      "ManufacturerModelName": "Prisma",
      "Modality": "MR",
      "NumberOfAverages": 1.0,
      "NumberOfPhaseEncodingSteps": 58,
      "PercentPhaseFieldOfView": 100.0,
      "PercentSampling": 75.0,
      "PerformedProcedureStepStartTime": "162628.253000",
      "PhotometricInterpretation": "MONOCHROME2",
      "PixelBandwidth": 2265.0,
      "PixelRepresentation": 0,
      "PixelSpacing": [2.0, 2.0],
      "ProtocolName": "func_catLoc_run3",
      "RepetitionTime": 1500.0,
      "Rows": 864,
      "SAR": 0.04411249418575,
      "SamplesPerPixel": 1,
      "ScanOptions": [
        "PFP",
        "FS"
],
      "ScanningSequence": "EP",
      "SequenceName": "*epfid2d1_72",
      "SequenceVariant": [
        "SK",
        "OSP"
],
      "SeriesDescription": "func_catLoc_run3",
      "SeriesNumber": 10,
      "SeriesTime": "171503.026000",
      "SliceLocation": -62.248946986132,
      "SliceThickness": 2.0,
      "SmallestImagePixelValue": 0,
      "SoftwareVersions": "syngo MR E11",
      "SpacingBetweenSlices": 1.9999999520028,
      "SpecificCharacterSet": "ISO_IR 100",
      "StudyID": "2",
      "StudyTime": "162628.179000",
      "TransmitCoilName": "Body",
      "VariableFlipAngleFlag": "N",
      "WindowCenterWidthExplanation": "Algo1",
      "dBdt": 0.0},
    "slices": {}
  },
  "time": {
    "samples": {
      "AcquisitionNumber": [1, 2, 3, 4, 5, 6, 7, 8, 9, 10, 11, 12, 13, 14, 15, 16, 17, 18, 19, 20, 21, 22, 23, 24, 25, 26, 27, 28, 29, 30, 31, 32, 33, 34, 35, 36, 37, 38, 39, 40, 41, 42, 43, 44, 45, 46, 47, 48, 49, 50, 51, 52, 53, 54, 55, 56, 57, 58, 59, 60, 61, 62, 63, 64, 65, 66, 67, 68, 69, 70, 71, 72, 73, 74, 75, 76, 77, 78, 79, 80, 81, 82, 83, 84, 85, 86, 87, 88, 89, 90, 91, 92, 93, 94, 95, 96, 97, 98, 99, 100, 101, 102, 103, 104, 105, 106, 107, 108, 109, 110, 111, 112, 113, 114, 115, 116, 117, 118, 119, 120, 121, 122, 123, 124, 125, 126, 127, 128, 129, 130, 131, 132, 133, 134, 135, 136, 137, 138, 139, 140, 141, 142, 143, 144, 145, 146, 147, 148, 149, 150, 151, 152, 153, 154, 155, 156, 157, 158, 159, 160, 161, 162, 163, 164, 165, 166, 167, 168, 169, 170, 171, 172, 173, 174, 175, 176, 177, 178, 179, 180, 181, 182, 183, 184, 185, 186, 187, 188, 189, 190, 191, 192, 193, 194, 195, 196, 197, 198, 199, 200, 201, 202, 203, 204, 205, 206, 207, 208, 209, 210, 211, 212, 213, 214],
      "AcquisitionTime": ["171432.310000", "171433.810000", "171435.310000", "171436.810000", "171438.310000", "171439.810000", "171441.310000", "171442.810000", "171444.310000", "171445.810000", "171447.310000", "171448.810000", "171450.310000", "171451.810000", "171453.310000", "171454.810000", "171456.310000", "171457.810000", "171459.310000", "171500.810000", "171502.310000", "171503.810000", "171505.310000", "171506.810000", "171508.310000", "171509.810000", "171511.310000", "171512.810000", "171514.310000", "171515.810000", "171517.310000", "171518.810000", "171520.310000", "171521.810000", "171523.310000", "171524.810000", "171526.310000", "171527.810000", "171529.310000", "171530.810000", "171532.310000", "171533.810000", "171535.310000", "171536.810000", "171538.310000", "171539.810000", "171541.310000", "171542.810000", "171544.310000", "171545.810000", "171547.310000", "171548.810000", "171550.310000", "171551.810000", "171553.310000", "171554.810000", "171556.310000", "171557.810000", "171559.310000", "171600.810000", "171602.310000", "171603.810000", "171605.310000", "171606.810000", "171608.310000", "171609.810000", "171611.310000", "171612.810000", "171614.310000", "171615.810000", "171617.310000", "171618.810000", "171620.310000", "171621.810000", "171623.310000", "171624.810000", "171626.310000", "171627.810000", "171629.310000", "171630.810000", "171632.310000", "171633.810000", "171635.310000", "171636.810000", "171638.310000", "171639.810000", "171641.310000", "171642.810000", "171644.310000", "171645.810000", "171647.310000", "171648.810000", "171650.310000", "171651.810000", "171653.310000", "171654.810000", "171656.310000", "171657.810000", "171659.310000", "171700.810000", "171702.310000", "171703.810000", "171705.310000", "171706.810000", "171708.310000", "171709.810000", "171711.310000", "171712.810000", "171714.310000", "171715.810000", "171717.310000", "171718.810000", "171720.310000", "171721.810000", "171723.310000", "171724.810000", "171726.310000", "171727.810000", "171729.310000", "171730.810000", "171732.310000", "171733.810000", "171735.310000", "171736.810000", "171738.310000", "171739.810000", "171741.310000", "171742.810000", "171744.310000", "171745.810000", "171747.310000", "171748.810000", "171750.310000", "171751.810000", "171753.310000", "171754.810000", "171756.310000", "171757.810000", "171759.310000", "171800.810000", "171802.310000", "171803.810000", "171805.310000", "171806.810000", "171808.310000", "171809.810000", "171811.310000", "171812.810000", "171814.310000", "171815.810000", "171817.310000", "171818.810000", "171820.310000", "171821.810000", "171823.310000", "171824.810000", "171826.310000", "171827.810000", "171829.310000", "171830.810000", "171832.310000", "171833.810000", "171835.310000", "171836.810000", "171838.310000", "171839.810000", "171841.310000", "171842.810000", "171844.310000", "171845.810000", "171847.310000", "171848.810000", "171850.310000", "171851.810000", "171853.310000", "171854.810000", "171856.310000", "171857.810000", "171859.310000", "171900.810000", "171902.310000", "171903.810000", "171905.310000", "171906.810000", "171908.310000", "171909.810000", "171911.310000", "171912.810000", "171914.310000", "171915.810000", "171917.310000", "171918.810000", "171920.310000", "171921.810000", "171923.310000", "171924.810000", "171926.310000", "171927.810000", "171929.310000", "171930.810000", "171932.310000", "171933.810000", "171935.310000", "171936.810000", "171938.310000", "171939.810000", "171941.310000", "171942.810000", "171944.310000", "171945.810000", "171947.310000", "171948.810000", "171950.310000", "171951.810000"],
      "ContentTime": ["171503.030000", "171503.034000", "171503.037000", "171503.040000", "171503.043000", "171503.046000", "171503.049000", "171503.063000", "171503.066000", "171503.069000", "171503.074000", "171503.077000", "171503.081000", "171503.083000", "171503.093000", "171503.096000", "171503.099000", "171503.102000", "171503.105000", "171503.108000", "171543.024000", "171543.027000", "171543.030000", "171543.034000", "171543.037000", "171543.040000", "171543.043000", "171543.046000", "171543.049000", "171543.053000", "171543.076000", "171543.079000", "171543.082000", "171543.085000", "171543.088000", "171543.091000", "171543.094000", "171543.097000", "171543.100000", "171543.103000", "171543.106000", "171543.109000", "171543.112000", "171543.115000", "171543.118000", "171543.121000", "171543.124000", "171623.025000", "171623.028000", "171623.031000", "171623.041000", "171623.044000", "171623.047000", "171623.049000", "171623.052000", "171623.056000", "171623.058000", "171623.061000", "171623.064000", "171623.067000", "171623.077000", "171623.080000", "171623.083000", "171623.086000", "171623.089000", "171623.092000", "171623.095000", "171623.098000", "171623.101000", "171623.104000", "171623.107000", "171623.110000", "171623.113000", "171623.116000", "171703.025000", "171703.028000", "171703.031000", "171703.034000", "171703.037000", "171703.040000", "171703.043000", "171703.046000", "171703.049000", "171703.052000", "171703.055000", "171703.058000", "171703.061000", "171703.064000", "171703.067000", "171703.070000", "171703.073000", "171703.076000", "171703.079000", "171703.082000", "171703.085000", "171703.088000", "171703.091000", "171703.093000", "171703.096000", "171703.100000", "171743.024000", "171743.027000", "171743.030000", "171743.033000", "171743.036000", "171743.039000", "171743.042000", "171743.045000", "171743.048000", "171743.051000", "171743.054000", "171743.057000", "171743.060000", "171743.063000", "171743.066000", "171743.069000", "171743.072000", "171743.075000", "171743.078000", "171743.081000", "171743.084000", "171743.087000", "171743.090000", "171743.093000", "171743.096000", "171743.099000", "171743.102000", "171823.025000", "171823.029000", "171823.032000", "171823.035000", "171823.038000", "171823.041000", "171823.044000", "171823.047000", "171823.050000", "171823.053000", "171823.056000", "171823.059000", "171823.062000", "171823.065000", "171823.068000", "171823.071000", "171823.074000", "171823.077000", "171823.080000", "171823.083000", "171823.086000", "171823.089000", "171823.092000", "171823.095000", "171823.098000", "171823.101000", "171823.104000", "171903.025000", "171903.028000", "171903.031000", "171903.034000", "171903.037000", "171903.040000", "171903.043000", "171903.046000", "171903.049000", "171903.052000", "171903.055000", "171903.058000", "171903.061000", "171903.064000", "171903.067000", "171903.070000", "171903.073000", "171903.076000", "171903.079000", "171903.082000", "171903.098000", "171903.101000", "171903.104000", "171903.107000", "171903.110000", "171903.113000", "171943.025000", "171943.028000", "171943.031000", "171943.034000", "171943.037000", "171943.040000", "171943.052000", "171943.055000", "171943.058000", "171943.061000", "171943.064000", "171943.067000", "171943.070000", "171943.073000", "171943.076000", "171943.079000", "171943.082000", "171943.085000", "171943.088000", "171943.091000", "171943.094000", "171943.097000", "171943.100000", "171943.103000", "171943.106000", "171943.109000", "171943.112000", "171952.722000", "171952.725000", "171952.729000", "171952.732000", "171952.736000", "171952.739000", "171952.742000"],
      "InstanceCreationTime": ["171503.030000", "171503.034000", "171503.037000", "171503.040000", "171503.043000", "171503.046000", "171503.049000", "171503.063000", "171503.066000", "171503.069000", "171503.074000", "171503.077000", "171503.081000", "171503.083000", "171503.093000", "171503.096000", "171503.099000", "171503.102000", "171503.105000", "171503.108000", "171543.024000", "171543.027000", "171543.030000", "171543.034000", "171543.037000", "171543.040000", "171543.043000", "171543.046000", "171543.049000", "171543.053000", "171543.076000", "171543.079000", "171543.082000", "171543.085000", "171543.088000", "171543.091000", "171543.094000", "171543.097000", "171543.100000", "171543.103000", "171543.106000", "171543.109000", "171543.112000", "171543.115000", "171543.118000", "171543.121000", "171543.124000", "171623.025000", "171623.028000", "171623.031000", "171623.041000", "171623.044000", "171623.047000", "171623.049000", "171623.052000", "171623.056000", "171623.058000", "171623.061000", "171623.064000", "171623.067000", "171623.077000", "171623.080000", "171623.083000", "171623.086000", "171623.089000", "171623.092000", "171623.095000", "171623.098000", "171623.101000", "171623.104000", "171623.107000", "171623.110000", "171623.113000", "171623.116000", "171703.025000", "171703.028000", "171703.031000", "171703.034000", "171703.037000", "171703.040000", "171703.043000", "171703.046000", "171703.049000", "171703.052000", "171703.055000", "171703.058000", "171703.061000", "171703.064000", "171703.067000", "171703.070000", "171703.073000", "171703.076000", "171703.079000", "171703.082000", "171703.085000", "171703.088000", "171703.091000", "171703.093000", "171703.096000", "171703.100000", "171743.024000", "171743.027000", "171743.030000", "171743.033000", "171743.036000", "171743.039000", "171743.042000", "171743.045000", "171743.048000", "171743.051000", "171743.054000", "171743.057000", "171743.060000", "171743.063000", "171743.066000", "171743.069000", "171743.072000", "171743.075000", "171743.078000", "171743.081000", "171743.084000", "171743.087000", "171743.090000", "171743.093000", "171743.096000", "171743.099000", "171743.102000", "171823.025000", "171823.029000", "171823.032000", "171823.035000", "171823.038000", "171823.041000", "171823.044000", "171823.047000", "171823.050000", "171823.053000", "171823.056000", "171823.059000", "171823.062000", "171823.065000", "171823.068000", "171823.071000", "171823.074000", "171823.077000", "171823.080000", "171823.083000", "171823.086000", "171823.089000", "171823.092000", "171823.095000", "171823.098000", "171823.101000", "171823.104000", "171903.025000", "171903.028000", "171903.031000", "171903.034000", "171903.037000", "171903.040000", "171903.043000", "171903.046000", "171903.049000", "171903.052000", "171903.055000", "171903.058000", "171903.061000", "171903.064000", "171903.067000", "171903.070000", "171903.073000", "171903.076000", "171903.079000", "171903.082000", "171903.098000", "171903.101000", "171903.104000", "171903.107000", "171903.110000", "171903.113000", "171943.025000", "171943.028000", "171943.031000", "171943.034000", "171943.037000", "171943.040000", "171943.052000", "171943.055000", "171943.058000", "171943.061000", "171943.064000", "171943.067000", "171943.070000", "171943.073000", "171943.076000", "171943.079000", "171943.082000", "171943.085000", "171943.088000", "171943.091000", "171943.094000", "171943.097000", "171943.100000", "171943.103000", "171943.106000", "171943.109000", "171943.112000", "171952.722000", "171952.725000", "171952.729000", "171952.732000", "171952.736000", "171952.739000", "171952.742000"],
      "InstanceNumber": [1, 2, 3, 4, 5, 6, 7, 8, 9, 10, 11, 12, 13, 14, 15, 16, 17, 18, 19, 20, 21, 22, 23, 24, 25, 26, 27, 28, 29, 30, 31, 32, 33, 34, 35, 36, 37, 38, 39, 40, 41, 42, 43, 44, 45, 46, 47, 48, 49, 50, 51, 52, 53, 54, 55, 56, 57, 58, 59, 60, 61, 62, 63, 64, 65, 66, 67, 68, 69, 70, 71, 72, 73, 74, 75, 76, 77, 78, 79, 80, 81, 82, 83, 84, 85, 86, 87, 88, 89, 90, 91, 92, 93, 94, 95, 96, 97, 98, 99, 100, 101, 102, 103, 104, 105, 106, 107, 108, 109, 110, 111, 112, 113, 114, 115, 116, 117, 118, 119, 120, 121, 122, 123, 124, 125, 126, 127, 128, 129, 130, 131, 132, 133, 134, 135, 136, 137, 138, 139, 140, 141, 142, 143, 144, 145, 146, 147, 148, 149, 150, 151, 152, 153, 154, 155, 156, 157, 158, 159, 160, 161, 162, 163, 164, 165, 166, 167, 168, 169, 170, 171, 172, 173, 174, 175, 176, 177, 178, 179, 180, 181, 182, 183, 184, 185, 186, 187, 188, 189, 190, 191, 192, 193, 194, 195, 196, 197, 198, 199, 200, 201, 202, 203, 204, 205, 206, 207, 208, 209, 210, 211, 212, 213, 214],
      "LargestImagePixelValue": [2544, 2406, 2342, 2326, 2401, 2330, 2323, 2397, 2335, 2329, 2354, 2382, 2405, 2366, 2338, 2347, 2319, 2383, 2333, 2390, 2344, 2397, 2366, 2364, 2325, 2327, 2322, 2332, 2333, 2312, 2306, 2314, 2331, 2339, 2332, 2333, 2335, 2364, 2332, 2332, 2365, 2369, 2363, 2339, 2351, 2322, 2344, 2313, 2323, 2301, 2278, 2317, 2324, 2336, 2355, 2349, 2371, 2411, 2420, 2400, 2409, 2406, 2399, 2423, 2407, 2426, 2404, 2434, 2456, 2393, 2404, 2391, 2376, 2429, 2451, 2430, 2456, 2488, 2457, 2463, 2456, 2521, 2451, 2488, 2421, 2434, 2409, 2444, 2471, 2448, 2364, 2365, 2371, 2414, 2425, 2486, 2505, 2503, 2496, 2513, 2457, 2519, 2439, 2507, 2451, 2431, 2535, 2465, 2483, 2474, 2517, 2468, 2518, 2437, 2444, 2488, 2484, 2565, 2355, 2473, 2458, 2395, 2408, 2348, 2468, 2394, 2368, 2417, 2398, 2581, 2380, 2457, 2411, 2425, 2487, 2490, 2537, 2485, 2558, 2489, 2500, 2464, 2463, 2535, 2506, 2560, 2498, 2582, 2453, 2551, 2484, 2460, 2468, 2471, 2507, 2502, 2461, 2503, 2519, 2457, 2428, 2475, 2387, 2442, 2397, 2357, 2444, 2470, 2314, 2540, 2461, 2447, 2439, 2513, 2454, 2477, 2431, 2491, 2459, 2476, 2469, 2486, 2402, 2503, 2419, 2446, 2398, 2439, 2471, 2425, 2509, 2446, 2546, 2405, 2440, 2388, 2473, 2463, 2440, 2447, 2452, 2431, 2441, 2435, 2431, 2482, 2413, 2505, 2416, 2421, 2435, 2410, 2466, 2476],
      "WindowCenter": [715.0, 712.0, 711.0, 711.0, 712.0, 714.0, 715.0, 718.0, 718.0, 719.0, 719.0, 718.0, 719.0, 718.0, 717.0, 716.0, 717.0, 718.0, 718.0, 719.0, 717.0, 717.0, 715.0, 715.0, 714.0, 713.0, 712.0, 712.0, 712.0, 711.0, 711.0, 711.0, 711.0, 711.0, 710.0, 710.0, 710.0, 711.0, 711.0, 712.0, 713.0, 713.0, 714.0, 714.0, 714.0, 714.0, 714.0, 713.0, 712.0, 713.0, 713.0, 713.0, 712.0, 711.0, 711.0, 711.0, 712.0, 713.0, 714.0, 713.0, 714.0, 714.0, 714.0, 713.0, 712.0, 713.0, 714.0, 715.0, 715.0, 715.0, 715.0, 715.0, 715.0, 715.0, 715.0, 715.0, 716.0, 717.0, 716.0, 715.0, 715.0, 715.0, 716.0, 716.0, 715.0, 714.0, 713.0, 714.0, 715.0, 715.0, 714.0, 714.0, 713.0, 714.0, 714.0, 714.0, 715.0, 715.0, 715.0, 715.0, 714.0, 714.0, 713.0, 714.0, 715.0, 713.0, 716.0, 715.0, 716.0, 715.0, 715.0, 714.0, 716.0, 716.0, 716.0, 717.0, 717.0, 718.0, 716.0, 718.0, 717.0, 716.0, 716.0, 715.0, 716.0, 716.0, 716.0, 717.0, 717.0, 719.0, 716.0, 715.0, 714.0, 715.0, 717.0, 716.0, 715.0, 713.0, 713.0, 712.0, 712.0, 712.0, 713.0, 714.0, 714.0, 714.0, 713.0, 714.0, 713.0, 714.0, 713.0, 713.0, 713.0, 714.0, 715.0, 714.0, 714.0, 714.0, 715.0, 715.0, 715.0, 715.0, 715.0, 714.0, 715.0, 715.0, 715.0, 715.0, 714.0, 716.0, 710.0, 714.0, 713.0, 716.0, 716.0, 716.0, 714.0, 714.0, 714.0, 714.0, 712.0, 712.0, 710.0, 710.0, 709.0, 710.0, 711.0, 711.0, 713.0, 714.0, 716.0, 715.0, 715.0, 713.0, 712.0, 711.0, 713.0, 713.0, 714.0, 714.0, 713.0, 713.0, 714.0, 713.0, 713.0, 713.0, 710.0, 713.0, 713.0, 714.0, 715.0, 714.0, 715.0, 714.0],
      "WindowWidth": [1542.0, 1535.0, 1532.0, 1532.0, 1536.0, 1539.0, 1544.0, 1550.0, 1551.0, 1552.0, 1553.0, 1552.0, 1553.0, 1550.0, 1547.0, 1547.0, 1547.0, 1552.0, 1552.0, 1554.0, 1549.0, 1548.0, 1544.0, 1543.0, 1539.0, 1536.0, 1534.0, 1535.0, 1535.0, 1533.0, 1532.0, 1532.0, 1532.0, 1531.0, 1531.0, 1530.0, 1531.0, 1532.0, 1533.0, 1534.0, 1537.0, 1537.0, 1539.0, 1539.0, 1540.0, 1539.0, 1539.0, 1537.0, 1536.0, 1537.0, 1537.0, 1537.0, 1535.0, 1533.0, 1533.0, 1532.0, 1536.0, 1539.0, 1541.0, 1538.0, 1540.0, 1539.0, 1539.0, 1538.0, 1535.0, 1538.0, 1540.0, 1542.0, 1543.0, 1542.0, 1542.0, 1543.0, 1544.0, 1544.0, 1544.0, 1544.0, 1546.0, 1548.0, 1545.0, 1544.0, 1542.0, 1543.0, 1545.0, 1546.0, 1542.0, 1541.0, 1537.0, 1539.0, 1542.0, 1541.0, 1540.0, 1539.0, 1538.0, 1539.0, 1540.0, 1540.0, 1542.0, 1542.0, 1542.0, 1542.0, 1539.0, 1539.0, 1539.0, 1541.0, 1542.0, 1537.0, 1546.0, 1544.0, 1544.0, 1542.0, 1543.0, 1541.0, 1545.0, 1546.0, 1545.0, 1547.0, 1547.0, 1550.0, 1545.0, 1549.0, 1547.0, 1545.0, 1545.0, 1543.0, 1546.0, 1545.0, 1545.0, 1547.0, 1547.0, 1552.0, 1544.0, 1542.0, 1541.0, 1544.0, 1548.0, 1546.0, 1542.0, 1538.0, 1538.0, 1535.0, 1535.0, 1534.0, 1538.0, 1541.0, 1539.0, 1539.0, 1537.0, 1540.0, 1537.0, 1539.0, 1538.0, 1537.0, 1537.0, 1540.0, 1541.0, 1541.0, 1539.0, 1540.0, 1544.0, 1542.0, 1542.0, 1544.0, 1542.0, 1541.0, 1542.0, 1542.0, 1543.0, 1544.0, 1539.0, 1545.0, 1530.0, 1539.0, 1538.0, 1546.0, 1545.0, 1545.0, 1540.0, 1540.0, 1539.0, 1539.0, 1535.0, 1533.0, 1528.0, 1529.0, 1527.0, 1530.0, 1531.0, 1533.0, 1537.0, 1539.0, 1544.0, 1542.0, 1542.0, 1536.0, 1535.0, 1533.0, 1537.0, 1538.0, 1539.0, 1540.0, 1539.0, 1538.0, 1539.0, 1538.0, 1537.0, 1538.0, 1529.0, 1537.0, 1538.0, 1541.0, 1542.0, 1540.0, 1541.0, 1540.0]
    },
    "slices": {}
  }
}