{
  "AcquisitionMatrixPE": 72,
  "AcquisitionNumber": 1,
  "AcquisitionTime": "17:23:9.915000",
  "BandwidthPerPixelPhaseEncode": 17.943,
  "BaseResolution": 96,
  "BodyPartExamined": "BRAIN",
  "CoilCombinationMethod": "Sum of Squares",
  "ConsistencyInfo": "N4_VE11C_LATEST_20160120",
  "ConversionSoftware": "dcm2niix",
  "ConversionSoftwareVersion": "v1.0.20211006",
  "DerivedVendorReportedEchoSpacing": 0.000552897,
  "DeviceSerialNumber": "166011",
  "EchoTime": 0.03,
  "EchoTrainLength": 58,
  "EffectiveEchoSpacing": 0.000580542,
  "FlipAngle": 62,
  "ImageOrientationPatientDICOM": [0.99997, -0.00770501, -0.000243909, 0.00767939, 0.998412, -0.0558044],
  "ImageType": [
    "ORIGINAL",
    "PRIMARY",
    "M",
    "ND",
    "MOSAIC"
],
  "ImagingFrequency": 123.259,
  "InPlanePhaseEncodingDirectionDICOM": "COL",
  "InstitutionAddress": "West 130th Street 610,NY,NYC,US,10025",
  "InstitutionName": "MBBI",
  "MRAcquisitionType": "2D",
  "MagneticFieldStrength": 3,
  "Manufacturer": "Siemens",
  "ManufacturersModelName": "Prisma",
  "Modality": "MR",
  "MultibandAccelerationFactor": 3,
  "PartialFourier": 0.75,
  "PatientPosition": "HFS",
  "PercentPhaseFOV": 100,
  "PercentSampling": 75,
  "PhaseEncodingDirection": "j-",
  "PhaseEncodingSteps": 58,
  "PhaseOversampling": 0.05,
  "PhaseResolution": 0.75,
  "PixelBandwidth": 2265,
  "ProcedureStepDescription": "White^Word_recognition",
  "ProtocolName": "func_vwfate_run9",
  "PulseSequenceDetails": "%SiemensSeq%\\ep2d_bold",
  "ReceiveCoilActiveElements": "HC1-7",
  "ReceiveCoilName": "HeadNeck_64",
  "ReconMatrixPE": 96,
  "RefLinesPE": 40,
  "RepetitionTime": 1.5,
  "SAR": 0.0439749,
  "ScanOptions": "PFP\\FS",
  "ScanningSequence": "EP",
  "SequenceName": "*epfid2d1_72",
  "SequenceVariant": "SK\\OSP",
  "SeriesDescription": "func_vwfate_run9",
  "SeriesNumber": 11,
  "ShimSetting": [-1151, -1371, 690, 634, -94, -39, 112, 3],
  "SliceThickness": 2,
  "SliceTiming": [1.075, 0, 0.74, 0.0675, 0.8075, 0.1325, 0.8725, 0.2, 0.94, 0.2675, 1.0075, 0.4025, 1.1425, 0.47, 1.21, 0.5375, 1.2775, 0.605, 1.345, 0.6725, 1.4125, 0.335, 1.075, 0, 0.74, 0.0675, 0.8075, 0.1325, 0.8725, 0.2, 0.94, 0.2675, 1.0075, 0.4025, 1.1425, 0.47, 1.21, 0.5375, 1.2775, 0.605, 1.345, 0.6725, 1.4125, 0.335, 1.075, 0, 0.74, 0.0675, 0.8075, 0.1325, 0.8725, 0.2, 0.94, 0.2675, 1.0075, 0.4025, 1.1425, 0.47, 1.21, 0.5375, 1.2775, 0.605, 1.345, 0.6725, 1.4125, 0.335],
  "SoftwareVersions": "syngo MR E11",
  "SpacingBetweenSlices": 2,
  "StationName": "AWP166011",
  "TaskName": "vwfate",
  "TotalReadoutTime": 0.0551515,
  "TxRefAmp": 227.963,
  "dcmmeta_affine": [
    [-1.9999405145645142, 0.01535878423601389, -0.0013469904661178589, 97.68870544433594],
    [0.015410018153488636, 1.9968243837356567, -0.11160174012184143, -66.99475860595703],
    [-0.00048781814984977245, 0.11160880327224731, 1.9968833923339844, -66.02440643310547],
    [0.0, 0.0, 0.0, 1.0]
],
  "dcmmeta_reorient_transform": [
    [0.0, -1.0, 0.0, 95.0],
    [1.0, 0.0, 0.0, 0.0],
    [0.0, 0.0, 1.0, 0.0],
    [0.0, 0.0, 0.0, 1.0]
],
  "dcmmeta_shape": [96, 96, 66, 164],
  "dcmmeta_slice_dim": 2,
  "dcmmeta_version": 0.6,
  "global": {
    "const": {
      "AcquisitionMatrix": [96, 0, 0, 72],
      "AngioFlag": "N",
      "BitsAllocated": 16,
      "BitsStored": 12,
      "BodyPartExamined": "BRAIN",
      "Columns": 864,
      "EchoNumbers": 1,
      "EchoTime": 30.0,
      "EchoTrainLength": 58,
      "FlipAngle": 62.0,
      "HighBit": 11,
      "ImageOrientationPatient": [0.99997028622949, -0.0077050091802, -0.0002439090779, 0.00767939205089, 0.99841218717462, -0.0558044034008],
      "ImagePositionPatient": [-873.02273961199, -883.56666867258, -12.376465965232],
      "ImageType": [
        "ORIGINAL",
        "PRIMARY",
        "M",
        "ND",
        "MOSAIC"
],
      "ImagedNucleus": "1H",
      "ImagingFrequency": 123.259067,
      "InPlanePhaseEncodingDirection": "COL",
      "MRAcquisitionType": "2D",
      "MagneticFieldStrength": 3.0,
      "Manufacturer": "SIEMENS",
      "ManufacturerModelName": "Prisma",
      "Modality": "MR",
      "NumberOfAverages": 1.0,
      "NumberOfPhaseEncodingSteps": 58,
      "PercentPhaseFieldOfView": 100.0,
      "PercentSampling": 75.0,
      "PerformedProcedureStepStartTime": "162628.253000",
      "PhotometricInterpretation": "MONOCHROME2",
      "PixelBandwidth": 2265.0,
      "PixelRepresentation": 0,
      "PixelSpacing": [2.0, 2.0],
      "ProtocolName": "func_vwfate_run9",
      "RepetitionTime": 1500.0,
      "Rows": 864,
      "SAR": 0.0439748749872,
      "SamplesPerPixel": 1,
      "ScanOptions": [
        "PFP",
        "FS"
],
      "ScanningSequence": "EP",
      "SequenceName": "*epfid2d1_72",
      "SequenceVariant": [
        "SK",
        "OSP"
],
      "SeriesDescription": "func_vwfate_run9",
      "SeriesNumber": 11,
      "SeriesTime": "172343.099000",
      "SliceLocation": -62.248946986132,
      "SliceThickness": 2.0,
      "SmallestImagePixelValue": 0,
      "SoftwareVersions": "syngo MR E11",
      "SpacingBetweenSlices": 1.9999999520028,
      "SpecificCharacterSet": "ISO_IR 100",
      "StudyID": "2",
      "StudyTime": "162628.179000",
      "TransmitCoilName": "Body",
      "VariableFlipAngleFlag": "N",
      "WindowCenterWidthExplanation": "Algo1",
      "dBdt": 0.0},
    "slices": {}
  },
  "time": {
    "samples": {
      "AcquisitionNumber": [1, 2, 3, 4, 5, 6, 7, 8, 9, 10, 11, 12, 13, 14, 15, 16, 17, 18, 19, 20, 21, 22, 23, 24, 25, 26, 27, 28, 29, 30, 31, 32, 33, 34, 35, 36, 37, 38, 39, 40, 41, 42, 43, 44, 45, 46, 47, 48, 49, 50, 51, 52, 53, 54, 55, 56, 57, 58, 59, 60, 61, 62, 63, 64, 65, 66, 67, 68, 69, 70, 71, 72, 73, 74, 75, 76, 77, 78, 79, 80, 81, 82, 83, 84, 85, 86, 87, 88, 89, 90, 91, 92, 93, 94, 95, 96, 97, 98, 99, 100, 101, 102, 103, 104, 105, 106, 107, 108, 109, 110, 111, 112, 113, 114, 115, 116, 117, 118, 119, 120, 121, 122, 123, 124, 125, 126, 127, 128, 129, 130, 131, 132, 133, 134, 135, 136, 137, 138, 139, 140, 141, 142, 143, 144, 145, 146, 147, 148, 149, 150, 151, 152, 153, 154, 155, 156, 157, 158, 159, 160, 161, 162, 163, 164],
      "AcquisitionTime": ["172309.915000", "172311.415000", "172312.915000", "172314.415000", "172315.915000", "172317.415000", "172318.915000", "172320.415000", "172321.915000", "172323.415000", "172324.915000", "172326.415000", "172327.915000", "172329.415000", "172330.915000", "172332.415000", "172333.915000", "172335.415000", "172336.915000", "172338.415000", "172339.915000", "172341.415000", "172342.915000", "172344.415000", "172345.915000", "172347.415000", "172348.915000", "172350.415000", "172351.915000", "172353.415000", "172354.915000", "172356.415000", "172357.915000", "172359.415000", "172400.915000", "172402.415000", "172403.915000", "172405.415000", "172406.915000", "172408.415000", "172409.915000", "172411.415000", "172412.915000", "172414.415000", "172415.915000", "172417.415000", "172418.915000", "172420.415000", "172421.915000", "172423.415000", "172424.915000", "172426.415000", "172427.915000", "172429.415000", "172430.915000", "172432.415000", "172433.915000", "172435.415000", "172436.915000", "172438.415000", "172439.915000", "172441.415000", "172442.915000", "172444.415000", "172445.915000", "172447.415000", "172448.915000", "172450.415000", "172451.915000", "172453.415000", "172454.915000", "172456.415000", "172457.915000", "172459.415000", "172500.915000", "172502.415000", "172503.915000", "172505.415000", "172506.915000", "172508.415000", "172509.915000", "172511.415000", "172512.915000", "172514.415000", "172515.915000", "172517.415000", "172518.915000", "172520.415000", "172521.915000", "172523.415000", "172524.915000", "172526.415000", "172527.915000", "172529.415000", "172530.915000", "172532.415000", "172533.915000", "172535.415000", "172536.915000", "172538.415000", "172539.915000", "172541.415000", "172542.915000", "172544.415000", "172545.915000", "172547.415000", "172548.915000", "172550.415000", "172551.915000", "172553.415000", "172554.915000", "172556.415000", "172557.915000", "172559.415000", "172600.915000", "172602.415000", "172603.915000", "172605.415000", "172606.915000", "172608.415000", "172609.915000", "172611.415000", "172612.915000", "172614.415000", "172615.915000", "172617.415000", "172618.915000", "172620.415000", "172621.915000", "172623.415000", "172624.915000", "172626.415000", "172627.915000", "172629.415000", "172630.915000", "172632.415000", "172633.915000", "172635.415000", "172636.915000", "172638.415000", "172639.915000", "172641.415000", "172642.915000", "172644.415000", "172645.915000", "172647.415000", "172648.915000", "172650.415000", "172651.915000", "172653.415000", "172654.915000", "172656.415000", "172657.915000", "172659.415000", "172700.915000", "172702.415000", "172703.915000", "172705.415000", "172706.915000", "172708.415000", "172709.915000", "172711.415000", "172712.915000", "172714.415000"],
      "ContentTime": ["172343.103000", "172343.106000", "172343.110000", "172343.113000", "172343.116000", "172343.119000", "172343.122000", "172343.125000", "172343.128000", "172343.131000", "172343.134000", "172343.139000", "172343.142000", "172343.151000", "172343.154000", "172343.157000", "172343.160000", "172343.170000", "172343.173000", "172343.176000", "172343.179000", "172343.182000", "172423.098000", "172423.101000", "172423.104000", "172423.107000", "172423.110000", "172423.113000", "172423.116000", "172423.119000", "172423.122000", "172423.125000", "172423.128000", "172423.131000", "172423.134000", "172423.137000", "172423.140000", "172423.143000", "172423.146000", "172423.149000", "172423.152000", "172423.155000", "172423.157000", "172423.160000", "172423.163000", "172423.166000", "172423.169000", "172423.172000", "172423.175000", "172503.097000", "172503.100000", "172503.103000", "172503.106000", "172503.109000", "172503.112000", "172503.115000", "172503.118000", "172503.121000", "172503.124000", "172503.127000", "172503.130000", "172503.133000", "172503.150000", "172503.153000", "172503.156000", "172503.159000", "172503.162000", "172503.165000", "172503.168000", "172503.171000", "172503.181000", "172503.184000", "172503.187000", "172503.190000", "172503.193000", "172543.098000", "172543.101000", "172543.104000", "172543.107000", "172543.110000", "172543.113000", "172543.116000", "172543.119000", "172543.122000", "172543.125000", "172543.128000", "172543.131000", "172543.134000", "172543.137000", "172543.140000", "172543.143000", "172543.146000", "172543.149000", "172543.152000", "172543.155000", "172543.158000", "172543.160000", "172543.164000", "172543.166000", "172543.169000", "172543.172000", "172543.175000", "172623.098000", "172623.101000", "172623.110000", "172623.113000", "172623.116000", "172623.119000", "172623.122000", "172623.125000", "172623.127000", "172623.131000", "172623.134000", "172623.137000", "172623.140000", "172623.143000", "172623.146000", "172623.148000", "172623.151000", "172623.155000", "172623.157000", "172623.160000", "172623.163000", "172623.166000", "172623.169000", "172623.172000", "172623.175000", "172623.178000", "172623.181000", "172703.097000", "172703.100000", "172703.103000", "172703.106000", "172703.109000", "172703.112000", "172703.115000", "172703.118000", "172703.121000", "172703.124000", "172703.127000", "172703.130000", "172703.133000", "172703.136000", "172703.139000", "172703.142000", "172703.145000", "172703.148000", "172703.151000", "172703.154000", "172703.157000", "172703.160000", "172703.163000", "172703.165000", "172703.168000", "172703.171000", "172715.510000", "172715.514000", "172715.517000", "172715.520000", "172715.523000", "172715.526000", "172715.529000", "172715.532000", "172715.535000"],
      "InstanceCreationTime": ["172343.103000", "172343.106000", "172343.110000", "172343.113000", "172343.116000", "172343.119000", "172343.122000", "172343.125000", "172343.128000", "172343.131000", "172343.134000", "172343.139000", "172343.142000", "172343.151000", "172343.154000", "172343.157000", "172343.160000", "172343.170000", "172343.173000", "172343.176000", "172343.179000", "172343.182000", "172423.098000", "172423.101000", "172423.104000", "172423.107000", "172423.110000", "172423.113000", "172423.116000", "172423.119000", "172423.122000", "172423.125000", "172423.128000", "172423.131000", "172423.134000", "172423.137000", "172423.140000", "172423.143000", "172423.146000", "172423.149000", "172423.152000", "172423.155000", "172423.157000", "172423.160000", "172423.163000", "172423.166000", "172423.169000", "172423.172000", "172423.175000", "172503.097000", "172503.100000", "172503.103000", "172503.106000", "172503.109000", "172503.112000", "172503.115000", "172503.118000", "172503.121000", "172503.124000", "172503.127000", "172503.130000", "172503.133000", "172503.150000", "172503.153000", "172503.156000", "172503.159000", "172503.162000", "172503.165000", "172503.168000", "172503.171000", "172503.181000", "172503.184000", "172503.187000", "172503.190000", "172503.193000", "172543.098000", "172543.101000", "172543.104000", "172543.107000", "172543.110000", "172543.113000", "172543.116000", "172543.119000", "172543.122000", "172543.125000", "172543.128000", "172543.131000", "172543.134000", "172543.137000", "172543.140000", "172543.143000", "172543.146000", "172543.149000", "172543.152000", "172543.155000", "172543.158000", "172543.160000", "172543.164000", "172543.166000", "172543.169000", "172543.172000", "172543.175000", "172623.098000", "172623.101000", "172623.110000", "172623.113000", "172623.116000", "172623.119000", "172623.122000", "172623.125000", "172623.127000", "172623.131000", "172623.134000", "172623.137000", "172623.140000", "172623.143000", "172623.146000", "172623.148000", "172623.151000", "172623.155000", "172623.157000", "172623.160000", "172623.163000", "172623.166000", "172623.169000", "172623.172000", "172623.175000", "172623.178000", "172623.181000", "172703.097000", "172703.100000", "172703.103000", "172703.106000", "172703.109000", "172703.112000", "172703.115000", "172703.118000", "172703.121000", "172703.124000", "172703.127000", "172703.130000", "172703.133000", "172703.136000", "172703.139000", "172703.142000", "172703.145000", "172703.148000", "172703.151000", "172703.154000", "172703.157000", "172703.160000", "172703.163000", "172703.165000", "172703.168000", "172703.171000", "172715.510000", "172715.514000", "172715.517000", "172715.520000", "172715.523000", "172715.526000", "172715.529000", "172715.532000", "172715.535000"],
      "InstanceNumber": [1, 2, 3, 4, 5, 6, 7, 8, 9, 10, 11, 12, 13, 14, 15, 16, 17, 18, 19, 20, 21, 22, 23, 24, 25, 26, 27, 28, 29, 30, 31, 32, 33, 34, 35, 36, 37, 38, 39, 40, 41, 42, 43, 44, 45, 46, 47, 48, 49, 50, 51, 52, 53, 54, 55, 56, 57, 58, 59, 60, 61, 62, 63, 64, 65, 66, 67, 68, 69, 70, 71, 72, 73, 74, 75, 76, 77, 78, 79, 80, 81, 82, 83, 84, 85, 86, 87, 88, 89, 90, 91, 92, 93, 94, 95, 96, 97, 98, 99, 100, 101, 102, 103, 104, 105, 106, 107, 108, 109, 110, 111, 112, 113, 114, 115, 116, 117, 118, 119, 120, 121, 122, 123, 124, 125, 126, 127, 128, 129, 130, 131, 132, 133, 134, 135, 136, 137, 138, 139, 140, 141, 142, 143, 144, 145, 146, 147, 148, 149, 150, 151, 152, 153, 154, 155, 156, 157, 158, 159, 160, 161, 162, 163, 164],
      "LargestImagePixelValue": [2507, 2496, 2443, 2513, 2444, 2522, 2437, 2512, 2424, 2518, 2460, 2422, 2418, 2430, 2416, 2436, 2425, 2426, 2401, 2459, 2454, 2478, 2435, 2494, 2430, 2459, 2421, 2463, 2442, 2495, 2521, 2470, 2484, 2483, 2447, 2397, 2484, 2442, 2507, 2385, 2506, 2439, 2466, 2426, 2480, 2463, 2479, 2442, 2443, 2513, 2406, 2392, 2480, 2433, 2455, 2389, 2505, 2375, 2554, 2421, 2441, 2421, 2401, 2494, 2463, 2519, 2378, 2461, 2332, 2458, 2384, 2497, 2399, 2402, 2260, 2273, 2338, 2311, 2250, 2478, 2403, 2408, 2371, 2422, 2339, 2440, 2343, 2430, 2335, 2460, 2414, 2436, 2396, 2420, 2455, 2405, 2379, 2568, 2523, 2449, 2397, 2491, 2398, 2442, 2389, 2229, 2237, 2245, 2371, 2298, 2431, 2334, 2322, 2271, 2351, 2350, 2356, 2376, 2294, 2349, 2326, 2309, 2364, 2228, 2357, 2223, 2357, 2218, 2253, 2320, 2286, 2364, 2365, 2202, 2428, 2217, 2341, 2261, 2352, 2404, 2253, 2316, 2284, 2320, 2361, 2283, 2611, 2353, 2236, 2358, 2296, 2365, 2506, 2425, 2246, 2306, 2252, 2304, 2313, 2289, 2267, 2298, 2217, 2271],
      "WindowCenter": [711.0, 709.0, 708.0, 708.0, 708.0, 709.0, 709.0, 711.0, 710.0, 711.0, 710.0, 710.0, 710.0, 709.0, 708.0, 708.0, 709.0, 709.0, 710.0, 711.0, 711.0, 713.0, 713.0, 713.0, 711.0, 708.0, 709.0, 709.0, 709.0, 710.0, 709.0, 708.0, 707.0, 707.0, 707.0, 705.0, 706.0, 706.0, 708.0, 708.0, 708.0, 709.0, 709.0, 708.0, 709.0, 709.0, 710.0, 709.0, 710.0, 711.0, 710.0, 711.0, 711.0, 712.0, 713.0, 712.0, 712.0, 709.0, 709.0, 708.0, 708.0, 708.0, 709.0, 709.0, 710.0, 712.0, 711.0, 710.0, 708.0, 709.0, 709.0, 710.0, 708.0, 708.0, 706.0, 705.0, 706.0, 706.0, 702.0, 708.0, 707.0, 707.0, 708.0, 707.0, 706.0, 706.0, 705.0, 707.0, 707.0, 708.0, 707.0, 709.0, 707.0, 709.0, 709.0, 709.0, 708.0, 709.0, 710.0, 711.0, 709.0, 711.0, 710.0, 711.0, 710.0, 708.0, 708.0, 708.0, 709.0, 709.0, 712.0, 712.0, 710.0, 708.0, 708.0, 709.0, 708.0, 708.0, 707.0, 708.0, 708.0, 708.0, 709.0, 708.0, 710.0, 708.0, 710.0, 709.0, 708.0, 708.0, 708.0, 710.0, 712.0, 704.0, 713.0, 708.0, 709.0, 708.0, 709.0, 709.0, 708.0, 709.0, 708.0, 709.0, 710.0, 709.0, 711.0, 709.0, 708.0, 710.0, 709.0, 710.0, 711.0, 710.0, 708.0, 709.0, 710.0, 711.0, 712.0, 711.0, 710.0, 709.0, 707.0, 705.0],
      "WindowWidth": [1533.0, 1527.0, 1523.0, 1524.0, 1524.0, 1527.0, 1527.0, 1531.0, 1528.0, 1532.0, 1528.0, 1529.0, 1528.0, 1527.0, 1524.0, 1525.0, 1525.0, 1527.0, 1529.0, 1531.0, 1533.0, 1537.0, 1537.0, 1537.0, 1532.0, 1522.0, 1525.0, 1526.0, 1525.0, 1528.0, 1525.0, 1523.0, 1521.0, 1520.0, 1520.0, 1515.0, 1517.0, 1519.0, 1525.0, 1523.0, 1524.0, 1525.0, 1526.0, 1523.0, 1526.0, 1527.0, 1529.0, 1527.0, 1528.0, 1530.0, 1529.0, 1532.0, 1532.0, 1535.0, 1536.0, 1533.0, 1534.0, 1527.0, 1527.0, 1522.0, 1523.0, 1524.0, 1526.0, 1527.0, 1529.0, 1534.0, 1530.0, 1529.0, 1524.0, 1526.0, 1525.0, 1528.0, 1523.0, 1522.0, 1518.0, 1517.0, 1519.0, 1518.0, 1509.0, 1525.0, 1522.0, 1522.0, 1524.0, 1522.0, 1519.0, 1519.0, 1517.0, 1520.0, 1522.0, 1524.0, 1521.0, 1526.0, 1522.0, 1525.0, 1527.0, 1526.0, 1524.0, 1527.0, 1529.0, 1531.0, 1527.0, 1530.0, 1529.0, 1532.0, 1530.0, 1523.0, 1525.0, 1524.0, 1527.0, 1527.0, 1533.0, 1533.0, 1528.0, 1524.0, 1524.0, 1526.0, 1524.0, 1523.0, 1521.0, 1523.0, 1524.0, 1525.0, 1528.0, 1525.0, 1529.0, 1524.0, 1529.0, 1525.0, 1523.0, 1525.0, 1524.0, 1529.0, 1534.0, 1514.0, 1535.0, 1524.0, 1525.0, 1523.0, 1525.0, 1525.0, 1522.0, 1525.0, 1524.0, 1526.0, 1527.0, 1526.0, 1531.0, 1526.0, 1524.0, 1527.0, 1526.0, 1528.0, 1530.0, 1528.0, 1523.0, 1525.0, 1528.0, 1531.0, 1533.0, 1530.0, 1527.0, 1525.0, 1520.0, 1517.0]
    },
    "slices": {}
  }
}