{
  "AcquisitionMatrixPE": 72,
  "AcquisitionNumber": 1,
  "AcquisitionTime": "09:23:23.370000",
  "BandwidthPerPixelPhaseEncode": 17.943,
  "BaseResolution": 96,
  "BodyPartExamined": "BRAIN",
  "CoilCombinationMethod": "Sum of Squares",
  "ConsistencyInfo": "N4_VE11C_LATEST_20160120",
  "ConversionSoftware": "dcm2niix",
  "ConversionSoftwareVersion": "v1.0.20211006",
  "DerivedVendorReportedEchoSpacing": 0.000552897,
  "DeviceSerialNumber": "166011",
  "EchoTime": 0.03,
  "EchoTrainLength": 58,
  "EffectiveEchoSpacing": 0.000580542,
  "FlipAngle": 62,
  "ImageOrientationPatientDICOM": [0.99992, 0.00232525, -0.0124396, -0.0040139, 0.990494, -0.137499],
  "ImageType": [
    "ORIGINAL",
    "PRIMARY",
    "M",
    "ND",
    "MOSAIC"
],
  "ImagingFrequency": 123.26,
  "InPlanePhaseEncodingDirectionDICOM": "COL",
  "InstitutionAddress": "West 130th Street 610,NY,NYC,US,10025",
  "InstitutionName": "MBBI",
  "MRAcquisitionType": "2D",
  "MagneticFieldStrength": 3,
  "Manufacturer": "Siemens",
  "ManufacturersModelName": "Prisma",
  "Modality": "MR",
  "MultibandAccelerationFactor": 3,
  "PartialFourier": 0.75,
  "PatientPosition": "HFS",
  "PercentPhaseFOV": 100,
  "PercentSampling": 75,
  "PhaseEncodingDirection": "j-",
  "PhaseEncodingSteps": 58,
  "PhaseOversampling": 0.05,
  "PhaseResolution": 0.75,
  "PixelBandwidth": 2265,
  "ProcedureStepDescription": "White^Word_recognition",
  "ProtocolName": "func_vwfate_run10",
  "PulseSequenceDetails": "%SiemensSeq%\\ep2d_bold",
  "ReceiveCoilActiveElements": "HC1-7",
  "ReceiveCoilName": "HeadNeck_64",
  "ReconMatrixPE": 96,
  "RefLinesPE": 40,
  "RepetitionTime": 1.5,
  "SAR": 0.0458272,
  "ScanOptions": "PFP\\FS",
  "ScanningSequence": "EP",
  "SequenceName": "*epfid2d1_72",
  "SequenceVariant": "SK\\OSP",
  "SeriesDescription": "func_vwfate_run10",
  "SeriesNumber": 12,
  "ShimSetting": [-1153, -1335, 612, 489, -113, -78, -36, 10],
  "SliceThickness": 2,
  "SliceTiming": [1.0775, 0, 0.74, 0.0675, 0.8075, 0.135, 0.875, 0.2025, 0.9425, 0.27, 1.01, 0.405, 1.145, 0.4725, 1.2125, 0.5375, 1.2775, 0.605, 1.345, 0.6725, 1.4125, 0.3375, 1.0775, 0, 0.74, 0.0675, 0.8075, 0.135, 0.875, 0.2025, 0.9425, 0.27, 1.01, 0.405, 1.145, 0.4725, 1.2125, 0.5375, 1.2775, 0.605, 1.345, 0.6725, 1.4125, 0.3375, 1.0775, 0, 0.74, 0.0675, 0.8075, 0.135, 0.875, 0.2025, 0.9425, 0.27, 1.01, 0.405, 1.145, 0.4725, 1.2125, 0.5375, 1.2775, 0.605, 1.345, 0.6725, 1.4125, 0.3375],
  "SoftwareVersions": "syngo MR E11",
  "SpacingBetweenSlices": 2,
  "StationName": "AWP166011",
  "TaskName": "vwfate",
  "TotalReadoutTime": 0.0551515,
  "TxRefAmp": 224.95,
  "dcmmeta_affine": [
    [-1.9998399019241333, -0.00802780594676733, -0.02400326542556286, 100.49341583251953],
    [-0.004650508053600788, 1.980987548828125, -0.2750755548477173, -61.546669006347656],
    [-0.0248792115598917, 0.274997740983963, 1.9808475971221924, -79.56437683105469],
    [0.0, 0.0, 0.0, 1.0]
],
  "dcmmeta_reorient_transform": [
    [0.0, -1.0, 0.0, 95.0],
    [1.0, 0.0, 0.0, 0.0],
    [0.0, 0.0, 1.0, 0.0],
    [0.0, 0.0, 0.0, 1.0]
],
  "dcmmeta_shape": [96, 96, 66, 164],
  "dcmmeta_slice_dim": 2,
  "dcmmeta_version": 0.6,
  "global": {
    "const": {
      "AcquisitionMatrix": [96, 0, 0, 72],
      "AngioFlag": "N",
      "BitsAllocated": 16,
      "BitsStored": 12,
      "BodyPartExamined": "BRAIN",
      "Columns": 864,
      "EchoNumbers": 1,
      "EchoTime": 30.0,
      "EchoTrainLength": 58,
      "FlipAngle": 62.0,
      "HighBit": 11,
      "ImageOrientationPatient": [0.99991992149116, 0.00232525409452, -0.0124396060428, -0.00401390286, 0.99049379161898, -0.1374988630792],
      "ImagePositionPatient": [-864.58659322251, -889.13217664515, 61.713150492834],
      "ImageType": [
        "ORIGINAL",
        "PRIMARY",
        "M",
        "ND",
        "MOSAIC"
],
      "ImagedNucleus": "1H",
      "ImagingFrequency": 123.259644,
      "InPlanePhaseEncodingDirection": "COL",
      "MRAcquisitionType": "2D",
      "MagneticFieldStrength": 3.0,
      "Manufacturer": "SIEMENS",
      "ManufacturerModelName": "Prisma",
      "Modality": "MR",
      "NumberOfAverages": 1.0,
      "NumberOfPhaseEncodingSteps": 58,
      "PercentPhaseFieldOfView": 100.0,
      "PercentSampling": 75.0,
      "PerformedProcedureStepStartTime": "083259.649000",
      "PhotometricInterpretation": "MONOCHROME2",
      "PixelBandwidth": 2265.0,
      "PixelRepresentation": 0,
      "PixelSpacing": [2.0, 2.0],
      "ProtocolName": "func_vwfate_run10",
      "RepetitionTime": 1500.0,
      "Rows": 864,
      "SAR": 0.04582719899835,
      "SamplesPerPixel": 1,
      "ScanOptions": [
        "PFP",
        "FS"
],
      "ScanningSequence": "EP",
      "SequenceName": "*epfid2d1_72",
      "SequenceVariant": [
        "SK",
        "OSP"
],
      "SeriesDescription": "func_vwfate_run10",
      "SeriesNumber": 12,
      "SeriesTime": "092353.299000",
      "SliceLocation": -71.543546318692,
      "SliceThickness": 2.0,
      "SmallestImagePixelValue": 0,
      "SoftwareVersions": "syngo MR E11",
      "SpacingBetweenSlices": 1.9999999626014,
      "SpecificCharacterSet": "ISO_IR 100",
      "StudyID": "2",
      "StudyTime": "083259.556000",
      "TransmitCoilName": "Body",
      "VariableFlipAngleFlag": "N",
      "WindowCenterWidthExplanation": "Algo1",
      "dBdt": 0.0},
    "slices": {}
  },
  "time": {
    "samples": {
      "AcquisitionNumber": [1, 2, 3, 4, 5, 6, 7, 8, 9, 10, 11, 12, 13, 14, 15, 16, 17, 18, 19, 20, 21, 22, 23, 24, 25, 26, 27, 28, 29, 30, 31, 32, 33, 34, 35, 36, 37, 38, 39, 40, 41, 42, 43, 44, 45, 46, 47, 48, 49, 50, 51, 52, 53, 54, 55, 56, 57, 58, 59, 60, 61, 62, 63, 64, 65, 66, 67, 68, 69, 70, 71, 72, 73, 74, 75, 76, 77, 78, 79, 80, 81, 82, 83, 84, 85, 86, 87, 88, 89, 90, 91, 92, 93, 94, 95, 96, 97, 98, 99, 100, 101, 102, 103, 104, 105, 106, 107, 108, 109, 110, 111, 112, 113, 114, 115, 116, 117, 118, 119, 120, 121, 122, 123, 124, 125, 126, 127, 128, 129, 130, 131, 132, 133, 134, 135, 136, 137, 138, 139, 140, 141, 142, 143, 144, 145, 146, 147, 148, 149, 150, 151, 152, 153, 154, 155, 156, 157, 158, 159, 160, 161, 162, 163, 164],
      "AcquisitionTime": ["092323.370000", "092324.870000", "092326.370000", "092327.870000", "092329.370000", "092330.870000", "092332.370000", "092333.870000", "092335.370000", "092336.870000", "092338.370000", "092339.870000", "092341.370000", "092342.870000", "092344.370000", "092345.870000", "092347.370000", "092348.870000", "092350.370000", "092351.870000", "092353.370000", "092354.870000", "092356.370000", "092357.870000", "092359.370000", "092400.870000", "092402.370000", "092403.870000", "092405.370000", "092406.870000", "092408.370000", "092409.870000", "092411.370000", "092412.870000", "092414.370000", "092415.870000", "092417.370000", "092418.870000", "092420.370000", "092421.870000", "092423.370000", "092424.870000", "092426.370000", "092427.870000", "092429.370000", "092430.870000", "092432.370000", "092433.870000", "092435.370000", "092436.870000", "092438.370000", "092439.870000", "092441.370000", "092442.870000", "092444.370000", "092445.870000", "092447.370000", "092448.870000", "092450.370000", "092451.870000", "092453.370000", "092454.870000", "092456.370000", "092457.870000", "092459.370000", "092500.870000", "092502.370000", "092503.870000", "092505.370000", "092506.870000", "092508.370000", "092509.870000", "092511.370000", "092512.870000", "092514.370000", "092515.870000", "092517.370000", "092518.870000", "092520.370000", "092521.870000", "092523.370000", "092524.870000", "092526.370000", "092527.870000", "092529.370000", "092530.870000", "092532.370000", "092533.870000", "092535.370000", "092536.870000", "092538.370000", "092539.870000", "092541.370000", "092542.870000", "092544.370000", "092545.870000", "092547.370000", "092548.870000", "092550.370000", "092551.870000", "092553.370000", "092554.870000", "092556.370000", "092557.870000", "092559.370000", "092600.870000", "092602.370000", "092603.870000", "092605.370000", "092606.870000", "092608.370000", "092609.870000", "092611.370000", "092612.870000", "092614.370000", "092615.870000", "092617.370000", "092618.870000", "092620.370000", "092621.870000", "092623.370000", "092624.870000", "092626.370000", "092627.870000", "092629.370000", "092630.870000", "092632.370000", "092633.870000", "092635.370000", "092636.870000", "092638.370000", "092639.870000", "092641.370000", "092642.870000", "092644.370000", "092645.870000", "092647.370000", "092648.870000", "092650.370000", "092651.870000", "092653.370000", "092654.870000", "092656.370000", "092657.870000", "092659.370000", "092700.870000", "092702.370000", "092703.870000", "092705.370000", "092706.870000", "092708.370000", "092709.870000", "092711.370000", "092712.870000", "092714.370000", "092715.870000", "092717.370000", "092718.870000", "092720.370000", "092721.870000", "092723.370000", "092724.870000", "092726.370000", "092727.870000"],
      "ContentTime": ["092353.303000", "092353.307000", "092353.310000", "092353.313000", "092353.316000", "092353.319000", "092353.322000", "092353.325000", "092353.328000", "092353.331000", "092353.334000", "092353.337000", "092353.340000", "092353.349000", "092353.352000", "092353.355000", "092353.358000", "092353.361000", "092353.365000", "092353.367000", "092433.298000", "092433.301000", "092433.304000", "092433.307000", "092433.310000", "092433.313000", "092433.316000", "092433.320000", "092433.329000", "092433.332000", "092433.335000", "092433.338000", "092433.341000", "092433.344000", "092433.347000", "092433.350000", "092433.353000", "092433.356000", "092433.359000", "092433.362000", "092433.365000", "092433.368000", "092433.371000", "092433.374000", "092433.377000", "092433.380000", "092513.298000", "092513.301000", "092513.304000", "092513.307000", "092513.310000", "092513.313000", "092513.316000", "092513.319000", "092513.322000", "092513.325000", "092513.328000", "092513.331000", "092513.334000", "092513.337000", "092513.340000", "092513.343000", "092513.346000", "092513.356000", "092513.359000", "092513.362000", "092513.365000", "092513.368000", "092513.371000", "092513.374000", "092513.379000", "092513.382000", "092513.385000", "092553.298000", "092553.301000", "092553.304000", "092553.307000", "092553.310000", "092553.313000", "092553.316000", "092553.319000", "092553.322000", "092553.325000", "092553.328000", "092553.331000", "092553.334000", "092553.337000", "092553.340000", "092553.343000", "092553.346000", "092553.349000", "092553.352000", "092553.355000", "092553.358000", "092553.361000", "092553.365000", "092553.368000", "092553.371000", "092553.373000", "092553.377000", "092633.298000", "092633.301000", "092633.304000", "092633.307000", "092633.310000", "092633.313000", "092633.316000", "092633.319000", "092633.322000", "092633.325000", "092633.328000", "092633.331000", "092633.334000", "092633.337000", "092633.340000", "092633.343000", "092633.346000", "092633.349000", "092633.352000", "092633.355000", "092633.358000", "092633.361000", "092633.378000", "092633.381000", "092633.384000", "092633.387000", "092713.298000", "092713.301000", "092713.304000", "092713.307000", "092713.310000", "092713.313000", "092713.316000", "092713.320000", "092713.323000", "092713.326000", "092713.329000", "092713.332000", "092713.335000", "092713.338000", "092713.341000", "092713.344000", "092713.347000", "092713.350000", "092713.353000", "092713.356000", "092713.359000", "092713.362000", "092713.365000", "092713.368000", "092713.371000", "092713.374000", "092713.377000", "092728.984000", "092728.987000", "092728.990000", "092728.994000", "092728.997000", "092729.001000", "092729.004000", "092729.007000", "092729.010000", "092729.014000", "092729.017000"],
      "InstanceCreationTime": ["092353.303000", "092353.307000", "092353.310000", "092353.313000", "092353.316000", "092353.319000", "092353.322000", "092353.325000", "092353.328000", "092353.331000", "092353.334000", "092353.337000", "092353.340000", "092353.349000", "092353.352000", "092353.355000", "092353.358000", "092353.361000", "092353.365000", "092353.367000", "092433.298000", "092433.301000", "092433.304000", "092433.307000", "092433.310000", "092433.313000", "092433.316000", "092433.320000", "092433.329000", "092433.332000", "092433.335000", "092433.338000", "092433.341000", "092433.344000", "092433.347000", "092433.350000", "092433.353000", "092433.356000", "092433.359000", "092433.362000", "092433.365000", "092433.368000", "092433.371000", "092433.374000", "092433.377000", "092433.380000", "092513.298000", "092513.301000", "092513.304000", "092513.307000", "092513.310000", "092513.313000", "092513.316000", "092513.319000", "092513.322000", "092513.325000", "092513.328000", "092513.331000", "092513.334000", "092513.337000", "092513.340000", "092513.343000", "092513.346000", "092513.356000", "092513.359000", "092513.362000", "092513.365000", "092513.368000", "092513.371000", "092513.374000", "092513.379000", "092513.382000", "092513.385000", "092553.298000", "092553.301000", "092553.304000", "092553.307000", "092553.310000", "092553.313000", "092553.316000", "092553.319000", "092553.322000", "092553.325000", "092553.328000", "092553.331000", "092553.334000", "092553.337000", "092553.340000", "092553.343000", "092553.346000", "092553.349000", "092553.352000", "092553.355000", "092553.358000", "092553.361000", "092553.365000", "092553.368000", "092553.371000", "092553.373000", "092553.377000", "092633.298000", "092633.301000", "092633.304000", "092633.307000", "092633.310000", "092633.313000", "092633.316000", "092633.319000", "092633.322000", "092633.325000", "092633.328000", "092633.331000", "092633.334000", "092633.337000", "092633.340000", "092633.343000", "092633.346000", "092633.349000", "092633.352000", "092633.355000", "092633.358000", "092633.361000", "092633.378000", "092633.381000", "092633.384000", "092633.387000", "092713.298000", "092713.301000", "092713.304000", "092713.307000", "092713.310000", "092713.313000", "092713.316000", "092713.320000", "092713.323000", "092713.326000", "092713.329000", "092713.332000", "092713.335000", "092713.338000", "092713.341000", "092713.344000", "092713.347000", "092713.350000", "092713.353000", "092713.356000", "092713.359000", "092713.362000", "092713.365000", "092713.368000", "092713.371000", "092713.374000", "092713.377000", "092728.984000", "092728.987000", "092728.990000", "092728.994000", "092728.997000", "092729.001000", "092729.004000", "092729.007000", "092729.010000", "092729.014000", "092729.017000"],
      "InstanceNumber": [1, 2, 3, 4, 5, 6, 7, 8, 9, 10, 11, 12, 13, 14, 15, 16, 17, 18, 19, 20, 21, 22, 23, 24, 25, 26, 27, 28, 29, 30, 31, 32, 33, 34, 35, 36, 37, 38, 39, 40, 41, 42, 43, 44, 45, 46, 47, 48, 49, 50, 51, 52, 53, 54, 55, 56, 57, 58, 59, 60, 61, 62, 63, 64, 65, 66, 67, 68, 69, 70, 71, 72, 73, 74, 75, 76, 77, 78, 79, 80, 81, 82, 83, 84, 85, 86, 87, 88, 89, 90, 91, 92, 93, 94, 95, 96, 97, 98, 99, 100, 101, 102, 103, 104, 105, 106, 107, 108, 109, 110, 111, 112, 113, 114, 115, 116, 117, 118, 119, 120, 121, 122, 123, 124, 125, 126, 127, 128, 129, 130, 131, 132, 133, 134, 135, 136, 137, 138, 139, 140, 141, 142, 143, 144, 145, 146, 147, 148, 149, 150, 151, 152, 153, 154, 155, 156, 157, 158, 159, 160, 161, 162, 163, 164],
      "LargestImagePixelValue": [3333, 3278, 3267, 3215, 3235, 3270, 3237, 3267, 3229, 3188, 3182, 3198, 3213, 3215, 3211, 3237, 3232, 3187, 3240, 3202, 3202, 3228, 3276, 3315, 3266, 3250, 3230, 3236, 3228, 3238, 3241, 3278, 3300, 3275, 3289, 3267, 3273, 3256, 3251, 3228, 3271, 3252, 3273, 3245, 3251, 3224, 3230, 3228, 3239, 3297, 3224, 3245, 3234, 3261, 3238, 3270, 3242, 3228, 3270, 3299, 3281, 3262, 3281, 3256, 3266, 3235, 3292, 3282, 3267, 3301, 3284, 3272, 3255, 3262, 3263, 3283, 3278, 3268, 3255, 3247, 3290, 3278, 3290, 3271, 3273, 3292, 3276, 3270, 3284, 3274, 3260, 3256, 3230, 3260, 3258, 3259, 3248, 3255, 3278, 3285, 3281, 3286, 3305, 3332, 3284, 3227, 3242, 3247, 3249, 3247, 3219, 3225, 3242, 3263, 3247, 3256, 3231, 3225, 3223, 3243, 3262, 3272, 3250, 3246, 3257, 3254, 3267, 3282, 3302, 3293, 3290, 3273, 3290, 3279, 3272, 3415, 3414, 3355, 3324, 3313, 3303, 3261, 3264, 3222, 3233, 3253, 3215, 3244, 3245, 3238, 3252, 3257, 3267, 3295, 3252, 3260, 3264, 3237, 3253, 3244, 3248, 3254, 3272, 3284],
      "WindowCenter": [809.0, 806.0, 805.0, 805.0, 806.0, 806.0, 806.0, 805.0, 804.0, 803.0, 804.0, 804.0, 805.0, 805.0, 805.0, 804.0, 804.0, 803.0, 804.0, 804.0, 806.0, 808.0, 808.0, 804.0, 806.0, 805.0, 804.0, 803.0, 802.0, 803.0, 804.0, 806.0, 808.0, 809.0, 809.0, 808.0, 805.0, 804.0, 804.0, 804.0, 804.0, 805.0, 806.0, 807.0, 805.0, 803.0, 802.0, 803.0, 802.0, 803.0, 802.0, 803.0, 803.0, 803.0, 802.0, 802.0, 802.0, 803.0, 805.0, 807.0, 807.0, 806.0, 805.0, 804.0, 804.0, 804.0, 805.0, 806.0, 806.0, 806.0, 807.0, 808.0, 806.0, 805.0, 805.0, 806.0, 806.0, 806.0, 805.0, 804.0, 804.0, 805.0, 806.0, 806.0, 806.0, 805.0, 806.0, 807.0, 805.0, 803.0, 802.0, 801.0, 801.0, 801.0, 802.0, 802.0, 802.0, 803.0, 804.0, 805.0, 806.0, 807.0, 809.0, 808.0, 805.0, 803.0, 802.0, 802.0, 802.0, 801.0, 801.0, 801.0, 804.0, 805.0, 805.0, 805.0, 804.0, 803.0, 803.0, 804.0, 805.0, 806.0, 805.0, 804.0, 803.0, 803.0, 804.0, 805.0, 807.0, 808.0, 808.0, 808.0, 807.0, 807.0, 809.0, 811.0, 809.0, 806.0, 805.0, 803.0, 803.0, 802.0, 802.0, 801.0, 801.0, 802.0, 802.0, 802.0, 802.0, 802.0, 803.0, 805.0, 808.0, 807.0, 805.0, 804.0, 804.0, 803.0, 803.0, 803.0, 803.0, 802.0, 804.0, 806.0],
      "WindowWidth": [1786.0, 1777.0, 1775.0, 1774.0, 1778.0, 1778.0, 1776.0, 1772.0, 1771.0, 1769.0, 1771.0, 1772.0, 1774.0, 1774.0, 1773.0, 1771.0, 1771.0, 1770.0, 1771.0, 1773.0, 1777.0, 1783.0, 1782.0, 1772.0, 1778.0, 1773.0, 1771.0, 1768.0, 1766.0, 1768.0, 1772.0, 1779.0, 1783.0, 1785.0, 1785.0, 1782.0, 1775.0, 1771.0, 1770.0, 1771.0, 1773.0, 1775.0, 1777.0, 1778.0, 1773.0, 1769.0, 1767.0, 1768.0, 1767.0, 1767.0, 1765.0, 1769.0, 1769.0, 1769.0, 1767.0, 1767.0, 1766.0, 1769.0, 1776.0, 1781.0, 1780.0, 1777.0, 1775.0, 1772.0, 1771.0, 1772.0, 1775.0, 1776.0, 1777.0, 1778.0, 1781.0, 1781.0, 1777.0, 1774.0, 1773.0, 1776.0, 1777.0, 1776.0, 1773.0, 1770.0, 1771.0, 1774.0, 1776.0, 1777.0, 1776.0, 1776.0, 1778.0, 1779.0, 1775.0, 1768.0, 1765.0, 1763.0, 1762.0, 1763.0, 1765.0, 1765.0, 1765.0, 1769.0, 1772.0, 1775.0, 1776.0, 1779.0, 1785.0, 1783.0, 1774.0, 1768.0, 1766.0, 1765.0, 1765.0, 1764.0, 1762.0, 1764.0, 1770.0, 1773.0, 1773.0, 1772.0, 1770.0, 1768.0, 1769.0, 1772.0, 1776.0, 1778.0, 1774.0, 1769.0, 1768.0, 1768.0, 1771.0, 1773.0, 1779.0, 1781.0, 1781.0, 1782.0, 1781.0, 1779.0, 1785.0, 1790.0, 1783.0, 1776.0, 1772.0, 1768.0, 1766.0, 1764.0, 1763.0, 1761.0, 1763.0, 1764.0, 1764.0, 1765.0, 1765.0, 1766.0, 1768.0, 1774.0, 1780.0, 1778.0, 1772.0, 1771.0, 1770.0, 1767.0, 1768.0, 1768.0, 1768.0, 1766.0, 1771.0, 1776.0]
    },
    "slices": {}
  }
}