{
  "AcquisitionMatrixPE": 72,
  "AcquisitionNumber": 1,
  "AcquisitionTime": "09:37:13.170000",
  "BandwidthPerPixelPhaseEncode": 17.943,
  "BaseResolution": 96,
  "BodyPartExamined": "BRAIN",
  "CoilCombinationMethod": "Sum of Squares",
  "ConsistencyInfo": "N4_VE11C_LATEST_20160120",
  "ConversionSoftware": "dcm2niix",
  "ConversionSoftwareVersion": "v1.0.20211006",
  "DerivedVendorReportedEchoSpacing": 0.000552897,
  "DeviceSerialNumber": "166011",
  "EchoTime": 0.03,
  "EchoTrainLength": 58,
  "EffectiveEchoSpacing": 0.000580542,
  "FlipAngle": 62,
  "ImageOrientationPatientDICOM": [0.99992, 0.00232525, -0.0124396, -0.0040139, 0.990494, -0.137499],
  "ImageType": [
    "ORIGINAL",
    "PRIMARY",
    "M",
    "ND",
    "MOSAIC"
],
  "ImagingFrequency": 123.26,
  "InPlanePhaseEncodingDirectionDICOM": "COL",
  "InstitutionAddress": "West 130th Street 610,NY,NYC,US,10025",
  "InstitutionName": "MBBI",
  "MRAcquisitionType": "2D",
  "MagneticFieldStrength": 3,
  "Manufacturer": "Siemens",
  "ManufacturersModelName": "Prisma",
  "Modality": "MR",
  "MultibandAccelerationFactor": 3,
  "PartialFourier": 0.75,
  "PatientPosition": "HFS",
  "PercentPhaseFOV": 100,
  "PercentSampling": 75,
  "PhaseEncodingDirection": "j-",
  "PhaseEncodingSteps": 58,
  "PhaseOversampling": 0.05,
  "PhaseResolution": 0.75,
  "PixelBandwidth": 2265,
  "ProcedureStepDescription": "White^Word_recognition",
  "ProtocolName": "func_vwfate_run11",
  "PulseSequenceDetails": "%SiemensSeq%\\ep2d_bold",
  "ReceiveCoilActiveElements": "HC1-7",
  "ReceiveCoilName": "HeadNeck_64",
  "ReconMatrixPE": 96,
  "RefLinesPE": 40,
  "RepetitionTime": 1.5,
  "SAR": 0.0458272,
  "ScanOptions": "PFP\\FS",
  "ScanningSequence": "EP",
  "SequenceName": "*epfid2d1_72",
  "SequenceVariant": "SK\\OSP",
  "SeriesDescription": "func_vwfate_run11",
  "SeriesNumber": 14,
  "ShimSetting": [-1153, -1335, 612, 489, -113, -78, -36, 10],
  "SliceThickness": 2,
  "SliceTiming": [1.0775, 0, 0.74, 0.0675, 0.8075, 0.135, 0.875, 0.2025, 0.9425, 0.27, 1.01, 0.405, 1.145, 0.4725, 1.2125, 0.54, 1.28, 0.6075, 1.3475, 0.6725, 1.4125, 0.3375, 1.0775, 0, 0.74, 0.0675, 0.8075, 0.135, 0.875, 0.2025, 0.9425, 0.27, 1.01, 0.405, 1.145, 0.4725, 1.2125, 0.54, 1.28, 0.6075, 1.3475, 0.6725, 1.4125, 0.3375, 1.0775, 0, 0.74, 0.0675, 0.8075, 0.135, 0.875, 0.2025, 0.9425, 0.27, 1.01, 0.405, 1.145, 0.4725, 1.2125, 0.54, 1.28, 0.6075, 1.3475, 0.6725, 1.4125, 0.3375],
  "SoftwareVersions": "syngo MR E11",
  "SpacingBetweenSlices": 2,
  "StationName": "AWP166011",
  "TaskName": "vwfate",
  "TotalReadoutTime": 0.0551515,
  "TxRefAmp": 224.95,
  "dcmmeta_affine": [
    [-1.9998399019241333, -0.00802780594676733, -0.02400326542556286, 100.49341583251953],
    [-0.004650508053600788, 1.980987548828125, -0.2750755548477173, -61.546669006347656],
    [-0.0248792115598917, 0.274997740983963, 1.9808475971221924, -79.56437683105469],
    [0.0, 0.0, 0.0, 1.0]
],
  "dcmmeta_reorient_transform": [
    [0.0, -1.0, 0.0, 95.0],
    [1.0, 0.0, 0.0, 0.0],
    [0.0, 0.0, 1.0, 0.0],
    [0.0, 0.0, 0.0, 1.0]
],
  "dcmmeta_shape": [96, 96, 66, 164],
  "dcmmeta_slice_dim": 2,
  "dcmmeta_version": 0.6,
  "global": {
    "const": {
      "AcquisitionMatrix": [96, 0, 0, 72],
      "AngioFlag": "N",
      "BitsAllocated": 16,
      "BitsStored": 12,
      "BodyPartExamined": "BRAIN",
      "Columns": 864,
      "EchoNumbers": 1,
      "EchoTime": 30.0,
      "EchoTrainLength": 58,
      "FlipAngle": 62.0,
      "HighBit": 11,
      "ImageOrientationPatient": [0.99991992149116, 0.00232525409452, -0.0124396060428, -0.00401390286, 0.99049379161898, -0.1374988630792],
      "ImagePositionPatient": [-864.58659322251, -889.13217664515, 61.713150492834],
      "ImageType": [
        "ORIGINAL",
        "PRIMARY",
        "M",
        "ND",
        "MOSAIC"
],
      "ImagedNucleus": "1H",
      "ImagingFrequency": 123.25965,
      "InPlanePhaseEncodingDirection": "COL",
      "MRAcquisitionType": "2D",
      "MagneticFieldStrength": 3.0,
      "Manufacturer": "SIEMENS",
      "ManufacturerModelName": "Prisma",
      "Modality": "MR",
      "NumberOfAverages": 1.0,
      "NumberOfPhaseEncodingSteps": 58,
      "PercentPhaseFieldOfView": 100.0,
      "PercentSampling": 75.0,
      "PerformedProcedureStepStartTime": "083259.649000",
      "PhotometricInterpretation": "MONOCHROME2",
      "PixelBandwidth": 2265.0,
      "PixelRepresentation": 0,
      "PixelSpacing": [2.0, 2.0],
      "ProtocolName": "func_vwfate_run11",
      "RepetitionTime": 1500.0,
      "Rows": 864,
      "SAR": 0.04582719899835,
      "SamplesPerPixel": 1,
      "ScanOptions": [
        "PFP",
        "FS"
],
      "ScanningSequence": "EP",
      "SequenceName": "*epfid2d1_72",
      "SequenceVariant": [
        "SK",
        "OSP"
],
      "SeriesDescription": "func_vwfate_run11",
      "SeriesNumber": 14,
      "SeriesTime": "093759.549000",
      "SliceLocation": -71.543546318692,
      "SliceThickness": 2.0,
      "SmallestImagePixelValue": 0,
      "SoftwareVersions": "syngo MR E11",
      "SpacingBetweenSlices": 1.9999999626014,
      "SpecificCharacterSet": "ISO_IR 100",
      "StudyID": "2",
      "StudyTime": "083259.556000",
      "TransmitCoilName": "Body",
      "VariableFlipAngleFlag": "N",
      "WindowCenterWidthExplanation": "Algo1",
      "dBdt": 0.0},
    "slices": {}
  },
  "time": {
    "samples": {
      "AcquisitionNumber": [1, 2, 3, 4, 5, 6, 7, 8, 9, 10, 11, 12, 13, 14, 15, 16, 17, 18, 19, 20, 21, 22, 23, 24, 25, 26, 27, 28, 29, 30, 31, 32, 33, 34, 35, 36, 37, 38, 39, 40, 41, 42, 43, 44, 45, 46, 47, 48, 49, 50, 51, 52, 53, 54, 55, 56, 57, 58, 59, 60, 61, 62, 63, 64, 65, 66, 67, 68, 69, 70, 71, 72, 73, 74, 75, 76, 77, 78, 79, 80, 81, 82, 83, 84, 85, 86, 87, 88, 89, 90, 91, 92, 93, 94, 95, 96, 97, 98, 99, 100, 101, 102, 103, 104, 105, 106, 107, 108, 109, 110, 111, 112, 113, 114, 115, 116, 117, 118, 119, 120, 121, 122, 123, 124, 125, 126, 127, 128, 129, 130, 131, 132, 133, 134, 135, 136, 137, 138, 139, 140, 141, 142, 143, 144, 145, 146, 147, 148, 149, 150, 151, 152, 153, 154, 155, 156, 157, 158, 159, 160, 161, 162, 163, 164],
      "AcquisitionTime": ["093713.170000", "093714.670000", "093716.170000", "093717.670000", "093719.170000", "093720.670000", "093722.170000", "093723.670000", "093725.170000", "093726.670000", "093728.170000", "093729.670000", "093731.170000", "093732.670000", "093734.170000", "093735.670000", "093737.170000", "093738.670000", "093740.170000", "093741.670000", "093743.170000", "093744.670000", "093746.170000", "093747.670000", "093749.170000", "093750.670000", "093752.170000", "093753.670000", "093755.170000", "093756.670000", "093758.170000", "093759.670000", "093801.170000", "093802.670000", "093804.170000", "093805.670000", "093807.170000", "093808.670000", "093810.170000", "093811.670000", "093813.170000", "093814.670000", "093816.170000", "093817.670000", "093819.170000", "093820.670000", "093822.170000", "093823.670000", "093825.170000", "093826.670000", "093828.170000", "093829.670000", "093831.170000", "093832.670000", "093834.170000", "093835.670000", "093837.170000", "093838.670000", "093840.170000", "093841.670000", "093843.170000", "093844.670000", "093846.170000", "093847.670000", "093849.170000", "093850.670000", "093852.170000", "093853.670000", "093855.170000", "093856.670000", "093858.170000", "093859.670000", "093901.170000", "093902.670000", "093904.170000", "093905.670000", "093907.170000", "093908.670000", "093910.170000", "093911.670000", "093913.170000", "093914.670000", "093916.170000", "093917.670000", "093919.170000", "093920.670000", "093922.170000", "093923.670000", "093925.170000", "093926.670000", "093928.170000", "093929.670000", "093931.170000", "093932.670000", "093934.170000", "093935.670000", "093937.170000", "093938.670000", "093940.170000", "093941.670000", "093943.170000", "093944.670000", "093946.170000", "093947.670000", "093949.170000", "093950.670000", "093952.170000", "093953.670000", "093955.170000", "093956.670000", "093958.170000", "093959.670000", "094001.170000", "094002.670000", "094004.170000", "094005.670000", "094007.170000", "094008.670000", "094010.170000", "094011.670000", "094013.170000", "094014.670000", "094016.170000", "094017.670000", "094019.170000", "094020.670000", "094022.170000", "094023.670000", "094025.170000", "094026.670000", "094028.170000", "094029.670000", "094031.170000", "094032.670000", "094034.170000", "094035.670000", "094037.170000", "094038.670000", "094040.170000", "094041.670000", "094043.170000", "094044.670000", "094046.170000", "094047.670000", "094049.170000", "094050.670000", "094052.170000", "094053.670000", "094055.170000", "094056.670000", "094058.170000", "094059.670000", "094101.170000", "094102.670000", "094104.170000", "094105.670000", "094107.170000", "094108.670000", "094110.170000", "094111.670000", "094113.170000", "094114.670000", "094116.170000", "094117.670000"],
      "ContentTime": ["093759.553000", "093759.557000", "093759.560000", "093759.563000", "093759.567000", "093759.570000", "093759.573000", "093759.580000", "093759.583000", "093759.586000", "093759.589000", "093759.592000", "093759.596000", "093759.599000", "093759.602000", "093759.605000", "093759.608000", "093759.611000", "093759.614000", "093759.621000", "093759.625000", "093759.628000", "093759.631000", "093759.634000", "093759.637000", "093759.640000", "093759.644000", "093759.647000", "093759.650000", "093759.654000", "093759.657000", "093839.548000", "093839.551000", "093839.554000", "093839.557000", "093839.560000", "093839.563000", "093839.566000", "093839.569000", "093839.579000", "093839.582000", "093839.585000", "093839.589000", "093839.592000", "093839.595000", "093839.605000", "093839.608000", "093839.611000", "093839.614000", "093839.617000", "093839.620000", "093839.625000", "093839.628000", "093839.631000", "093839.634000", "093839.637000", "093839.640000", "093919.548000", "093919.551000", "093919.554000", "093919.557000", "093919.561000", "093919.564000", "093919.567000", "093919.570000", "093919.573000", "093919.576000", "093919.579000", "093919.582000", "093919.585000", "093919.588000", "093919.591000", "093919.594000", "093919.597000", "093919.600000", "093919.604000", "093919.607000", "093919.611000", "093919.614000", "093919.617000", "093919.620000", "093919.623000", "093919.626000", "093919.629000", "093959.548000", "093959.551000", "093959.554000", "093959.557000", "093959.560000", "093959.563000", "093959.566000", "093959.569000", "093959.572000", "093959.575000", "093959.578000", "093959.581000", "093959.585000", "093959.588000", "093959.591000", "093959.594000", "093959.597000", "093959.600000", "093959.603000", "093959.606000", "093959.609000", "093959.612000", "093959.615000", "093959.618000", "093959.621000", "093959.624000", "093959.627000", "094039.548000", "094039.551000", "094039.554000", "094039.557000", "094039.561000", "094039.564000", "094039.566000", "094039.569000", "094039.573000", "094039.575000", "094039.578000", "094039.581000", "094039.585000", "094039.588000", "094039.591000", "094039.594000", "094039.597000", "094039.600000", "094039.603000", "094039.606000", "094039.609000", "094039.612000", "094039.615000", "094039.626000", "094039.629000", "094039.632000", "094118.902000", "094118.905000", "094118.909000", "094118.912000", "094118.915000", "094118.919000", "094118.922000", "094118.925000", "094118.928000", "094118.931000", "094118.934000", "094118.937000", "094118.941000", "094118.944000", "094118.947000", "094118.950000", "094118.953000", "094118.957000", "094118.960000", "094118.963000", "094118.966000", "094118.969000", "094118.972000", "094118.976000", "094118.979000", "094118.983000", "094118.986000"],
      "InstanceCreationTime": ["093759.553000", "093759.557000", "093759.560000", "093759.563000", "093759.567000", "093759.570000", "093759.573000", "093759.580000", "093759.583000", "093759.586000", "093759.589000", "093759.592000", "093759.596000", "093759.599000", "093759.602000", "093759.605000", "093759.608000", "093759.611000", "093759.614000", "093759.621000", "093759.625000", "093759.628000", "093759.631000", "093759.634000", "093759.637000", "093759.640000", "093759.644000", "093759.647000", "093759.650000", "093759.654000", "093759.657000", "093839.548000", "093839.551000", "093839.554000", "093839.557000", "093839.560000", "093839.563000", "093839.566000", "093839.569000", "093839.579000", "093839.582000", "093839.585000", "093839.589000", "093839.592000", "093839.595000", "093839.605000", "093839.608000", "093839.611000", "093839.614000", "093839.617000", "093839.620000", "093839.625000", "093839.628000", "093839.631000", "093839.634000", "093839.637000", "093839.640000", "093919.548000", "093919.551000", "093919.554000", "093919.557000", "093919.561000", "093919.564000", "093919.567000", "093919.570000", "093919.573000", "093919.576000", "093919.579000", "093919.582000", "093919.585000", "093919.588000", "093919.591000", "093919.594000", "093919.597000", "093919.600000", "093919.604000", "093919.607000", "093919.611000", "093919.614000", "093919.617000", "093919.620000", "093919.623000", "093919.626000", "093919.629000", "093959.548000", "093959.551000", "093959.554000", "093959.557000", "093959.560000", "093959.563000", "093959.566000", "093959.569000", "093959.572000", "093959.575000", "093959.578000", "093959.581000", "093959.585000", "093959.588000", "093959.591000", "093959.594000", "093959.597000", "093959.600000", "093959.603000", "093959.606000", "093959.609000", "093959.612000", "093959.615000", "093959.618000", "093959.621000", "093959.624000", "093959.627000", "094039.548000", "094039.551000", "094039.554000", "094039.557000", "094039.561000", "094039.564000", "094039.566000", "094039.569000", "094039.573000", "094039.575000", "094039.578000", "094039.581000", "094039.585000", "094039.588000", "094039.591000", "094039.594000", "094039.597000", "094039.600000", "094039.603000", "094039.606000", "094039.609000", "094039.612000", "094039.615000", "094039.626000", "094039.629000", "094039.632000", "094118.902000", "094118.905000", "094118.909000", "094118.912000", "094118.915000", "094118.919000", "094118.922000", "094118.925000", "094118.928000", "094118.931000", "094118.934000", "094118.937000", "094118.941000", "094118.944000", "094118.947000", "094118.950000", "094118.953000", "094118.957000", "094118.960000", "094118.963000", "094118.966000", "094118.969000", "094118.972000", "094118.976000", "094118.979000", "094118.983000", "094118.986000"],
      "InstanceNumber": [1, 2, 3, 4, 5, 6, 7, 8, 9, 10, 11, 12, 13, 14, 15, 16, 17, 18, 19, 20, 21, 22, 23, 24, 25, 26, 27, 28, 29, 30, 31, 32, 33, 34, 35, 36, 37, 38, 39, 40, 41, 42, 43, 44, 45, 46, 47, 48, 49, 50, 51, 52, 53, 54, 55, 56, 57, 58, 59, 60, 61, 62, 63, 64, 65, 66, 67, 68, 69, 70, 71, 72, 73, 74, 75, 76, 77, 78, 79, 80, 81, 82, 83, 84, 85, 86, 87, 88, 89, 90, 91, 92, 93, 94, 95, 96, 97, 98, 99, 100, 101, 102, 103, 104, 105, 106, 107, 108, 109, 110, 111, 112, 113, 114, 115, 116, 117, 118, 119, 120, 121, 122, 123, 124, 125, 126, 127, 128, 129, 130, 131, 132, 133, 134, 135, 136, 137, 138, 139, 140, 141, 142, 143, 144, 145, 146, 147, 148, 149, 150, 151, 152, 153, 154, 155, 156, 157, 158, 159, 160, 161, 162, 163, 164],
      "LargestImagePixelValue": [3462, 3401, 3352, 3379, 3375, 3348, 3384, 3353, 3363, 3355, 3374, 3363, 3354, 3413, 3398, 3422, 3379, 3360, 3381, 3337, 3352, 3344, 3374, 3384, 3401, 3392, 3403, 3427, 3441, 3414, 3363, 3375, 3356, 3369, 3362, 3350, 3364, 3383, 3350, 3382, 3362, 3379, 3343, 3359, 3362, 3398, 3395, 3440, 3390, 3367, 3376, 3413, 3395, 3423, 3405, 3365, 3393, 3373, 3397, 3391, 3354, 3364, 3361, 3379, 3386, 3373, 3376, 3390, 3406, 3429, 3390, 3426, 3423, 3417, 3418, 3379, 3400, 3385, 3367, 3410, 3358, 3408, 3396, 3390, 3390, 3417, 3392, 3390, 3427, 3388, 3433, 3353, 3374, 3360, 3400, 3363, 3393, 3407, 3401, 3400, 3428, 3420, 3394, 3421, 3395, 3406, 3402, 3429, 3364, 3356, 3408, 3373, 3418, 3385, 3411, 3366, 3383, 3359, 3373, 3390, 3290, 3328, 3356, 3339, 3327, 3346, 3405, 3270, 3242, 3281, 3317, 3318, 3326, 3294, 3304, 3329, 3325, 3316, 3314, 3323, 3303, 3293, 3341, 3311, 3315, 3325, 3339, 3288, 3310, 3312, 3312, 3289, 3300, 3341, 3351, 3345, 3344, 3302, 3308, 3319, 3327, 3294, 3334, 3328],
      "WindowCenter": [810.0, 807.0, 805.0, 804.0, 805.0, 806.0, 806.0, 805.0, 805.0, 806.0, 807.0, 806.0, 805.0, 805.0, 805.0, 806.0, 807.0, 809.0, 809.0, 807.0, 805.0, 804.0, 803.0, 803.0, 803.0, 803.0, 803.0, 804.0, 805.0, 806.0, 806.0, 806.0, 805.0, 804.0, 804.0, 804.0, 803.0, 803.0, 802.0, 803.0, 803.0, 803.0, 803.0, 804.0, 803.0, 804.0, 804.0, 804.0, 805.0, 807.0, 808.0, 807.0, 805.0, 805.0, 805.0, 806.0, 806.0, 804.0, 804.0, 805.0, 805.0, 804.0, 803.0, 803.0, 802.0, 803.0, 803.0, 803.0, 803.0, 803.0, 803.0, 805.0, 807.0, 807.0, 806.0, 805.0, 805.0, 805.0, 806.0, 806.0, 804.0, 803.0, 802.0, 802.0, 802.0, 804.0, 804.0, 804.0, 805.0, 806.0, 806.0, 804.0, 803.0, 801.0, 801.0, 801.0, 801.0, 801.0, 801.0, 801.0, 803.0, 804.0, 806.0, 806.0, 805.0, 805.0, 805.0, 806.0, 805.0, 803.0, 803.0, 804.0, 805.0, 805.0, 804.0, 803.0, 803.0, 802.0, 801.0, 800.0, 799.0, 802.0, 804.0, 806.0, 804.0, 803.0, 801.0, 800.0, 800.0, 800.0, 800.0, 800.0, 800.0, 801.0, 801.0, 802.0, 802.0, 802.0, 803.0, 805.0, 805.0, 804.0, 803.0, 805.0, 805.0, 805.0, 804.0, 803.0, 803.0, 804.0, 805.0, 805.0, 806.0, 807.0, 806.0, 805.0, 803.0, 801.0, 800.0, 800.0, 800.0, 800.0, 800.0, 800.0],
      "WindowWidth": [1791.0, 1780.0, 1773.0, 1770.0, 1774.0, 1776.0, 1777.0, 1775.0, 1775.0, 1776.0, 1779.0, 1777.0, 1775.0, 1775.0, 1776.0, 1778.0, 1780.0, 1785.0, 1784.0, 1779.0, 1774.0, 1770.0, 1769.0, 1769.0, 1769.0, 1770.0, 1769.0, 1771.0, 1774.0, 1779.0, 1778.0, 1778.0, 1774.0, 1772.0, 1771.0, 1772.0, 1769.0, 1769.0, 1767.0, 1768.0, 1767.0, 1769.0, 1769.0, 1770.0, 1769.0, 1770.0, 1771.0, 1773.0, 1776.0, 1780.0, 1781.0, 1778.0, 1774.0, 1774.0, 1775.0, 1779.0, 1778.0, 1773.0, 1772.0, 1773.0, 1774.0, 1771.0, 1769.0, 1768.0, 1767.0, 1768.0, 1769.0, 1769.0, 1769.0, 1769.0, 1771.0, 1776.0, 1780.0, 1780.0, 1778.0, 1773.0, 1773.0, 1774.0, 1776.0, 1777.0, 1771.0, 1767.0, 1766.0, 1766.0, 1768.0, 1773.0, 1772.0, 1772.0, 1775.0, 1777.0, 1778.0, 1772.0, 1767.0, 1764.0, 1764.0, 1764.0, 1764.0, 1763.0, 1764.0, 1764.0, 1769.0, 1772.0, 1777.0, 1776.0, 1773.0, 1774.0, 1774.0, 1777.0, 1774.0, 1768.0, 1769.0, 1770.0, 1775.0, 1773.0, 1771.0, 1768.0, 1768.0, 1764.0, 1763.0, 1761.0, 1758.0, 1767.0, 1773.0, 1776.0, 1770.0, 1768.0, 1763.0, 1759.0, 1759.0, 1759.0, 1760.0, 1759.0, 1761.0, 1761.0, 1764.0, 1766.0, 1766.0, 1767.0, 1769.0, 1773.0, 1772.0, 1770.0, 1769.0, 1773.0, 1774.0, 1772.0, 1771.0, 1767.0, 1769.0, 1771.0, 1773.0, 1774.0, 1775.0, 1778.0, 1777.0, 1774.0, 1767.0, 1762.0, 1760.0, 1761.0, 1759.0, 1760.0, 1759.0, 1760.0]
    },
    "slices": {}
  }
}