{
  "AcquisitionMatrixPE": 72,
  "AcquisitionNumber": 1,
  "AcquisitionTime": "08:57:17.482500",
  "BandwidthPerPixelPhaseEncode": 17.943,
  "BaseResolution": 96,
  "BodyPartExamined": "BRAIN",
  "CoilCombinationMethod": "Sum of Squares",
  "ConsistencyInfo": "N4_VE11C_LATEST_20160120",
  "ConversionSoftware": "dcm2niix",
  "ConversionSoftwareVersion": "v1.0.20211006",
  "DerivedVendorReportedEchoSpacing": 0.000552897,
  "DeviceSerialNumber": "166011",
  "EchoTime": 0.03,
  "EchoTrainLength": 58,
  "EffectiveEchoSpacing": 0.000580542,
  "FlipAngle": 62,
  "ImageOrientationPatientDICOM": [0.99992, 0.00232525, -0.0124396, -0.0040139, 0.990494, -0.137499],
  "ImageType": [
    "ORIGINAL",
    "PRIMARY",
    "M",
    "ND",
    "MOSAIC"
],
  "ImagingFrequency": 123.26,
  "InPlanePhaseEncodingDirectionDICOM": "COL",
  "InstitutionAddress": "West 130th Street 610,NY,NYC,US,10025",
  "InstitutionName": "MBBI",
  "MRAcquisitionType": "2D",
  "MagneticFieldStrength": 3,
  "Manufacturer": "Siemens",
  "ManufacturersModelName": "Prisma",
  "Modality": "MR",
  "MultibandAccelerationFactor": 3,
  "PartialFourier": 0.75,
  "PatientPosition": "HFS",
  "PercentPhaseFOV": 100,
  "PercentSampling": 75,
  "PhaseEncodingDirection": "j-",
  "PhaseEncodingSteps": 58,
  "PhaseOversampling": 0.05,
  "PhaseResolution": 0.75,
  "PixelBandwidth": 2265,
  "ProcedureStepDescription": "White^Word_recognition",
  "ProtocolName": "func_vwfate_run7",
  "PulseSequenceDetails": "%SiemensSeq%\\ep2d_bold",
  "ReceiveCoilActiveElements": "HC1-7",
  "ReceiveCoilName": "HeadNeck_64",
  "ReconMatrixPE": 96,
  "RefLinesPE": 40,
  "RepetitionTime": 1.5,
  "SAR": 0.0458272,
  "ScanOptions": "PFP\\FS",
  "ScanningSequence": "EP",
  "SequenceName": "*epfid2d1_72",
  "SequenceVariant": "SK\\OSP",
  "SeriesDescription": "func_vwfate_run7",
  "SeriesNumber": 8,
  "ShimSetting": [-1153, -1335, 612, 489, -113, -78, -36, 10],
  "SliceThickness": 2,
  "SliceTiming": [1.0775, 0, 0.74, 0.0675, 0.8075, 0.135, 0.875, 0.2025, 0.9425, 0.27, 1.01, 0.4025, 1.1425, 0.47, 1.21, 0.5375, 1.2775, 0.605, 1.345, 0.6725, 1.4125, 0.3375, 1.0775, 0, 0.74, 0.0675, 0.8075, 0.135, 0.875, 0.2025, 0.9425, 0.27, 1.01, 0.4025, 1.1425, 0.47, 1.21, 0.5375, 1.2775, 0.605, 1.345, 0.6725, 1.4125, 0.3375, 1.0775, 0, 0.74, 0.0675, 0.8075, 0.135, 0.875, 0.2025, 0.9425, 0.27, 1.01, 0.4025, 1.1425, 0.47, 1.21, 0.5375, 1.2775, 0.605, 1.345, 0.6725, 1.4125, 0.3375],
  "SoftwareVersions": "syngo MR E11",
  "SpacingBetweenSlices": 2,
  "StationName": "AWP166011",
  "TaskName": "vwfate",
  "TotalReadoutTime": 0.0551515,
  "TxRefAmp": 224.95,
  "dcmmeta_affine": [
    [-1.9998399019241333, -0.00802780594676733, -0.02400326542556286, 100.49341583251953],
    [-0.004650508053600788, 1.980987548828125, -0.2750755548477173, -61.546669006347656],
    [-0.0248792115598917, 0.274997740983963, 1.9808475971221924, -79.56437683105469],
    [0.0, 0.0, 0.0, 1.0]
],
  "dcmmeta_reorient_transform": [
    [0.0, -1.0, 0.0, 95.0],
    [1.0, 0.0, 0.0, 0.0],
    [0.0, 0.0, 1.0, 0.0],
    [0.0, 0.0, 0.0, 1.0]
],
  "dcmmeta_shape": [96, 96, 66, 164],
  "dcmmeta_slice_dim": 2,
  "dcmmeta_version": 0.6,
  "global": {
    "const": {
      "AcquisitionMatrix": [96, 0, 0, 72],
      "AngioFlag": "N",
      "BitsAllocated": 16,
      "BitsStored": 12,
      "BodyPartExamined": "BRAIN",
      "Columns": 864,
      "EchoNumbers": 1,
      "EchoTime": 30.0,
      "EchoTrainLength": 58,
      "FlipAngle": 62.0,
      "HighBit": 11,
      "ImageOrientationPatient": [0.99991992149116, 0.00232525409452, -0.0124396060428, -0.00401390286, 0.99049379161898, -0.1374988630792],
      "ImagePositionPatient": [-864.58659322251, -889.13217664515, 61.713150492834],
      "ImageType": [
        "ORIGINAL",
        "PRIMARY",
        "M",
        "ND",
        "MOSAIC"
],
      "ImagedNucleus": "1H",
      "ImagingFrequency": 123.25963,
      "InPlanePhaseEncodingDirection": "COL",
      "MRAcquisitionType": "2D",
      "MagneticFieldStrength": 3.0,
      "Manufacturer": "SIEMENS",
      "ManufacturerModelName": "Prisma",
      "Modality": "MR",
      "NumberOfAverages": 1.0,
      "NumberOfPhaseEncodingSteps": 58,
      "PercentPhaseFieldOfView": 100.0,
      "PercentSampling": 75.0,
      "PerformedProcedureStepStartTime": "083259.649000",
      "PhotometricInterpretation": "MONOCHROME2",
      "PixelBandwidth": 2265.0,
      "PixelRepresentation": 0,
      "PixelSpacing": [2.0, 2.0],
      "ProtocolName": "func_vwfate_run7",
      "RepetitionTime": 1500.0,
      "Rows": 864,
      "SAR": 0.04582719899835,
      "SamplesPerPixel": 1,
      "ScanOptions": [
        "PFP",
        "FS"
],
      "ScanningSequence": "EP",
      "SequenceName": "*epfid2d1_72",
      "SequenceVariant": [
        "SK",
        "OSP"
],
      "SeriesDescription": "func_vwfate_run7",
      "SeriesNumber": 8,
      "SeriesTime": "085759.549000",
      "SliceLocation": -71.543546318692,
      "SliceThickness": 2.0,
      "SmallestImagePixelValue": 0,
      "SoftwareVersions": "syngo MR E11",
      "SpacingBetweenSlices": 1.9999999626014,
      "SpecificCharacterSet": "ISO_IR 100",
      "StudyID": "2",
      "StudyTime": "083259.556000",
      "TransmitCoilName": "Body",
      "VariableFlipAngleFlag": "N",
      "WindowCenterWidthExplanation": "Algo1",
      "dBdt": 0.0},
    "slices": {}
  },
  "time": {
    "samples": {
      "AcquisitionNumber": [1, 2, 3, 4, 5, 6, 7, 8, 9, 10, 11, 12, 13, 14, 15, 16, 17, 18, 19, 20, 21, 22, 23, 24, 25, 26, 27, 28, 29, 30, 31, 32, 33, 34, 35, 36, 37, 38, 39, 40, 41, 42, 43, 44, 45, 46, 47, 48, 49, 50, 51, 52, 53, 54, 55, 56, 57, 58, 59, 60, 61, 62, 63, 64, 65, 66, 67, 68, 69, 70, 71, 72, 73, 74, 75, 76, 77, 78, 79, 80, 81, 82, 83, 84, 85, 86, 87, 88, 89, 90, 91, 92, 93, 94, 95, 96, 97, 98, 99, 100, 101, 102, 103, 104, 105, 106, 107, 108, 109, 110, 111, 112, 113, 114, 115, 116, 117, 118, 119, 120, 121, 122, 123, 124, 125, 126, 127, 128, 129, 130, 131, 132, 133, 134, 135, 136, 137, 138, 139, 140, 141, 142, 143, 144, 145, 146, 147, 148, 149, 150, 151, 152, 153, 154, 155, 156, 157, 158, 159, 160, 161, 162, 163, 164],
      "AcquisitionTime": ["085717.482500", "085718.982500", "085720.482500", "085721.982500", "085723.482500", "085724.982500", "085726.482500", "085727.982500", "085729.482500", "085730.982500", "085732.482500", "085733.982500", "085735.482500", "085736.982500", "085738.482500", "085739.982500", "085741.482500", "085742.982500", "085744.482500", "085745.982500", "085747.482500", "085748.982500", "085750.482500", "085751.982500", "085753.482500", "085754.982500", "085756.482500", "085757.982500", "085759.482500", "085800.982500", "085802.482500", "085803.982500", "085805.482500", "085806.982500", "085808.482500", "085809.982500", "085811.482500", "085812.982500", "085814.482500", "085815.982500", "085817.482500", "085818.982500", "085820.482500", "085821.982500", "085823.482500", "085824.982500", "085826.482500", "085827.982500", "085829.482500", "085830.982500", "085832.482500", "085833.982500", "085835.482500", "085836.982500", "085838.482500", "085839.982500", "085841.482500", "085842.982500", "085844.482500", "085845.982500", "085847.482500", "085848.982500", "085850.482500", "085851.982500", "085853.482500", "085854.982500", "085856.482500", "085857.982500", "085859.482500", "085900.982500", "085902.482500", "085903.982500", "085905.482500", "085906.982500", "085908.482500", "085909.982500", "085911.482500", "085912.982500", "085914.482500", "085915.982500", "085917.482500", "085918.982500", "085920.482500", "085921.982500", "085923.482500", "085924.982500", "085926.482500", "085927.982500", "085929.482500", "085930.982500", "085932.482500", "085933.982500", "085935.482500", "085936.982500", "085938.482500", "085939.982500", "085941.482500", "085942.982500", "085944.482500", "085945.982500", "085947.482500", "085948.982500", "085950.482500", "085951.982500", "085953.482500", "085954.982500", "085956.482500", "085957.982500", "085959.482500", "090000.982500", "090002.482500", "090003.982500", "090005.482500", "090006.982500", "090008.482500", "090009.982500", "090011.482500", "090012.982500", "090014.482500", "090015.982500", "090017.482500", "090018.982500", "090020.482500", "090021.982500", "090023.482500", "090024.982500", "090026.482500", "090027.982500", "090029.482500", "090030.982500", "090032.482500", "090033.982500", "090035.482500", "090036.982500", "090038.482500", "090039.982500", "090041.482500", "090042.982500", "090044.482500", "090045.982500", "090047.482500", "090048.982500", "090050.482500", "090051.982500", "090053.482500", "090054.982500", "090056.482500", "090057.982500", "090059.482500", "090100.982500", "090102.482500", "090103.982500", "090105.482500", "090106.982500", "090108.482500", "090109.982500", "090111.482500", "090112.982500", "090114.482500", "090115.982500", "090117.482500", "090118.982500", "090120.482500", "090121.982500"],
      "ContentTime": ["085759.553000", "085759.557000", "085759.560000", "085759.564000", "085759.567000", "085759.570000", "085759.578000", "085759.582000", "085759.585000", "085759.588000", "085759.591000", "085759.594000", "085759.597000", "085759.600000", "085759.603000", "085759.606000", "085759.609000", "085759.612000", "085759.615000", "085759.618000", "085759.621000", "085759.624000", "085759.628000", "085759.630000", "085759.634000", "085759.637000", "085759.640000", "085759.643000", "085839.548000", "085839.551000", "085839.554000", "085839.557000", "085839.560000", "085839.563000", "085839.566000", "085839.569000", "085839.573000", "085839.575000", "085839.578000", "085839.582000", "085839.585000", "085839.588000", "085839.591000", "085839.594000", "085839.597000", "085839.604000", "085839.607000", "085839.610000", "085839.613000", "085839.616000", "085839.619000", "085839.622000", "085839.625000", "085839.628000", "085839.631000", "085919.548000", "085919.551000", "085919.554000", "085919.557000", "085919.560000", "085919.563000", "085919.566000", "085919.569000", "085919.572000", "085919.575000", "085919.578000", "085919.581000", "085919.585000", "085919.588000", "085919.591000", "085919.594000", "085919.597000", "085919.600000", "085919.603000", "085919.606000", "085919.609000", "085919.612000", "085919.615000", "085919.618000", "085919.621000", "085919.624000", "085959.548000", "085959.551000", "085959.554000", "085959.557000", "085959.560000", "085959.563000", "085959.566000", "085959.569000", "085959.572000", "085959.575000", "085959.578000", "085959.581000", "085959.585000", "085959.588000", "085959.591000", "085959.594000", "085959.597000", "085959.600000", "085959.603000", "085959.606000", "085959.609000", "085959.612000", "085959.615000", "085959.618000", "085959.621000", "085959.624000", "085959.627000", "090039.548000", "090039.551000", "090039.554000", "090039.558000", "090039.561000", "090039.563000", "090039.566000", "090039.570000", "090039.573000", "090039.576000", "090039.578000", "090039.582000", "090039.592000", "090039.595000", "090039.598000", "090039.602000", "090039.605000", "090039.608000", "090039.611000", "090039.614000", "090039.617000", "090039.620000", "090039.623000", "090039.626000", "090039.629000", "090039.632000", "090039.635000", "090119.548000", "090119.551000", "090119.554000", "090119.557000", "090119.560000", "090119.563000", "090119.566000", "090119.569000", "090119.572000", "090119.575000", "090119.578000", "090119.582000", "090119.585000", "090119.588000", "090119.591000", "090119.594000", "090119.597000", "090119.600000", "090119.603000", "090119.606000", "090119.609000", "090119.612000", "090119.615000", "090119.618000", "090119.621000", "090119.624000", "090122.711000", "090122.715000", "090122.719000"],
      "InstanceCreationTime": ["085759.553000", "085759.557000", "085759.560000", "085759.564000", "085759.567000", "085759.570000", "085759.578000", "085759.582000", "085759.585000", "085759.588000", "085759.591000", "085759.594000", "085759.597000", "085759.600000", "085759.603000", "085759.606000", "085759.609000", "085759.612000", "085759.615000", "085759.618000", "085759.621000", "085759.624000", "085759.628000", "085759.630000", "085759.634000", "085759.637000", "085759.640000", "085759.643000", "085839.548000", "085839.551000", "085839.554000", "085839.557000", "085839.560000", "085839.563000", "085839.566000", "085839.569000", "085839.573000", "085839.575000", "085839.578000", "085839.582000", "085839.585000", "085839.588000", "085839.591000", "085839.594000", "085839.597000", "085839.604000", "085839.607000", "085839.610000", "085839.613000", "085839.616000", "085839.619000", "085839.622000", "085839.625000", "085839.628000", "085839.631000", "085919.548000", "085919.551000", "085919.554000", "085919.557000", "085919.560000", "085919.563000", "085919.566000", "085919.569000", "085919.572000", "085919.575000", "085919.578000", "085919.581000", "085919.585000", "085919.588000", "085919.591000", "085919.594000", "085919.597000", "085919.600000", "085919.603000", "085919.606000", "085919.609000", "085919.612000", "085919.615000", "085919.618000", "085919.621000", "085919.624000", "085959.548000", "085959.551000", "085959.554000", "085959.557000", "085959.560000", "085959.563000", "085959.566000", "085959.569000", "085959.572000", "085959.575000", "085959.578000", "085959.581000", "085959.585000", "085959.588000", "085959.591000", "085959.594000", "085959.597000", "085959.600000", "085959.603000", "085959.606000", "085959.609000", "085959.612000", "085959.615000", "085959.618000", "085959.621000", "085959.624000", "085959.627000", "090039.548000", "090039.551000", "090039.554000", "090039.558000", "090039.561000", "090039.563000", "090039.566000", "090039.570000", "090039.573000", "090039.576000", "090039.578000", "090039.582000", "090039.592000", "090039.595000", "090039.598000", "090039.602000", "090039.605000", "090039.608000", "090039.611000", "090039.614000", "090039.617000", "090039.620000", "090039.623000", "090039.626000", "090039.629000", "090039.632000", "090039.635000", "090119.548000", "090119.551000", "090119.554000", "090119.557000", "090119.560000", "090119.563000", "090119.566000", "090119.569000", "090119.572000", "090119.575000", "090119.578000", "090119.582000", "090119.585000", "090119.588000", "090119.591000", "090119.594000", "090119.597000", "090119.600000", "090119.603000", "090119.606000", "090119.609000", "090119.612000", "090119.615000", "090119.618000", "090119.621000", "090119.624000", "090122.711000", "090122.715000", "090122.719000"],
      "InstanceNumber": [1, 2, 3, 4, 5, 6, 7, 8, 9, 10, 11, 12, 13, 14, 15, 16, 17, 18, 19, 20, 21, 22, 23, 24, 25, 26, 27, 28, 29, 30, 31, 32, 33, 34, 35, 36, 37, 38, 39, 40, 41, 42, 43, 44, 45, 46, 47, 48, 49, 50, 51, 52, 53, 54, 55, 56, 57, 58, 59, 60, 61, 62, 63, 64, 65, 66, 67, 68, 69, 70, 71, 72, 73, 74, 75, 76, 77, 78, 79, 80, 81, 82, 83, 84, 85, 86, 87, 88, 89, 90, 91, 92, 93, 94, 95, 96, 97, 98, 99, 100, 101, 102, 103, 104, 105, 106, 107, 108, 109, 110, 111, 112, 113, 114, 115, 116, 117, 118, 119, 120, 121, 122, 123, 124, 125, 126, 127, 128, 129, 130, 131, 132, 133, 134, 135, 136, 137, 138, 139, 140, 141, 142, 143, 144, 145, 146, 147, 148, 149, 150, 151, 152, 153, 154, 155, 156, 157, 158, 159, 160, 161, 162, 163, 164],
      "LargestImagePixelValue": [3533, 3467, 3460, 3439, 3491, 3478, 3457, 3443, 3439, 3398, 3424, 3415, 3413, 3400, 3412, 3396, 3430, 3393, 3419, 3420, 3461, 3446, 3425, 3431, 3383, 3403, 3373, 3400, 3366, 3418, 3418, 3414, 3389, 3444, 3447, 3476, 3452, 3401, 3422, 3383, 3401, 3356, 3392, 3408, 3377, 3340, 3376, 3372, 3375, 3384, 3410, 3411, 3435, 3389, 3401, 3426, 3381, 3458, 3445, 3433, 3407, 3406, 3350, 3359, 3355, 3355, 3350, 3308, 3307, 3394, 3347, 3352, 3349, 3321, 3318, 3344, 3343, 3317, 3351, 3351, 3432, 3377, 3376, 3334, 3362, 3384, 3393, 3404, 3402, 3387, 3398, 3418, 3428, 3447, 3408, 3441, 3431, 3411, 3337, 3390, 3320, 3391, 3379, 3398, 3379, 3389, 3383, 3385, 3400, 3426, 3408, 3368, 3395, 3333, 3305, 3340, 3351, 3324, 3299, 3371, 3405, 3400, 3393, 3406, 3367, 3373, 3375, 3329, 3340, 3338, 3365, 3314, 3344, 3312, 3339, 3337, 3343, 3379, 3373, 3421, 3396, 3423, 3384, 3425, 3367, 3372, 3295, 3354, 3348, 3320, 3363, 3374, 3451, 3371, 3365, 3302, 3296, 3294, 3292, 3351, 3293, 3270, 3307, 3298],
      "WindowCenter": [812.0, 810.0, 810.0, 811.0, 812.0, 811.0, 811.0, 810.0, 809.0, 808.0, 808.0, 808.0, 808.0, 808.0, 809.0, 808.0, 808.0, 808.0, 809.0, 809.0, 809.0, 809.0, 809.0, 809.0, 809.0, 810.0, 809.0, 810.0, 809.0, 810.0, 809.0, 810.0, 809.0, 810.0, 810.0, 810.0, 809.0, 808.0, 808.0, 808.0, 810.0, 810.0, 810.0, 809.0, 809.0, 808.0, 809.0, 809.0, 809.0, 809.0, 809.0, 809.0, 808.0, 809.0, 809.0, 810.0, 810.0, 811.0, 811.0, 810.0, 809.0, 809.0, 809.0, 809.0, 808.0, 808.0, 808.0, 808.0, 809.0, 810.0, 810.0, 809.0, 807.0, 807.0, 807.0, 808.0, 809.0, 809.0, 811.0, 810.0, 809.0, 808.0, 807.0, 807.0, 808.0, 808.0, 808.0, 808.0, 808.0, 807.0, 808.0, 809.0, 810.0, 811.0, 811.0, 811.0, 810.0, 809.0, 808.0, 810.0, 810.0, 810.0, 810.0, 809.0, 808.0, 808.0, 808.0, 810.0, 811.0, 811.0, 809.0, 807.0, 807.0, 807.0, 807.0, 807.0, 807.0, 808.0, 809.0, 809.0, 809.0, 809.0, 810.0, 810.0, 809.0, 809.0, 810.0, 810.0, 810.0, 809.0, 809.0, 807.0, 807.0, 807.0, 807.0, 807.0, 809.0, 809.0, 810.0, 811.0, 811.0, 810.0, 808.0, 808.0, 807.0, 807.0, 807.0, 808.0, 808.0, 808.0, 811.0, 812.0, 811.0, 809.0, 807.0, 807.0, 809.0, 810.0, 809.0, 809.0, 809.0, 809.0, 809.0, 807.0],
      "WindowWidth": [1798.0, 1791.0, 1792.0, 1795.0, 1797.0, 1794.0, 1793.0, 1790.0, 1788.0, 1786.0, 1786.0, 1786.0, 1786.0, 1785.0, 1787.0, 1785.0, 1785.0, 1785.0, 1787.0, 1789.0, 1790.0, 1789.0, 1788.0, 1789.0, 1789.0, 1790.0, 1790.0, 1790.0, 1789.0, 1790.0, 1789.0, 1790.0, 1790.0, 1792.0, 1792.0, 1791.0, 1789.0, 1786.0, 1786.0, 1787.0, 1790.0, 1789.0, 1790.0, 1787.0, 1787.0, 1786.0, 1789.0, 1788.0, 1789.0, 1788.0, 1788.0, 1787.0, 1787.0, 1787.0, 1788.0, 1791.0, 1792.0, 1794.0, 1792.0, 1789.0, 1787.0, 1788.0, 1787.0, 1787.0, 1786.0, 1785.0, 1784.0, 1785.0, 1788.0, 1790.0, 1789.0, 1786.0, 1783.0, 1782.0, 1782.0, 1784.0, 1787.0, 1788.0, 1792.0, 1791.0, 1789.0, 1784.0, 1783.0, 1783.0, 1783.0, 1785.0, 1785.0, 1786.0, 1784.0, 1783.0, 1786.0, 1789.0, 1791.0, 1794.0, 1793.0, 1793.0, 1789.0, 1786.0, 1784.0, 1790.0, 1791.0, 1792.0, 1789.0, 1786.0, 1784.0, 1784.0, 1786.0, 1790.0, 1794.0, 1792.0, 1786.0, 1782.0, 1783.0, 1781.0, 1783.0, 1783.0, 1783.0, 1784.0, 1786.0, 1788.0, 1787.0, 1788.0, 1789.0, 1789.0, 1788.0, 1789.0, 1790.0, 1789.0, 1789.0, 1787.0, 1786.0, 1782.0, 1781.0, 1781.0, 1781.0, 1783.0, 1787.0, 1788.0, 1790.0, 1793.0, 1792.0, 1790.0, 1785.0, 1784.0, 1780.0, 1782.0, 1782.0, 1783.0, 1783.0, 1786.0, 1793.0, 1796.0, 1793.0, 1785.0, 1782.0, 1782.0, 1786.0, 1788.0, 1788.0, 1787.0, 1786.0, 1786.0, 1785.0, 1782.0]
    },
    "slices": {}
  }
}