{
  "AcquisitionMatrixPE": 72,
  "AcquisitionNumber": 1,
  "AcquisitionTime": "09:17:8.610000",
  "BandwidthPerPixelPhaseEncode": 17.943,
  "BaseResolution": 96,
  "BodyPartExamined": "BRAIN",
  "CoilCombinationMethod": "Sum of Squares",
  "ConsistencyInfo": "N4_VE11C_LATEST_20160120",
  "ConversionSoftware": "dcm2niix",
  "ConversionSoftwareVersion": "v1.0.20211006",
  "DerivedVendorReportedEchoSpacing": 0.000552897,
  "DeviceSerialNumber": "166011",
  "EchoTime": 0.03,
  "EchoTrainLength": 58,
  "EffectiveEchoSpacing": 0.000580542,
  "FlipAngle": 62,
  "ImageOrientationPatientDICOM": [0.99992, 0.00232525, -0.0124396, -0.0040139, 0.990494, -0.137499],
  "ImageType": [
    "ORIGINAL",
    "PRIMARY",
    "M",
    "ND",
    "MOSAIC"
],
  "ImagingFrequency": 123.26,
  "InPlanePhaseEncodingDirectionDICOM": "COL",
  "InstitutionAddress": "West 130th Street 610,NY,NYC,US,10025",
  "InstitutionName": "MBBI",
  "MRAcquisitionType": "2D",
  "MagneticFieldStrength": 3,
  "Manufacturer": "Siemens",
  "ManufacturersModelName": "Prisma",
  "Modality": "MR",
  "MultibandAccelerationFactor": 3,
  "PartialFourier": 0.75,
  "PatientPosition": "HFS",
  "PercentPhaseFOV": 100,
  "PercentSampling": 75,
  "PhaseEncodingDirection": "j-",
  "PhaseEncodingSteps": 58,
  "PhaseOversampling": 0.05,
  "PhaseResolution": 0.75,
  "PixelBandwidth": 2265,
  "ProcedureStepDescription": "White^Word_recognition",
  "ProtocolName": "func_vwfate_run9",
  "PulseSequenceDetails": "%SiemensSeq%\\ep2d_bold",
  "ReceiveCoilActiveElements": "HC1-7",
  "ReceiveCoilName": "HeadNeck_64",
  "ReconMatrixPE": 96,
  "RefLinesPE": 40,
  "RepetitionTime": 1.5,
  "SAR": 0.0458272,
  "ScanOptions": "PFP\\FS",
  "ScanningSequence": "EP",
  "SequenceName": "*epfid2d1_72",
  "SequenceVariant": "SK\\OSP",
  "SeriesDescription": "func_vwfate_run9",
  "SeriesNumber": 11,
  "ShimSetting": [-1153, -1335, 612, 489, -113, -78, -36, 10],
  "SliceThickness": 2,
  "SliceTiming": [1.075, 0, 0.74, 0.0675, 0.8075, 0.135, 0.875, 0.2, 0.94, 0.2675, 1.0075, 0.4025, 1.1425, 0.47, 1.21, 0.5375, 1.2775, 0.605, 1.345, 0.6725, 1.4125, 0.335, 1.075, 0, 0.74, 0.0675, 0.8075, 0.135, 0.875, 0.2, 0.94, 0.2675, 1.0075, 0.4025, 1.1425, 0.47, 1.21, 0.5375, 1.2775, 0.605, 1.345, 0.6725, 1.4125, 0.335, 1.075, 0, 0.74, 0.0675, 0.8075, 0.135, 0.875, 0.2, 0.94, 0.2675, 1.0075, 0.4025, 1.1425, 0.47, 1.21, 0.5375, 1.2775, 0.605, 1.345, 0.6725, 1.4125, 0.335],
  "SoftwareVersions": "syngo MR E11",
  "SpacingBetweenSlices": 2,
  "StationName": "AWP166011",
  "TaskName": "vwfate",
  "TotalReadoutTime": 0.0551515,
  "TxRefAmp": 224.95,
  "dcmmeta_affine": [
    [-1.9998399019241333, -0.00802780594676733, -0.02400326542556286, 100.49341583251953],
    [-0.004650508053600788, 1.980987548828125, -0.2750755548477173, -61.546669006347656],
    [-0.0248792115598917, 0.274997740983963, 1.9808475971221924, -79.56437683105469],
    [0.0, 0.0, 0.0, 1.0]
],
  "dcmmeta_reorient_transform": [
    [0.0, -1.0, 0.0, 95.0],
    [1.0, 0.0, 0.0, 0.0],
    [0.0, 0.0, 1.0, 0.0],
    [0.0, 0.0, 0.0, 1.0]
],
  "dcmmeta_shape": [96, 96, 66, 164],
  "dcmmeta_slice_dim": 2,
  "dcmmeta_version": 0.6,
  "global": {
    "const": {
      "AcquisitionMatrix": [96, 0, 0, 72],
      "AngioFlag": "N",
      "BitsAllocated": 16,
      "BitsStored": 12,
      "BodyPartExamined": "BRAIN",
      "Columns": 864,
      "EchoNumbers": 1,
      "EchoTime": 30.0,
      "EchoTrainLength": 58,
      "FlipAngle": 62.0,
      "HighBit": 11,
      "ImageOrientationPatient": [0.99991992149116, 0.00232525409452, -0.0124396060428, -0.00401390286, 0.99049379161898, -0.1374988630792],
      "ImagePositionPatient": [-864.58659322251, -889.13217664515, 61.713150492834],
      "ImageType": [
        "ORIGINAL",
        "PRIMARY",
        "M",
        "ND",
        "MOSAIC"
],
      "ImagedNucleus": "1H",
      "ImagingFrequency": 123.259642,
      "InPlanePhaseEncodingDirection": "COL",
      "MRAcquisitionType": "2D",
      "MagneticFieldStrength": 3.0,
      "Manufacturer": "SIEMENS",
      "ManufacturerModelName": "Prisma",
      "Modality": "MR",
      "NumberOfAverages": 1.0,
      "NumberOfPhaseEncodingSteps": 58,
      "PercentPhaseFieldOfView": 100.0,
      "PercentSampling": 75.0,
      "PerformedProcedureStepStartTime": "083259.649000",
      "PhotometricInterpretation": "MONOCHROME2",
      "PixelBandwidth": 2265.0,
      "PixelRepresentation": 0,
      "PixelSpacing": [2.0, 2.0],
      "ProtocolName": "func_vwfate_run9",
      "RepetitionTime": 1500.0,
      "Rows": 864,
      "SAR": 0.04582719899835,
      "SamplesPerPixel": 1,
      "ScanOptions": [
        "PFP",
        "FS"
],
      "ScanningSequence": "EP",
      "SequenceName": "*epfid2d1_72",
      "SequenceVariant": [
        "SK",
        "OSP"
],
      "SeriesDescription": "func_vwfate_run9",
      "SeriesNumber": 11,
      "SeriesTime": "091739.549000",
      "SliceLocation": -71.543546318692,
      "SliceThickness": 2.0,
      "SmallestImagePixelValue": 0,
      "SoftwareVersions": "syngo MR E11",
      "SpacingBetweenSlices": 1.9999999626014,
      "SpecificCharacterSet": "ISO_IR 100",
      "StudyID": "2",
      "StudyTime": "083259.556000",
      "TransmitCoilName": "Body",
      "VariableFlipAngleFlag": "N",
      "WindowCenterWidthExplanation": "Algo1",
      "dBdt": 0.0},
    "slices": {}
  },
  "time": {
    "samples": {
      "AcquisitionNumber": [1, 2, 3, 4, 5, 6, 7, 8, 9, 10, 11, 12, 13, 14, 15, 16, 17, 18, 19, 20, 21, 22, 23, 24, 25, 26, 27, 28, 29, 30, 31, 32, 33, 34, 35, 36, 37, 38, 39, 40, 41, 42, 43, 44, 45, 46, 47, 48, 49, 50, 51, 52, 53, 54, 55, 56, 57, 58, 59, 60, 61, 62, 63, 64, 65, 66, 67, 68, 69, 70, 71, 72, 73, 74, 75, 76, 77, 78, 79, 80, 81, 82, 83, 84, 85, 86, 87, 88, 89, 90, 91, 92, 93, 94, 95, 96, 97, 98, 99, 100, 101, 102, 103, 104, 105, 106, 107, 108, 109, 110, 111, 112, 113, 114, 115, 116, 117, 118, 119, 120, 121, 122, 123, 124, 125, 126, 127, 128, 129, 130, 131, 132, 133, 134, 135, 136, 137, 138, 139, 140, 141, 142, 143, 144, 145, 146, 147, 148, 149, 150, 151, 152, 153, 154, 155, 156, 157, 158, 159, 160, 161, 162, 163, 164],
      "AcquisitionTime": ["091708.610000", "091710.110000", "091711.610000", "091713.110000", "091714.610000", "091716.110000", "091717.610000", "091719.110000", "091720.610000", "091722.110000", "091723.610000", "091725.110000", "091726.610000", "091728.110000", "091729.610000", "091731.110000", "091732.610000", "091734.110000", "091735.610000", "091737.110000", "091738.610000", "091740.110000", "091741.610000", "091743.110000", "091744.610000", "091746.110000", "091747.610000", "091749.110000", "091750.610000", "091752.110000", "091753.610000", "091755.110000", "091756.610000", "091758.110000", "091759.610000", "091801.110000", "091802.610000", "091804.110000", "091805.610000", "091807.110000", "091808.610000", "091810.110000", "091811.610000", "091813.110000", "091814.610000", "091816.110000", "091817.610000", "091819.110000", "091820.610000", "091822.110000", "091823.610000", "091825.110000", "091826.610000", "091828.110000", "091829.610000", "091831.110000", "091832.610000", "091834.110000", "091835.610000", "091837.110000", "091838.610000", "091840.110000", "091841.610000", "091843.110000", "091844.610000", "091846.110000", "091847.610000", "091849.110000", "091850.610000", "091852.110000", "091853.610000", "091855.110000", "091856.610000", "091858.110000", "091859.610000", "091901.110000", "091902.610000", "091904.110000", "091905.610000", "091907.110000", "091908.610000", "091910.110000", "091911.610000", "091913.110000", "091914.610000", "091916.110000", "091917.610000", "091919.110000", "091920.610000", "091922.110000", "091923.610000", "091925.110000", "091926.610000", "091928.110000", "091929.610000", "091931.110000", "091932.610000", "091934.110000", "091935.610000", "091937.110000", "091938.610000", "091940.110000", "091941.610000", "091943.110000", "091944.610000", "091946.110000", "091947.610000", "091949.110000", "091950.610000", "091952.110000", "091953.610000", "091955.110000", "091956.610000", "091958.110000", "091959.610000", "092001.110000", "092002.610000", "092004.110000", "092005.610000", "092007.110000", "092008.610000", "092010.110000", "092011.610000", "092013.110000", "092014.610000", "092016.110000", "092017.610000", "092019.110000", "092020.610000", "092022.110000", "092023.610000", "092025.110000", "092026.610000", "092028.110000", "092029.610000", "092031.110000", "092032.610000", "092034.110000", "092035.610000", "092037.110000", "092038.610000", "092040.110000", "092041.610000", "092043.110000", "092044.610000", "092046.110000", "092047.610000", "092049.110000", "092050.610000", "092052.110000", "092053.610000", "092055.110000", "092056.610000", "092058.110000", "092059.610000", "092101.110000", "092102.610000", "092104.110000", "092105.610000", "092107.110000", "092108.610000", "092110.110000", "092111.610000", "092113.110000"],
      "ContentTime": ["091739.553000", "091739.557000", "091739.560000", "091739.563000", "091739.566000", "091739.569000", "091739.573000", "091739.576000", "091739.584000", "091739.587000", "091739.590000", "091739.593000", "091739.614000", "091739.618000", "091739.620000", "091739.623000", "091739.627000", "091739.630000", "091739.633000", "091739.636000", "091819.548000", "091819.551000", "091819.554000", "091819.557000", "091819.561000", "091819.564000", "091819.567000", "091819.570000", "091819.573000", "091819.576000", "091819.579000", "091819.582000", "091819.585000", "091819.590000", "091819.593000", "091819.596000", "091819.599000", "091819.602000", "091819.605000", "091819.608000", "091819.611000", "091819.614000", "091819.617000", "091819.620000", "091819.623000", "091819.626000", "091819.629000", "091859.548000", "091859.551000", "091859.554000", "091859.557000", "091859.560000", "091859.563000", "091859.566000", "091859.569000", "091859.572000", "091859.575000", "091859.578000", "091859.581000", "091859.584000", "091859.587000", "091859.591000", "091859.594000", "091859.597000", "091859.600000", "091859.603000", "091859.606000", "091859.609000", "091859.612000", "091859.615000", "091859.625000", "091859.628000", "091859.631000", "091939.547000", "091939.550000", "091939.553000", "091939.556000", "091939.559000", "091939.562000", "091939.565000", "091939.568000", "091939.571000", "091939.574000", "091939.577000", "091939.580000", "091939.583000", "091939.597000", "091939.601000", "091939.604000", "091939.606000", "091939.610000", "091939.613000", "091939.617000", "091939.620000", "091939.623000", "091939.626000", "091939.629000", "091939.632000", "091939.635000", "091939.638000", "092019.548000", "092019.551000", "092019.554000", "092019.557000", "092019.560000", "092019.563000", "092019.566000", "092019.569000", "092019.572000", "092019.575000", "092019.578000", "092019.581000", "092019.585000", "092019.588000", "092019.591000", "092019.594000", "092019.597000", "092019.600000", "092019.603000", "092019.606000", "092019.609000", "092019.612000", "092019.615000", "092019.618000", "092019.621000", "092019.624000", "092019.627000", "092039.548000", "092039.551000", "092039.554000", "092039.557000", "092039.560000", "092039.563000", "092039.566000", "092039.569000", "092039.572000", "092039.575000", "092039.578000", "092039.581000", "092039.585000", "092114.687000", "092114.691000", "092114.694000", "092114.697000", "092114.701000", "092114.704000", "092114.707000", "092114.710000", "092114.713000", "092114.717000", "092114.720000", "092114.724000", "092114.727000", "092114.730000", "092114.733000", "092114.736000", "092114.739000", "092114.742000", "092114.745000", "092114.748000", "092114.751000", "092114.754000", "092114.758000", "092114.762000"],
      "InstanceCreationTime": ["091739.553000", "091739.557000", "091739.560000", "091739.563000", "091739.566000", "091739.569000", "091739.573000", "091739.576000", "091739.584000", "091739.587000", "091739.590000", "091739.593000", "091739.614000", "091739.618000", "091739.620000", "091739.623000", "091739.627000", "091739.630000", "091739.633000", "091739.636000", "091819.548000", "091819.551000", "091819.554000", "091819.557000", "091819.561000", "091819.564000", "091819.567000", "091819.570000", "091819.573000", "091819.576000", "091819.579000", "091819.582000", "091819.585000", "091819.590000", "091819.593000", "091819.596000", "091819.599000", "091819.602000", "091819.605000", "091819.608000", "091819.611000", "091819.614000", "091819.617000", "091819.620000", "091819.623000", "091819.626000", "091819.629000", "091859.548000", "091859.551000", "091859.554000", "091859.557000", "091859.560000", "091859.563000", "091859.566000", "091859.569000", "091859.572000", "091859.575000", "091859.578000", "091859.581000", "091859.584000", "091859.587000", "091859.591000", "091859.594000", "091859.597000", "091859.600000", "091859.603000", "091859.606000", "091859.609000", "091859.612000", "091859.615000", "091859.625000", "091859.628000", "091859.631000", "091939.547000", "091939.550000", "091939.553000", "091939.556000", "091939.559000", "091939.562000", "091939.565000", "091939.568000", "091939.571000", "091939.574000", "091939.577000", "091939.580000", "091939.583000", "091939.597000", "091939.601000", "091939.604000", "091939.606000", "091939.610000", "091939.613000", "091939.617000", "091939.620000", "091939.623000", "091939.626000", "091939.629000", "091939.632000", "091939.635000", "091939.638000", "092019.548000", "092019.551000", "092019.554000", "092019.557000", "092019.560000", "092019.563000", "092019.566000", "092019.569000", "092019.572000", "092019.575000", "092019.578000", "092019.581000", "092019.585000", "092019.588000", "092019.591000", "092019.594000", "092019.597000", "092019.600000", "092019.603000", "092019.606000", "092019.609000", "092019.612000", "092019.615000", "092019.618000", "092019.621000", "092019.624000", "092019.627000", "092039.548000", "092039.551000", "092039.554000", "092039.557000", "092039.560000", "092039.563000", "092039.566000", "092039.569000", "092039.572000", "092039.575000", "092039.578000", "092039.581000", "092039.585000", "092114.687000", "092114.691000", "092114.694000", "092114.697000", "092114.701000", "092114.704000", "092114.707000", "092114.710000", "092114.713000", "092114.717000", "092114.720000", "092114.724000", "092114.727000", "092114.730000", "092114.733000", "092114.736000", "092114.739000", "092114.742000", "092114.745000", "092114.748000", "092114.751000", "092114.754000", "092114.758000", "092114.762000"],
      "InstanceNumber": [1, 2, 3, 4, 5, 6, 7, 8, 9, 10, 11, 12, 13, 14, 15, 16, 17, 18, 19, 20, 21, 22, 23, 24, 25, 26, 27, 28, 29, 30, 31, 32, 33, 34, 35, 36, 37, 38, 39, 40, 41, 42, 43, 44, 45, 46, 47, 48, 49, 50, 51, 52, 53, 54, 55, 56, 57, 58, 59, 60, 61, 62, 63, 64, 65, 66, 67, 68, 69, 70, 71, 72, 73, 74, 75, 76, 77, 78, 79, 80, 81, 82, 83, 84, 85, 86, 87, 88, 89, 90, 91, 92, 93, 94, 95, 96, 97, 98, 99, 100, 101, 102, 103, 104, 105, 106, 107, 108, 109, 110, 111, 112, 113, 114, 115, 116, 117, 118, 119, 120, 121, 122, 123, 124, 125, 126, 127, 128, 129, 130, 131, 132, 133, 134, 135, 136, 137, 138, 139, 140, 141, 142, 143, 144, 145, 146, 147, 148, 149, 150, 151, 152, 153, 154, 155, 156, 157, 158, 159, 160, 161, 162, 163, 164],
      "LargestImagePixelValue": [3546, 3478, 3421, 3428, 3422, 3378, 3401, 3410, 3371, 3370, 3356, 3372, 3421, 3412, 3426, 3366, 3390, 3370, 3340, 3382, 3380, 3391, 3429, 3416, 3387, 3377, 3325, 3286, 3280, 3280, 3301, 3281, 3326, 3406, 3428, 3428, 3388, 3364, 3324, 3296, 3301, 3342, 3338, 3298, 3290, 3304, 3298, 3323, 3304, 3298, 3355, 3364, 3342, 3307, 3348, 3279, 3322, 3352, 3443, 3406, 3378, 3348, 3348, 3353, 3350, 3332, 3331, 3296, 3310, 3304, 3324, 3300, 3410, 3408, 3407, 3366, 3360, 3357, 3342, 3318, 3322, 3316, 3353, 3308, 3301, 3320, 3328, 3361, 3339, 3343, 3303, 3321, 3287, 3295, 3304, 3329, 3311, 3284, 3294, 3294, 3301, 3344, 3403, 3387, 3397, 3351, 3357, 3319, 3334, 3326, 3307, 3270, 3324, 3284, 3284, 3280, 3275, 3302, 3269, 3278, 3304, 3275, 3346, 3316, 3330, 3271, 3274, 3265, 3273, 3265, 3261, 3337, 3274, 3297, 3252, 3294, 3305, 3320, 3317, 3321, 3297, 3361, 3321, 3316, 3283, 3289, 3266, 3287, 3285, 3277, 3299, 3349, 3325, 3327, 3357, 3450, 3438, 3406, 3379, 3289, 3271, 3320, 3387, 3314],
      "WindowCenter": [812.0, 809.0, 808.0, 808.0, 808.0, 807.0, 808.0, 808.0, 808.0, 808.0, 808.0, 809.0, 810.0, 811.0, 812.0, 812.0, 811.0, 810.0, 809.0, 810.0, 810.0, 811.0, 811.0, 809.0, 807.0, 806.0, 806.0, 805.0, 805.0, 806.0, 807.0, 808.0, 809.0, 811.0, 811.0, 810.0, 808.0, 806.0, 805.0, 804.0, 804.0, 805.0, 806.0, 807.0, 806.0, 806.0, 805.0, 806.0, 808.0, 809.0, 811.0, 811.0, 810.0, 807.0, 806.0, 806.0, 807.0, 809.0, 810.0, 808.0, 807.0, 806.0, 806.0, 806.0, 806.0, 805.0, 805.0, 804.0, 805.0, 805.0, 806.0, 807.0, 809.0, 809.0, 810.0, 810.0, 808.0, 806.0, 806.0, 806.0, 807.0, 807.0, 807.0, 807.0, 807.0, 809.0, 810.0, 811.0, 810.0, 808.0, 807.0, 807.0, 806.0, 807.0, 808.0, 808.0, 807.0, 806.0, 807.0, 807.0, 808.0, 810.0, 812.0, 811.0, 809.0, 807.0, 806.0, 806.0, 807.0, 807.0, 808.0, 810.0, 810.0, 808.0, 806.0, 808.0, 808.0, 806.0, 805.0, 805.0, 807.0, 808.0, 809.0, 809.0, 807.0, 805.0, 805.0, 805.0, 806.0, 808.0, 809.0, 809.0, 806.0, 806.0, 806.0, 806.0, 808.0, 808.0, 807.0, 807.0, 807.0, 809.0, 809.0, 808.0, 805.0, 805.0, 805.0, 805.0, 804.0, 804.0, 805.0, 805.0, 806.0, 808.0, 810.0, 812.0, 811.0, 809.0, 807.0, 806.0, 807.0, 809.0, 810.0, 809.0],
      "WindowWidth": [1797.0, 1787.0, 1784.0, 1782.0, 1783.0, 1781.0, 1783.0, 1784.0, 1784.0, 1784.0, 1785.0, 1787.0, 1791.0, 1793.0, 1795.0, 1794.0, 1791.0, 1790.0, 1787.0, 1789.0, 1789.0, 1792.0, 1790.0, 1785.0, 1780.0, 1778.0, 1777.0, 1774.0, 1774.0, 1777.0, 1781.0, 1784.0, 1787.0, 1792.0, 1792.0, 1789.0, 1783.0, 1778.0, 1774.0, 1772.0, 1773.0, 1777.0, 1779.0, 1780.0, 1778.0, 1776.0, 1776.0, 1779.0, 1783.0, 1787.0, 1793.0, 1792.0, 1787.0, 1780.0, 1778.0, 1778.0, 1782.0, 1786.0, 1787.0, 1783.0, 1779.0, 1777.0, 1778.0, 1778.0, 1777.0, 1775.0, 1775.0, 1773.0, 1774.0, 1776.0, 1778.0, 1780.0, 1786.0, 1786.0, 1789.0, 1787.0, 1782.0, 1777.0, 1778.0, 1779.0, 1780.0, 1781.0, 1781.0, 1780.0, 1781.0, 1787.0, 1790.0, 1791.0, 1788.0, 1784.0, 1780.0, 1780.0, 1778.0, 1781.0, 1784.0, 1784.0, 1780.0, 1778.0, 1779.0, 1780.0, 1783.0, 1789.0, 1794.0, 1790.0, 1785.0, 1780.0, 1778.0, 1778.0, 1780.0, 1781.0, 1782.0, 1788.0, 1789.0, 1782.0, 1778.0, 1782.0, 1782.0, 1778.0, 1775.0, 1775.0, 1779.0, 1782.0, 1786.0, 1785.0, 1780.0, 1774.0, 1773.0, 1775.0, 1778.0, 1783.0, 1786.0, 1784.0, 1778.0, 1777.0, 1776.0, 1779.0, 1784.0, 1783.0, 1780.0, 1779.0, 1780.0, 1786.0, 1786.0, 1782.0, 1775.0, 1773.0, 1775.0, 1775.0, 1773.0, 1772.0, 1774.0, 1776.0, 1778.0, 1782.0, 1789.0, 1795.0, 1790.0, 1784.0, 1779.0, 1777.0, 1780.0, 1786.0, 1787.0, 1786.0]
    },
    "slices": {}
  }
}