{
  "AcquisitionMatrixPE": 72,
  "AcquisitionNumber": 1,
  "AcquisitionTime": "09:09:35.150000",
  "BandwidthPerPixelPhaseEncode": 17.943,
  "BaseResolution": 96,
  "BodyPartExamined": "BRAIN",
  "CoilCombinationMethod": "Sum of Squares",
  "ConsistencyInfo": "N4_VE11C_LATEST_20160120",
  "ConversionSoftware": "dcm2niix",
  "ConversionSoftwareVersion": "v1.0.20211006",
  "DerivedVendorReportedEchoSpacing": 0.000552897,
  "DeviceSerialNumber": "166011",
  "EchoTime": 0.03,
  "EchoTrainLength": 58,
  "EffectiveEchoSpacing": 0.000580542,
  "FlipAngle": 62,
  "ImageOrientationPatientDICOM": [0.99992, 0.00232525, -0.0124396, -0.0040139, 0.990494, -0.137499],
  "ImageType": [
    "ORIGINAL",
    "PRIMARY",
    "M",
    "ND",
    "MOSAIC"
],
  "ImagingFrequency": 123.26,
  "InPlanePhaseEncodingDirectionDICOM": "COL",
  "InstitutionAddress": "West 130th Street 610,NY,NYC,US,10025",
  "InstitutionName": "MBBI",
  "MRAcquisitionType": "2D",
  "MagneticFieldStrength": 3,
  "Manufacturer": "Siemens",
  "ManufacturersModelName": "Prisma",
  "Modality": "MR",
  "MultibandAccelerationFactor": 3,
  "PartialFourier": 0.75,
  "PatientPosition": "HFS",
  "PercentPhaseFOV": 100,
  "PercentSampling": 75,
  "PhaseEncodingDirection": "j-",
  "PhaseEncodingSteps": 58,
  "PhaseOversampling": 0.05,
  "PhaseResolution": 0.75,
  "PixelBandwidth": 2265,
  "ProcedureStepDescription": "White^Word_recognition",
  "ProtocolName": "func_catLoc_run3",
  "PulseSequenceDetails": "%SiemensSeq%\\ep2d_bold",
  "ReceiveCoilActiveElements": "HC1-7",
  "ReceiveCoilName": "HeadNeck_64",
  "ReconMatrixPE": 96,
  "RefLinesPE": 40,
  "RepetitionTime": 1.5,
  "SAR": 0.0459706,
  "ScanOptions": "PFP\\FS",
  "ScanningSequence": "EP",
  "SequenceName": "*epfid2d1_72",
  "SequenceVariant": "SK\\OSP",
  "SeriesDescription": "func_catLoc_run3",
  "SeriesNumber": 10,
  "ShimSetting": [-1153, -1335, 612, 489, -113, -78, -36, 10],
  "SliceThickness": 2,
  "SliceTiming": [1.075, 0, 0.74, 0.0675, 0.8075, 0.135, 0.875, 0.2025, 0.9425, 0.2675, 1.0075, 0.4025, 1.1425, 0.47, 1.21, 0.5375, 1.2775, 0.605, 1.345, 0.6725, 1.4125, 0.335, 1.075, 0, 0.74, 0.0675, 0.8075, 0.135, 0.875, 0.2025, 0.9425, 0.2675, 1.0075, 0.4025, 1.1425, 0.47, 1.21, 0.5375, 1.2775, 0.605, 1.345, 0.6725, 1.4125, 0.335, 1.075, 0, 0.74, 0.0675, 0.8075, 0.135, 0.875, 0.2025, 0.9425, 0.2675, 1.0075, 0.4025, 1.1425, 0.47, 1.21, 0.5375, 1.2775, 0.605, 1.345, 0.6725, 1.4125, 0.335],
  "SoftwareVersions": "syngo MR E11",
  "SpacingBetweenSlices": 2,
  "StationName": "AWP166011",
  "TaskName": "catLoc",
  "TotalReadoutTime": 0.0551515,
  "TxRefAmp": 224.95,
  "dcmmeta_affine": [
    [-1.9998399019241333, -0.00802780594676733, -0.02400326542556286, 100.49341583251953],
    [-0.004650508053600788, 1.980987548828125, -0.2750755548477173, -61.546669006347656],
    [-0.0248792115598917, 0.274997740983963, 1.9808475971221924, -79.56437683105469],
    [0.0, 0.0, 0.0, 1.0]
],
  "dcmmeta_reorient_transform": [
    [0.0, -1.0, 0.0, 95.0],
    [1.0, 0.0, 0.0, 0.0],
    [0.0, 0.0, 1.0, 0.0],
    [0.0, 0.0, 0.0, 1.0]
],
  "dcmmeta_shape": [96, 96, 66, 214],
  "dcmmeta_slice_dim": 2,
  "dcmmeta_version": 0.6,
  "global": {
    "const": {
      "AcquisitionMatrix": [96, 0, 0, 72],
      "AngioFlag": "N",
      "BitsAllocated": 16,
      "BitsStored": 12,
      "BodyPartExamined": "BRAIN",
      "Columns": 864,
      "EchoNumbers": 1,
      "EchoTime": 30.0,
      "EchoTrainLength": 58,
      "FlipAngle": 62.0,
      "HighBit": 11,
      "ImageOrientationPatient": [0.99991992149116, 0.00232525409452, -0.0124396060428, -0.00401390286, 0.99049379161898, -0.1374988630792],
      "ImagePositionPatient": [-864.58659322251, -889.13217664515, 61.713150492834],
      "ImageType": [
        "ORIGINAL",
        "PRIMARY",
        "M",
        "ND",
        "MOSAIC"
],
      "ImagedNucleus": "1H",
      "ImagingFrequency": 123.259638,
      "InPlanePhaseEncodingDirection": "COL",
      "MRAcquisitionType": "2D",
      "MagneticFieldStrength": 3.0,
      "Manufacturer": "SIEMENS",
      "ManufacturerModelName": "Prisma",
      "Modality": "MR",
      "NumberOfAverages": 1.0,
      "NumberOfPhaseEncodingSteps": 58,
      "PercentPhaseFieldOfView": 100.0,
      "PercentSampling": 75.0,
      "PerformedProcedureStepStartTime": "083259.649000",
      "PhotometricInterpretation": "MONOCHROME2",
      "PixelBandwidth": 2265.0,
      "PixelRepresentation": 0,
      "PixelSpacing": [2.0, 2.0],
      "ProtocolName": "func_catLoc_run3",
      "RepetitionTime": 1500.0,
      "Rows": 864,
      "SAR": 0.04597061245227,
      "SamplesPerPixel": 1,
      "ScanOptions": [
        "PFP",
        "FS"
],
      "ScanningSequence": "EP",
      "SequenceName": "*epfid2d1_72",
      "SequenceVariant": [
        "SK",
        "OSP"
],
      "SeriesDescription": "func_catLoc_run3",
      "SeriesNumber": 10,
      "SeriesTime": "091023.636000",
      "SliceLocation": -71.543546318692,
      "SliceThickness": 2.0,
      "SmallestImagePixelValue": 0,
      "SoftwareVersions": "syngo MR E11",
      "SpacingBetweenSlices": 1.9999999626014,
      "SpecificCharacterSet": "ISO_IR 100",
      "StudyID": "2",
      "StudyTime": "083259.556000",
      "TransmitCoilName": "Body",
      "VariableFlipAngleFlag": "N",
      "WindowCenterWidthExplanation": "Algo1",
      "dBdt": 0.0},
    "slices": {}
  },
  "time": {
    "samples": {
      "AcquisitionNumber": [1, 2, 3, 4, 5, 6, 7, 8, 9, 10, 11, 12, 13, 14, 15, 16, 17, 18, 19, 20, 21, 22, 23, 24, 25, 26, 27, 28, 29, 30, 31, 32, 33, 34, 35, 36, 37, 38, 39, 40, 41, 42, 43, 44, 45, 46, 47, 48, 49, 50, 51, 52, 53, 54, 55, 56, 57, 58, 59, 60, 61, 62, 63, 64, 65, 66, 67, 68, 69, 70, 71, 72, 73, 74, 75, 76, 77, 78, 79, 80, 81, 82, 83, 84, 85, 86, 87, 88, 89, 90, 91, 92, 93, 94, 95, 96, 97, 98, 99, 100, 101, 102, 103, 104, 105, 106, 107, 108, 109, 110, 111, 112, 113, 114, 115, 116, 117, 118, 119, 120, 121, 122, 123, 124, 125, 126, 127, 128, 129, 130, 131, 132, 133, 134, 135, 136, 137, 138, 139, 140, 141, 142, 143, 144, 145, 146, 147, 148, 149, 150, 151, 152, 153, 154, 155, 156, 157, 158, 159, 160, 161, 162, 163, 164, 165, 166, 167, 168, 169, 170, 171, 172, 173, 174, 175, 176, 177, 178, 179, 180, 181, 182, 183, 184, 185, 186, 187, 188, 189, 190, 191, 192, 193, 194, 195, 196, 197, 198, 199, 200, 201, 202, 203, 204, 205, 206, 207, 208, 209, 210, 211, 212, 213, 214],
      "AcquisitionTime": ["090935.150000", "090936.650000", "090938.150000", "090939.650000", "090941.150000", "090942.650000", "090944.150000", "090945.650000", "090947.150000", "090948.650000", "090950.150000", "090951.650000", "090953.150000", "090954.650000", "090956.150000", "090957.650000", "090959.150000", "091000.650000", "091002.150000", "091003.650000", "091005.150000", "091006.650000", "091008.150000", "091009.650000", "091011.150000", "091012.650000", "091014.150000", "091015.650000", "091017.150000", "091018.650000", "091020.150000", "091021.650000", "091023.150000", "091024.650000", "091026.150000", "091027.650000", "091029.150000", "091030.650000", "091032.150000", "091033.650000", "091035.150000", "091036.650000", "091038.150000", "091039.650000", "091041.150000", "091042.650000", "091044.150000", "091045.650000", "091047.150000", "091048.650000", "091050.150000", "091051.650000", "091053.150000", "091054.650000", "091056.150000", "091057.650000", "091059.150000", "091100.650000", "091102.150000", "091103.650000", "091105.150000", "091106.650000", "091108.150000", "091109.650000", "091111.150000", "091112.650000", "091114.150000", "091115.650000", "091117.150000", "091118.650000", "091120.150000", "091121.650000", "091123.150000", "091124.650000", "091126.150000", "091127.650000", "091129.150000", "091130.650000", "091132.150000", "091133.650000", "091135.150000", "091136.650000", "091138.150000", "091139.650000", "091141.150000", "091142.650000", "091144.150000", "091145.650000", "091147.150000", "091148.650000", "091150.150000", "091151.650000", "091153.150000", "091154.650000", "091156.150000", "091157.650000", "091159.150000", "091200.650000", "091202.150000", "091203.650000", "091205.150000", "091206.650000", "091208.150000", "091209.650000", "091211.150000", "091212.650000", "091214.150000", "091215.650000", "091217.150000", "091218.650000", "091220.150000", "091221.650000", "091223.150000", "091224.650000", "091226.150000", "091227.650000", "091229.150000", "091230.650000", "091232.150000", "091233.650000", "091235.150000", "091236.650000", "091238.150000", "091239.650000", "091241.150000", "091242.650000", "091244.150000", "091245.650000", "091247.150000", "091248.650000", "091250.150000", "091251.650000", "091253.150000", "091254.650000", "091256.150000", "091257.650000", "091259.150000", "091300.650000", "091302.150000", "091303.650000", "091305.150000", "091306.650000", "091308.150000", "091309.650000", "091311.150000", "091312.650000", "091314.150000", "091315.650000", "091317.150000", "091318.650000", "091320.150000", "091321.650000", "091323.150000", "091324.650000", "091326.150000", "091327.650000", "091329.150000", "091330.650000", "091332.150000", "091333.650000", "091335.150000", "091336.650000", "091338.150000", "091339.650000", "091341.150000", "091342.650000", "091344.150000", "091345.650000", "091347.150000", "091348.650000", "091350.150000", "091351.650000", "091353.150000", "091354.650000", "091356.150000", "091357.650000", "091359.150000", "091400.650000", "091402.150000", "091403.650000", "091405.150000", "091406.650000", "091408.150000", "091409.650000", "091411.150000", "091412.650000", "091414.150000", "091415.650000", "091417.150000", "091418.650000", "091420.150000", "091421.650000", "091423.150000", "091424.650000", "091426.150000", "091427.650000", "091429.150000", "091430.650000", "091432.150000", "091433.650000", "091435.150000", "091436.650000", "091438.150000", "091439.650000", "091441.150000", "091442.650000", "091444.150000", "091445.650000", "091447.150000", "091448.650000", "091450.150000", "091451.650000", "091453.150000", "091454.650000"],
      "ContentTime": ["091023.640000", "091023.644000", "091023.647000", "091023.650000", "091023.654000", "091023.659000", "091023.662000", "091023.665000", "091023.667000", "091023.670000", "091023.674000", "091023.676000", "091023.679000", "091023.682000", "091023.686000", "091023.689000", "091023.692000", "091023.695000", "091023.699000", "091023.702000", "091023.706000", "091023.709000", "091023.712000", "091023.715000", "091023.718000", "091023.721000", "091023.724000", "091023.727000", "091023.730000", "091023.733000", "091023.736000", "091023.739000", "091043.635000", "091043.638000", "091043.641000", "091043.645000", "091043.653000", "091043.656000", "091043.659000", "091043.662000", "091043.665000", "091043.668000", "091043.671000", "091043.674000", "091043.677000", "091123.634000", "091123.637000", "091123.640000", "091123.643000", "091123.646000", "091123.649000", "091123.652000", "091123.655000", "091123.658000", "091123.661000", "091123.664000", "091123.667000", "091123.670000", "091123.673000", "091123.676000", "091123.679000", "091123.682000", "091123.685000", "091123.688000", "091123.691000", "091123.694000", "091123.697000", "091123.700000", "091123.703000", "091123.706000", "091123.709000", "091123.712000", "091203.634000", "091203.637000", "091203.640000", "091203.643000", "091203.646000", "091203.649000", "091203.653000", "091203.656000", "091203.659000", "091203.662000", "091203.665000", "091203.669000", "091203.672000", "091203.675000", "091203.678000", "091203.681000", "091203.684000", "091203.687000", "091203.690000", "091203.693000", "091203.696000", "091203.699000", "091203.702000", "091203.705000", "091203.708000", "091203.711000", "091243.635000", "091243.638000", "091243.641000", "091243.644000", "091243.647000", "091243.651000", "091243.654000", "091243.657000", "091243.660000", "091243.663000", "091243.666000", "091243.669000", "091243.672000", "091243.675000", "091243.692000", "091243.696000", "091243.698000", "091243.702000", "091243.705000", "091243.707000", "091243.710000", "091243.714000", "091243.717000", "091243.720000", "091243.723000", "091243.726000", "091243.729000", "091323.634000", "091323.637000", "091323.640000", "091323.643000", "091323.646000", "091323.649000", "091323.652000", "091323.655000", "091323.658000", "091323.661000", "091323.664000", "091323.667000", "091323.670000", "091323.673000", "091323.676000", "091323.679000", "091323.682000", "091323.685000", "091323.688000", "091323.691000", "091323.694000", "091323.697000", "091323.700000", "091323.703000", "091323.706000", "091323.709000", "091323.712000", "091403.634000", "091403.637000", "091403.640000", "091403.643000", "091403.646000", "091403.650000", "091403.652000", "091403.656000", "091403.659000", "091403.662000", "091403.665000", "091403.668000", "091403.671000", "091403.674000", "091403.677000", "091403.680000", "091403.683000", "091403.686000", "091403.689000", "091403.692000", "091403.695000", "091403.698000", "091403.701000", "091403.704000", "091403.707000", "091403.710000", "091443.635000", "091443.638000", "091443.641000", "091443.644000", "091443.647000", "091443.650000", "091443.653000", "091443.656000", "091443.659000", "091443.663000", "091443.666000", "091443.669000", "091443.672000", "091443.675000", "091443.678000", "091443.681000", "091443.684000", "091443.687000", "091443.690000", "091443.693000", "091443.696000", "091443.699000", "091443.702000", "091443.705000", "091443.708000", "091443.717000", "091443.720000", "091456.169000", "091456.173000", "091456.176000", "091456.179000", "091456.182000", "091456.185000", "091456.189000", "091456.192000", "091456.195000"],
      "InstanceCreationTime": ["091023.640000", "091023.644000", "091023.647000", "091023.650000", "091023.654000", "091023.659000", "091023.662000", "091023.665000", "091023.667000", "091023.670000", "091023.674000", "091023.676000", "091023.679000", "091023.682000", "091023.686000", "091023.689000", "091023.692000", "091023.695000", "091023.699000", "091023.702000", "091023.706000", "091023.709000", "091023.712000", "091023.715000", "091023.718000", "091023.721000", "091023.724000", "091023.727000", "091023.730000", "091023.733000", "091023.736000", "091023.739000", "091043.635000", "091043.638000", "091043.641000", "091043.645000", "091043.653000", "091043.656000", "091043.659000", "091043.662000", "091043.665000", "091043.668000", "091043.671000", "091043.674000", "091043.677000", "091123.634000", "091123.637000", "091123.640000", "091123.643000", "091123.646000", "091123.649000", "091123.652000", "091123.655000", "091123.658000", "091123.661000", "091123.664000", "091123.667000", "091123.670000", "091123.673000", "091123.676000", "091123.679000", "091123.682000", "091123.685000", "091123.688000", "091123.691000", "091123.694000", "091123.697000", "091123.700000", "091123.703000", "091123.706000", "091123.709000", "091123.712000", "091203.634000", "091203.637000", "091203.640000", "091203.643000", "091203.646000", "091203.649000", "091203.653000", "091203.656000", "091203.659000", "091203.662000", "091203.665000", "091203.669000", "091203.672000", "091203.675000", "091203.678000", "091203.681000", "091203.684000", "091203.687000", "091203.690000", "091203.693000", "091203.696000", "091203.699000", "091203.702000", "091203.705000", "091203.708000", "091203.711000", "091243.635000", "091243.638000", "091243.641000", "091243.644000", "091243.647000", "091243.651000", "091243.654000", "091243.657000", "091243.660000", "091243.663000", "091243.666000", "091243.669000", "091243.672000", "091243.675000", "091243.692000", "091243.696000", "091243.698000", "091243.702000", "091243.705000", "091243.707000", "091243.710000", "091243.714000", "091243.717000", "091243.720000", "091243.723000", "091243.726000", "091243.729000", "091323.634000", "091323.637000", "091323.640000", "091323.643000", "091323.646000", "091323.649000", "091323.652000", "091323.655000", "091323.658000", "091323.661000", "091323.664000", "091323.667000", "091323.670000", "091323.673000", "091323.676000", "091323.679000", "091323.682000", "091323.685000", "091323.688000", "091323.691000", "091323.694000", "091323.697000", "091323.700000", "091323.703000", "091323.706000", "091323.709000", "091323.712000", "091403.634000", "091403.637000", "091403.640000", "091403.643000", "091403.646000", "091403.650000", "091403.652000", "091403.656000", "091403.659000", "091403.662000", "091403.665000", "091403.668000", "091403.671000", "091403.674000", "091403.677000", "091403.680000", "091403.683000", "091403.686000", "091403.689000", "091403.692000", "091403.695000", "091403.698000", "091403.701000", "091403.704000", "091403.707000", "091403.710000", "091443.635000", "091443.638000", "091443.641000", "091443.644000", "091443.647000", "091443.650000", "091443.653000", "091443.656000", "091443.659000", "091443.663000", "091443.666000", "091443.669000", "091443.672000", "091443.675000", "091443.678000", "091443.681000", "091443.684000", "091443.687000", "091443.690000", "091443.693000", "091443.696000", "091443.699000", "091443.702000", "091443.705000", "091443.708000", "091443.717000", "091443.720000", "091456.169000", "091456.173000", "091456.176000", "091456.179000", "091456.182000", "091456.185000", "091456.189000", "091456.192000", "091456.195000"],
      "InstanceNumber": [1, 2, 3, 4, 5, 6, 7, 8, 9, 10, 11, 12, 13, 14, 15, 16, 17, 18, 19, 20, 21, 22, 23, 24, 25, 26, 27, 28, 29, 30, 31, 32, 33, 34, 35, 36, 37, 38, 39, 40, 41, 42, 43, 44, 45, 46, 47, 48, 49, 50, 51, 52, 53, 54, 55, 56, 57, 58, 59, 60, 61, 62, 63, 64, 65, 66, 67, 68, 69, 70, 71, 72, 73, 74, 75, 76, 77, 78, 79, 80, 81, 82, 83, 84, 85, 86, 87, 88, 89, 90, 91, 92, 93, 94, 95, 96, 97, 98, 99, 100, 101, 102, 103, 104, 105, 106, 107, 108, 109, 110, 111, 112, 113, 114, 115, 116, 117, 118, 119, 120, 121, 122, 123, 124, 125, 126, 127, 128, 129, 130, 131, 132, 133, 134, 135, 136, 137, 138, 139, 140, 141, 142, 143, 144, 145, 146, 147, 148, 149, 150, 151, 152, 153, 154, 155, 156, 157, 158, 159, 160, 161, 162, 163, 164, 165, 166, 167, 168, 169, 170, 171, 172, 173, 174, 175, 176, 177, 178, 179, 180, 181, 182, 183, 184, 185, 186, 187, 188, 189, 190, 191, 192, 193, 194, 195, 196, 197, 198, 199, 200, 201, 202, 203, 204, 205, 206, 207, 208, 209, 210, 211, 212, 213, 214],
      "LargestImagePixelValue": [3390, 3365, 3312, 3273, 3274, 3288, 3284, 3291, 3272, 3324, 3311, 3315, 3287, 3278, 3276, 3275, 3303, 3263, 3398, 3371, 3389, 3305, 3267, 3259, 3289, 3270, 3285, 3335, 3344, 3404, 3400, 3404, 3328, 3310, 3272, 3285, 3267, 3275, 3267, 3276, 3269, 3266, 3294, 3261, 3251, 3277, 3258, 3300, 3265, 3262, 3265, 3255, 3288, 3272, 3312, 3150, 3455, 3414, 3383, 3359, 3357, 3391, 3340, 3321, 3304, 3390, 3300, 3340, 3405, 3338, 3331, 3282, 3308, 3265, 3297, 3288, 3292, 3317, 3314, 3402, 3338, 3382, 3297, 3311, 3258, 3340, 3258, 3263, 3284, 3290, 3298, 3259, 3260, 3255, 3255, 3247, 3292, 3298, 3301, 3312, 3274, 3309, 3291, 3256, 3262, 3302, 3269, 3286, 3273, 3345, 3299, 3254, 3253, 3271, 3257, 3267, 3237, 3254, 3262, 3262, 3260, 3281, 3245, 3263, 3259, 3293, 3260, 3262, 3259, 3267, 3247, 3242, 3280, 3272, 3277, 3268, 3260, 3239, 3269, 3273, 3241, 3265, 3265, 3286, 3311, 3375, 3267, 3276, 3279, 3283, 3267, 3241, 3259, 3240, 3261, 3258, 3253, 3264, 3280, 3259, 3261, 3303, 3319, 3389, 3311, 3302, 3276, 3282, 3253, 3236, 3243, 3236, 3255, 3254, 3280, 3261, 3286, 3261, 3273, 3287, 3320, 3289, 3261, 3252, 3252, 3257, 3258, 3240, 3267, 3255, 3270, 3259, 3266, 3288, 3248, 3272, 3255, 3242, 3266, 3256, 3278, 3256, 3244, 3255, 3263, 3262, 3241, 3256, 3248, 3259, 3246, 3246, 3251, 3249],
      "WindowCenter": [811.0, 809.0, 809.0, 809.0, 808.0, 808.0, 808.0, 809.0, 809.0, 810.0, 810.0, 810.0, 810.0, 809.0, 809.0, 810.0, 812.0, 813.0, 813.0, 812.0, 812.0, 810.0, 809.0, 808.0, 808.0, 808.0, 809.0, 811.0, 813.0, 814.0, 813.0, 811.0, 809.0, 809.0, 808.0, 807.0, 807.0, 807.0, 808.0, 809.0, 810.0, 810.0, 810.0, 807.0, 807.0, 806.0, 806.0, 806.0, 808.0, 809.0, 808.0, 808.0, 807.0, 809.0, 809.0, 808.0, 812.0, 811.0, 809.0, 807.0, 806.0, 806.0, 806.0, 808.0, 810.0, 811.0, 811.0, 810.0, 812.0, 811.0, 810.0, 809.0, 808.0, 807.0, 807.0, 807.0, 807.0, 808.0, 810.0, 812.0, 812.0, 811.0, 808.0, 808.0, 807.0, 807.0, 807.0, 807.0, 809.0, 810.0, 811.0, 809.0, 807.0, 806.0, 805.0, 806.0, 807.0, 808.0, 810.0, 811.0, 811.0, 809.0, 807.0, 807.0, 807.0, 808.0, 808.0, 810.0, 812.0, 812.0, 810.0, 807.0, 806.0, 806.0, 806.0, 806.0, 807.0, 807.0, 808.0, 810.0, 810.0, 809.0, 809.0, 809.0, 808.0, 808.0, 809.0, 811.0, 811.0, 810.0, 809.0, 808.0, 808.0, 809.0, 810.0, 811.0, 810.0, 808.0, 806.0, 806.0, 806.0, 807.0, 808.0, 809.0, 809.0, 809.0, 808.0, 809.0, 811.0, 810.0, 808.0, 807.0, 805.0, 805.0, 805.0, 805.0, 805.0, 806.0, 807.0, 808.0, 808.0, 810.0, 812.0, 812.0, 809.0, 807.0, 806.0, 806.0, 806.0, 806.0, 805.0, 806.0, 807.0, 807.0, 807.0, 807.0, 808.0, 809.0, 811.0, 813.0, 814.0, 812.0, 809.0, 807.0, 807.0, 808.0, 808.0, 807.0, 807.0, 807.0, 808.0, 809.0, 808.0, 808.0, 808.0, 808.0, 808.0, 807.0, 807.0, 809.0, 810.0, 811.0, 810.0, 809.0, 808.0, 807.0, 808.0, 810.0, 810.0, 808.0, 806.0, 805.0, 804.0, 804.0],
      "WindowWidth": [1796.0, 1790.0, 1788.0, 1786.0, 1785.0, 1785.0, 1785.0, 1787.0, 1788.0, 1790.0, 1789.0, 1790.0, 1789.0, 1788.0, 1787.0, 1790.0, 1795.0, 1798.0, 1798.0, 1796.0, 1796.0, 1790.0, 1786.0, 1785.0, 1784.0, 1784.0, 1787.0, 1793.0, 1797.0, 1801.0, 1797.0, 1793.0, 1787.0, 1785.0, 1782.0, 1780.0, 1780.0, 1782.0, 1784.0, 1787.0, 1791.0, 1790.0, 1788.0, 1782.0, 1780.0, 1778.0, 1778.0, 1780.0, 1784.0, 1786.0, 1785.0, 1783.0, 1783.0, 1786.0, 1788.0, 1783.0, 1796.0, 1794.0, 1787.0, 1780.0, 1777.0, 1778.0, 1780.0, 1784.0, 1788.0, 1792.0, 1790.0, 1791.0, 1795.0, 1793.0, 1790.0, 1785.0, 1783.0, 1781.0, 1780.0, 1781.0, 1781.0, 1785.0, 1789.0, 1795.0, 1796.0, 1790.0, 1784.0, 1784.0, 1781.0, 1781.0, 1781.0, 1782.0, 1788.0, 1790.0, 1790.0, 1785.0, 1780.0, 1778.0, 1776.0, 1777.0, 1781.0, 1785.0, 1790.0, 1793.0, 1790.0, 1784.0, 1780.0, 1779.0, 1780.0, 1783.0, 1784.0, 1790.0, 1795.0, 1795.0, 1788.0, 1781.0, 1778.0, 1777.0, 1779.0, 1780.0, 1780.0, 1782.0, 1784.0, 1788.0, 1788.0, 1787.0, 1786.0, 1785.0, 1784.0, 1785.0, 1787.0, 1792.0, 1792.0, 1789.0, 1785.0, 1783.0, 1783.0, 1785.0, 1790.0, 1791.0, 1788.0, 1783.0, 1778.0, 1778.0, 1777.0, 1780.0, 1784.0, 1786.0, 1787.0, 1788.0, 1784.0, 1788.0, 1792.0, 1789.0, 1783.0, 1779.0, 1776.0, 1774.0, 1774.0, 1774.0, 1775.0, 1778.0, 1781.0, 1783.0, 1785.0, 1791.0, 1795.0, 1795.0, 1787.0, 1781.0, 1779.0, 1778.0, 1778.0, 1777.0, 1776.0, 1777.0, 1780.0, 1779.0, 1780.0, 1781.0, 1784.0, 1787.0, 1792.0, 1797.0, 1800.0, 1793.0, 1785.0, 1781.0, 1781.0, 1784.0, 1784.0, 1780.0, 1780.0, 1781.0, 1784.0, 1785.0, 1783.0, 1783.0, 1784.0, 1783.0, 1781.0, 1780.0, 1782.0, 1786.0, 1789.0, 1792.0, 1788.0, 1784.0, 1782.0, 1781.0, 1783.0, 1788.0, 1788.0, 1783.0, 1778.0, 1775.0, 1773.0, 1772.0]
    },
    "slices": {}
  }
}