{
  "AcquisitionMatrixPE": 70,
  "AcquisitionNumber": 1,
  "AcquisitionTime": "19:21:21.790000",
  "BaseResolution": 70,
  "BodyPartExamined": "BRAIN",
  "CoilCombinationMethod": "Sum of Squares",
  "ConsistencyInfo": "N4_VE11C_LATEST_20160120",
  "ConversionSoftware": "dcm2niix",
  "ConversionSoftwareVersion": "v1.0.20211006",
  "DeviceSerialNumber": "166011",
  "EchoNumber": 2,
  "EchoTime": 0.00738,
  "EchoTime1": 0.00492,
  "EchoTime2": 0.00738,
  "FlipAngle": 60,
  "ImageOrientationPatientDICOM": [
    0.996527,
    -0.0590577,
    0.0587036,
    0.0646172,
    0.993104,
    -0.0978189
  ],
  "ImageType": [
    "ORIGINAL",
    "PRIMARY",
    "P",
    "ND",
    "PHASE"
  ],
  "ImagingFrequency": 123.259,
  "InPlanePhaseEncodingDirectionDICOM": "ROW",
  "InstitutionAddress": "West 130th Street 610,NY,NYC,US,10025",
  "InstitutionName": "MBBI",
  "IntendedFor": [
    "ses-3/func/sub-118_ses-3_task-langLoc_run-01_bold.nii.gz",
    "ses-3/func/sub-118_ses-3_task-langLoc_run-02_bold.nii.gz",
    "ses-3/func/sub-118_ses-3_task-langLoc_run-03_bold.nii.gz",
    "ses-3/func/sub-118_ses-3_task-vwfate_run-01_bold.nii.gz",
    "ses-3/func/sub-118_ses-3_task-vwfate_run-02_bold.nii.gz",
    "ses-3/func/sub-118_ses-3_task-vwfate_run-03_bold.nii.gz"
  ],
  "MRAcquisitionType": "2D",
  "MagneticFieldStrength": 3,
  "Manufacturer": "Siemens",
  "ManufacturersModelName": "Prisma",
  "MatrixCoilMode": "SENSE",
  "Modality": "MR",
  "MultibandAccelerationFactor": 2,
  "PartialFourier": 1,
  "PatientPosition": "HFS",
  "PercentPhaseFOV": 100,
  "PercentSampling": 100,
  "PhaseEncodingDirection": "i",
  "PhaseEncodingSteps": 70,
  "PhaseResolution": 1,
  "PixelBandwidth": 595,
  "ProcedureStepDescription": "White^Word_recognition",
  "ProtocolName": "fmap_gre_field_mapping",
  "PulseSequenceDetails": "%SiemensSeq%\\gre_field_mapping",
  "ReceiveCoilActiveElements": "HC1-7",
  "ReceiveCoilName": "HeadNeck_64",
  "ReconMatrixPE": 70,
  "RepetitionTime": 0.52,
  "SAR": 0.0803411,
  "ScanningSequence": "GR",
  "SequenceName": "*fm2d2r",
  "SequenceVariant": "SP",
  "SeriesDescription": "fmap_gre_field_mapping",
  "SeriesNumber": 15,
  "ShimSetting": [
    -1141,
    -1373,
    678,
    504,
    -39,
    1,
    -146,
    -43
  ],
  "SliceThickness": 3,
  "SliceTiming": [
    0.26562,
    0,
    0.26562,
    0.01562,
    0.28125,
    0.03125,
    0.29688,
    0.03125,
    0.3125,
    0.04688,
    0.3125,
    0.0625,
    0.32812,
    0.07812,
    0.34375,
    0.07812,
    0.35938,
    0.09375,
    0.375,
    0.10938,
    0.375,
    0.125,
    0.39062,
    0.14062,
    0.40625,
    0.14062,
    0.42188,
    0.15625,
    0.4375,
    0.17188,
    0.4375,
    0.1875,
    0.45312,
    0.20312,
    0.46875,
    0.20312,
    0.48438,
    0.21875,
    0.5,
    0.23438,
    0.5,
    0.25
  ],
  "SoftwareVersions": "syngo MR E11",
  "SpacingBetweenSlices": 3,
  "StationName": "AWP166011",
  "TxRefAmp": 213.443,
  "dcmmeta_affine": [
    [
      -2.9895811080932617,
      0.193851500749588,
      0.15756511688232422,
      100.89399719238281
    ],
    [
      0.17717303335666656,
      2.9793128967285156,
      -0.3038177490234375,
      -83.98953247070312
    ],
    [
      0.17611084878444672,
      0.2934566140174866,
      2.9804153442382812,
      -63.054969787597656
    ],
    [
      0.0,
      0.0,
      0.0,
      1.0
    ]
  ],
  "dcmmeta_reorient_transform": [
    [
      0.0,
      -1.0,
      0.0,
      69.0
    ],
    [
      1.0,
      0.0,
      0.0,
      0.0
    ],
    [
      0.0,
      0.0,
      -1.0,
      41.0
    ],
    [
      0.0,
      0.0,
      0.0,
      1.0
    ]
  ],
  "dcmmeta_shape": [
    70,
    70,
    42
  ],
  "dcmmeta_slice_dim": 2,
  "dcmmeta_version": 0.6,
  "global": {
    "const": {
      "AcquisitionMatrix": [
        0,
        70,
        70,
        0
      ],
      "AcquisitionNumber": 1,
      "AngioFlag": "N",
      "BitsAllocated": 16,
      "BitsStored": 12,
      "BodyPartExamined": "BRAIN",
      "Columns": 70,
      "EchoNumbers": 2,
      "EchoTime": 7.38,
      "EchoTrainLength": 0,
      "FlipAngle": 60.0,
      "HighBit": 11,
      "ImageOrientationPatient": [
        0.99652700713267,
        -0.0590576784729,
        0.05870361716792,
        0.0646171689862,
        0.99310426973984,
        -0.0978188677951
      ],
      "ImageType": [
        "ORIGINAL",
        "PRIMARY",
        "P",
        "ND"
      ],
      "ImagedNucleus": "1H",
      "ImagingFrequency": 123.259478,
      "InPlanePhaseEncodingDirection": "ROW",
      "MRAcquisitionType": "2D",
      "MagneticFieldStrength": 3.0,
      "Manufacturer": "SIEMENS",
      "ManufacturerModelName": "Prisma",
      "Modality": "MR",
      "NumberOfAverages": 1.0,
      "NumberOfPhaseEncodingSteps": 70,
      "PercentPhaseFieldOfView": 100.0,
      "PercentSampling": 100.0,
      "PerformedProcedureStepStartTime": "182408.510000",
      "PhotometricInterpretation": "MONOCHROME2",
      "PixelBandwidth": 595.0,
      "PixelRepresentation": 0,
      "PixelSpacing": [
        3.0,
        3.0
      ],
      "ProtocolName": "fmap_gre_field_mapping",
      "RepetitionTime": 520.0,
      "RescaleIntercept": -4096.0,
      "RescaleSlope": 2.0,
      "RescaleType": "US",
      "Rows": 70,
      "SAR": 0.08034109350244,
      "SamplesPerPixel": 1,
      "ScanningSequence": "GR",
      "SequenceName": "*fm2d2r",
      "SequenceVariant": "SP",
      "SeriesDescription": "fmap_gre_field_mapping",
      "SeriesNumber": 15,
      "SeriesTime": "192234.741000",
      "SliceThickness": 3.0,
      "SoftwareVersions": "syngo MR E11",
      "SpacingBetweenSlices": 3.0,
      "SpecificCharacterSet": "ISO_IR 100",
      "StudyID": "3",
      "StudyTime": "182408.452000",
      "TransmitCoilName": "Body",
      "VariableFlipAngleFlag": "N",
      "WindowCenterWidthExplanation": "Algo1",
      "dBdt": 0.0
    },
    "slices": {
      "AcquisitionTime": [
        "192121.790000",
        "192121.530000",
        "192121.802500",
        "192121.542500",
        "192121.815000",
        "192121.555000",
        "192121.825000",
        "192121.565000",
        "192121.837500",
        "192121.577500",
        "192121.850000",
        "192121.590000",
        "192121.862500",
        "192121.602500",
        "192121.875000",
        "192121.615000",
        "192121.887500",
        "192121.627500",
        "192121.900000",
        "192121.640000",
        "192121.912500",
        "192121.652500",
        "192121.925000",
        "192121.665000",
        "192121.937500",
        "192121.677500",
        "192121.950000",
        "192121.690000",
        "192121.962500",
        "192121.702500",
        "192121.975000",
        "192121.715000",
        "192121.987500",
        "192121.727500",
        "192122.000000",
        "192121.740000",
        "192122.012500",
        "192121.752500",
        "192122.025000",
        "192121.765000",
        "192122.037500",
        "192121.777500"
      ],
      "ContentTime": [
        "192234.797000",
        "192234.743000",
        "192234.799000",
        "192234.746000",
        "192234.802000",
        "192234.748000",
        "192234.804000",
        "192234.750000",
        "192234.806000",
        "192234.761000",
        "192234.808000",
        "192234.763000",
        "192234.810000",
        "192234.766000",
        "192234.812000",
        "192234.768000",
        "192234.820000",
        "192234.770000",
        "192234.822000",
        "192234.772000",
        "192234.824000",
        "192234.774000",
        "192234.826000",
        "192234.776000",
        "192234.828000",
        "192234.778000",
        "192234.830000",
        "192234.780000",
        "192234.833000",
        "192234.783000",
        "192234.835000",
        "192234.785000",
        "192234.837000",
        "192234.787000",
        "192234.839000",
        "192234.789000",
        "192234.841000",
        "192234.791000",
        "192234.843000",
        "192234.793000",
        "192234.845000",
        "192234.795000"
      ],
      "CsaImage.ICE_Dims": [
        "X_2_1_1_1_1_1_22_1_1_1_1_63",
        "X_2_1_1_1_1_1_1_1_1_2_1_63",
        "X_2_1_1_1_1_1_23_1_1_3_1_63",
        "X_2_1_1_1_1_1_2_1_1_4_1_63",
        "X_2_1_1_1_1_1_24_1_1_5_1_63",
        "X_2_1_1_1_1_1_3_1_1_6_1_63",
        "X_2_1_1_1_1_1_25_1_1_7_1_63",
        "X_2_1_1_1_1_1_4_1_1_8_1_63",
        "X_2_1_1_1_1_1_26_1_1_9_1_63",
        "X_2_1_1_1_1_1_5_1_1_10_1_63",
        "X_2_1_1_1_1_1_27_1_1_11_1_63",
        "X_2_1_1_1_1_1_6_1_1_12_1_63",
        "X_2_1_1_1_1_1_28_1_1_13_1_63",
        "X_2_1_1_1_1_1_7_1_1_14_1_63",
        "X_2_1_1_1_1_1_29_1_1_15_1_63",
        "X_2_1_1_1_1_1_8_1_1_16_1_63",
        "X_2_1_1_1_1_1_30_1_1_17_1_63",
        "X_2_1_1_1_1_1_9_1_1_18_1_63",
        "X_2_1_1_1_1_1_31_1_1_19_1_63",
        "X_2_1_1_1_1_1_10_1_1_20_1_63",
        "X_2_1_1_1_1_1_32_1_1_21_1_63",
        "X_2_1_1_1_1_1_11_1_1_22_1_63",
        "X_2_1_1_1_1_1_33_1_1_23_1_63",
        "X_2_1_1_1_1_1_12_1_1_24_1_63",
        "X_2_1_1_1_1_1_34_1_1_25_1_63",
        "X_2_1_1_1_1_1_13_1_1_26_1_63",
        "X_2_1_1_1_1_1_35_1_1_27_1_63",
        "X_2_1_1_1_1_1_14_1_1_28_1_63",
        "X_2_1_1_1_1_1_36_1_1_29_1_63",
        "X_2_1_1_1_1_1_15_1_1_30_1_63",
        "X_2_1_1_1_1_1_37_1_1_31_1_63",
        "X_2_1_1_1_1_1_16_1_1_32_1_63",
        "X_2_1_1_1_1_1_38_1_1_33_1_63",
        "X_2_1_1_1_1_1_17_1_1_34_1_63",
        "X_2_1_1_1_1_1_39_1_1_35_1_63",
        "X_2_1_1_1_1_1_18_1_1_36_1_63",
        "X_2_1_1_1_1_1_40_1_1_37_1_63",
        "X_2_1_1_1_1_1_19_1_1_38_1_63",
        "X_2_1_1_1_1_1_41_1_1_39_1_63",
        "X_2_1_1_1_1_1_20_1_1_40_1_63",
        "X_2_1_1_1_1_1_42_1_1_41_1_63",
        "X_2_1_1_1_1_1_21_1_1_42_1_63"
      ],
      "CsaImage.ProtocolSliceNumber": [
        0,
        1,
        2,
        3,
        4,
        5,
        6,
        7,
        8,
        9,
        10,
        11,
        12,
        13,
        14,
        15,
        16,
        17,
        18,
        19,
        20,
        21,
        22,
        23,
        24,
        25,
        26,
        27,
        28,
        29,
        30,
        31,
        32,
        33,
        34,
        35,
        36,
        37,
        38,
        39,
        40,
        41
      ],
      "CsaImage.SlicePosition_PCS": [
        [
          -114.26973261,
          -121.58302692,
          -42.80641187
        ],
        [
          -114.4272982,
          -121.27921108,
          -39.82600034
        ],
        [
          -114.5848638,
          -120.97539333,
          -36.84558499
        ],
        [
          -114.74242939,
          -120.67157559,
          -33.86516965
        ],
        [
          -114.89999498,
          -120.36775974,
          -30.88475812
        ],
        [
          -115.05756058,
          -120.06394199,
          -27.90434278
        ],
        [
          -115.21512617,
          -119.76012425,
          -24.92392934
        ],
        [
          -115.37269176,
          -119.4563065,
          -21.94351399
        ],
        [
          -115.53025736,
          -119.15249065,
          -18.96310056
        ],
        [
          -115.68782295,
          -118.84867291,
          -15.98268712
        ],
        [
          -115.84538855,
          -118.54485516,
          -13.00227178
        ],
        [
          -116.00295414,
          -118.24103932,
          -10.02185834
        ],
        [
          -116.16051926,
          -117.93722157,
          -7.04144395
        ],
        [
          -116.31808485,
          -117.63340382,
          -4.06103051
        ],
        [
          -116.47565044,
          -117.32958607,
          -1.08061612
        ],
        [
          -116.63321604,
          -117.02577023,
          1.89979803
        ],
        [
          -116.79078163,
          -116.72195248,
          4.88021212
        ],
        [
          -116.94834723,
          -116.41813473,
          7.8606261
        ],
        [
          -117.10591282,
          -116.11431889,
          10.84104049
        ],
        [
          -117.26347841,
          -115.81050114,
          13.82145392
        ],
        [
          -117.42104401,
          -115.50668339,
          16.80186831
        ],
        [
          -117.5786096,
          -115.20286564,
          19.7822827
        ],
        [
          -117.73617519,
          -114.8990498,
          22.7626971
        ],
        [
          -117.89374079,
          -114.59523205,
          25.74311053
        ],
        [
          -118.05130638,
          -114.2914143,
          28.72352397
        ],
        [
          -118.20887197,
          -113.9875975,
          31.70393931
        ],
        [
          -118.36643757,
          -113.68378071,
          34.68435275
        ],
        [
          -118.52400316,
          -113.37996296,
          37.66476809
        ],
        [
          -118.68156876,
          -113.07614616,
          40.64517962
        ],
        [
          -118.83913435,
          -112.77232842,
          43.62559497
        ],
        [
          -118.99669947,
          -112.46851162,
          46.60601031
        ],
        [
          -119.15426506,
          -112.16469387,
          49.58642184
        ],
        [
          -119.31183065,
          -111.86087708,
          52.56683719
        ],
        [
          -119.46939672,
          -111.55706028,
          55.54725253
        ],
        [
          -119.62696184,
          -111.25324253,
          58.52766406
        ],
        [
          -119.78452791,
          -110.94942574,
          61.5080794
        ],
        [
          -119.94209303,
          -110.64560799,
          64.48849475
        ],
        [
          -120.0996591,
          -110.34179119,
          67.46890628
        ],
        [
          -120.25722422,
          -110.03797344,
          70.44932544
        ],
        [
          -120.41478933,
          -109.73415665,
          73.42973315
        ],
        [
          -120.5723554,
          -109.43033985,
          76.4101485
        ],
        [
          -120.72992052,
          -109.1265221,
          79.39056384
        ]
      ],
      "CsaImage.TimeAfterStart": [
        0.7825,
        0.5225,
        0.795,
        0.535,
        0.8075,
        0.5475,
        0.8175,
        0.5575,
        0.83,
        0.57,
        0.8425,
        0.5825,
        0.855,
        0.595,
        0.8675,
        0.6075,
        0.88,
        0.62,
        0.8925,
        0.6325,
        0.905,
        0.645,
        0.9175,
        0.6575,
        0.93,
        0.67,
        0.9425,
        0.6825,
        0.955,
        0.695,
        0.9675,
        0.7075,
        0.98,
        0.72,
        0.9925,
        0.7325,
        1.005,
        0.745,
        1.0175,
        0.7575,
        1.03,
        0.77
      ],
      "ImagePositionPatient": [
        [
          -114.26973260869,
          -121.58302692495,
          -42.806411867741
        ],
        [
          -114.42729820241,
          -121.27921108327,
          -39.8260003382
        ],
        [
          -114.58486379613,
          -120.97539333425,
          -36.845584993961
        ],
        [
          -114.74242938985,
          -120.67157558523,
          -33.865169649723
        ],
        [
          -114.89999498357,
          -120.36775974355,
          -30.884758120182
        ],
        [
          -115.05756057729,
          -120.06394199453,
          -27.904342775944
        ],
        [
          -115.21512617101,
          -119.7601242455,
          -24.923929339054
        ],
        [
          -115.37269176473,
          -119.45630649648,
          -21.943513994816
        ],
        [
          -115.53025735845,
          -119.15249065481,
          -18.963100557926
        ],
        [
          -115.68782295217,
          -118.84867290578,
          -15.982687121037
        ],
        [
          -115.84538854589,
          -118.54485515676,
          -13.002271776798
        ],
        [
          -116.00295413961,
          -118.24103931508,
          -10.021858339909
        ],
        [
          -116.16051925649,
          -117.93722156606,
          -7.0414439493448
        ],
        [
          -116.31808485021,
          -117.63340381704,
          -4.0610305124552
        ],
        [
          -116.47565044393,
          -117.32958606801,
          -1.0806161218912
        ],
        [
          -116.63321603765,
          -117.02577022634,
          1.8997980302542
        ],
        [
          -116.79078163137,
          -116.72195247732,
          4.8802121227949
        ],
        [
          -116.94834722509,
          -116.41813472829,
          7.8606260961264
        ],
        [
          -117.10591281881,
          -116.11431888662,
          10.84104048669
        ],
        [
          -117.26347841253,
          -115.81050113759,
          13.82145392358
        ],
        [
          -117.42104400624,
          -115.50668338857,
          16.801868314144
        ],
        [
          -117.57860959996,
          -115.20286563955,
          19.782282704708
        ],
        [
          -117.73617519368,
          -114.89904979787,
          22.762697095272
        ],
        [
          -117.8937407874,
          -114.59523204885,
          25.743110532162
        ],
        [
          -118.05130638112,
          -114.29141429983,
          28.723523969051
        ],
        [
          -118.20887197484,
          -113.98759750448,
          31.703939313289
        ],
        [
          -118.36643756856,
          -113.68378070913,
          34.684352750179
        ],
        [
          -118.52400316228,
          -113.3799629601,
          37.664768094417
        ],
        [
          -118.681568756,
          -113.07614616475,
          40.645179623958
        ],
        [
          -118.83913434972,
          -112.77232841573,
          43.625594968197
        ],
        [
          -118.9966994666,
          -112.46851162038,
          46.606010312435
        ],
        [
          -119.15426506032,
          -112.16469387136,
          49.586421841976
        ],
        [
          -119.31183065404,
          -111.86087707601,
          52.566837186214
        ],
        [
          -119.4693967246,
          -111.55706028066,
          55.547252530453
        ],
        [
          -119.62696184148,
          -111.25324253164,
          58.527664059994
        ],
        [
          -119.78452791204,
          -110.94942573629,
          61.508079404232
        ],
        [
          -119.94209302892,
          -110.64560798726,
          64.48849474847
        ],
        [
          -120.09965909948,
          -110.34179119192,
          67.468906278011
        ],
        [
          -120.25722421636,
          -110.03797344289,
          70.449325436947
        ],
        [
          -120.41478933324,
          -109.73415664754,
          73.42973315179
        ],
        [
          -120.5723554038,
          -109.43033985219,
          76.410148496029
        ],
        [
          -120.72992052068,
          -109.12652210317,
          79.390563840267
        ]
      ],
      "InstanceCreationTime": [
        "192234.797000",
        "192234.743000",
        "192234.799000",
        "192234.746000",
        "192234.802000",
        "192234.748000",
        "192234.804000",
        "192234.750000",
        "192234.806000",
        "192234.761000",
        "192234.808000",
        "192234.763000",
        "192234.810000",
        "192234.766000",
        "192234.812000",
        "192234.768000",
        "192234.820000",
        "192234.770000",
        "192234.822000",
        "192234.772000",
        "192234.824000",
        "192234.774000",
        "192234.826000",
        "192234.776000",
        "192234.828000",
        "192234.778000",
        "192234.830000",
        "192234.780000",
        "192234.833000",
        "192234.783000",
        "192234.835000",
        "192234.785000",
        "192234.837000",
        "192234.787000",
        "192234.839000",
        "192234.789000",
        "192234.841000",
        "192234.791000",
        "192234.843000",
        "192234.793000",
        "192234.845000",
        "192234.795000"
      ],
      "InstanceNumber": [
        1,
        2,
        3,
        4,
        5,
        6,
        7,
        8,
        9,
        10,
        11,
        12,
        13,
        14,
        15,
        16,
        17,
        18,
        19,
        20,
        21,
        22,
        23,
        24,
        25,
        26,
        27,
        28,
        29,
        30,
        31,
        32,
        33,
        34,
        35,
        36,
        37,
        38,
        39,
        40,
        41,
        42
      ],
      "LargestImagePixelValue": [
        4094,
        4092,
        4094,
        4090,
        4093,
        4095,
        4093,
        4094,
        4089,
        4082,
        4093,
        4094,
        4095,
        4095,
        4081,
        4093,
        4092,
        4095,
        4091,
        4092,
        4075,
        4091,
        4073,
        4091,
        4079,
        4083,
        4080,
        4090,
        4086,
        4093,
        4084,
        4094,
        4092,
        4091,
        4092,
        4094,
        4091,
        4094,
        4092,
        4094,
        4095,
        4095
      ],
      "SliceLocation": [
        -48.838291390343,
        -45.838294079111,
        -42.838292784926,
        -39.83829149074,
        -36.838294179508,
        -33.838292885322,
        -30.838293486033,
        -27.838292191847,
        -24.838292985719,
        -21.83829358643,
        -18.838292292244,
        -15.838293086116,
        -12.838292764423,
        -9.838293365133,
        -6.8382930183953,
        -3.8382931016814,
        -0.8382930510213,
        2.1617068812079,
        5.1617070347838,
        8.1617064340734,
        11.161706780811,
        14.161707127549,
        17.161707281125,
        20.161706680414,
        23.161706079704,
        26.161707277309,
        29.161706580018,
        32.161707874203,
        35.161705282016,
        38.161706576202,
        41.161707748762,
        44.161705253156,
        47.16170645076,
        50.16170767341,
        53.161705152759,
        56.161706375408,
        59.16170764455,
        62.161705077406,
        65.16171013634,
        68.161703729316,
        71.161704951965,
        74.161706221107
      ],
      "SmallestImagePixelValue": [
        0,
        4,
        3,
        5,
        0,
        0,
        0,
        0,
        0,
        11,
        0,
        2,
        1,
        4,
        0,
        1,
        12,
        2,
        0,
        5,
        18,
        4,
        0,
        5,
        1,
        0,
        6,
        0,
        0,
        0,
        0,
        4,
        4,
        1,
        2,
        0,
        3,
        0,
        0,
        5,
        0,
        0
      ],
      "WindowCenter": [
        -284.0,
        -264.0,
        -134.0,
        -144.0,
        -56.0,
        -94.0,
        -230.0,
        -278.0,
        -264.0,
        -344.0,
        -102.0,
        -86.0,
        -18.0,
        -46.0,
        -206.0,
        -318.0,
        -326.0,
        -270.0,
        -122.0,
        -198.0,
        -186.0,
        -144.0,
        -204.0,
        -182.0,
        -194.0,
        -214.0,
        -236.0,
        -228.0,
        -294.0,
        -326.0,
        -326.0,
        -312.0,
        -264.0,
        -220.0,
        -284.0,
        -242.0,
        -116.0,
        -216.0,
        -190.0,
        -272.0,
        -250.0,
        -264.0
      ],
      "WindowWidth": [
        5838.0,
        5776.0,
        5820.0,
        5916.0,
        6010.0,
        5974.0,
        5940.0,
        5776.0,
        5320.0,
        4718.0,
        5428.0,
        5548.0,
        5680.0,
        5614.0,
        5332.0,
        4644.0,
        4620.0,
        4634.0,
        4992.0,
        4586.0,
        4506.0,
        4496.0,
        4458.0,
        4452.0,
        4414.0,
        4456.0,
        4430.0,
        4506.0,
        4496.0,
        4550.0,
        4550.0,
        4616.0,
        4602.0,
        4672.0,
        4680.0,
        4752.0,
        5464.0,
        5274.0,
        5574.0,
        5788.0,
        6048.0,
        6110.0
      ]
    }
  }
}