{
  "AcquisitionMatrixPE": 72,
  "AcquisitionNumber": 1,
  "AcquisitionTime": "17:00:29.015000",
  "BandwidthPerPixelPhaseEncode": 17.943,
  "BaseResolution": 96,
  "BodyPartExamined": "BRAIN",
  "CoilCombinationMethod": "Sum of Squares",
  "ConsistencyInfo": "N4_VE11C_LATEST_20160120",
  "ConversionSoftware": "dcm2niix",
  "ConversionSoftwareVersion": "v1.0.20211006",
  "DerivedVendorReportedEchoSpacing": 0.000552897,
  "DeviceSerialNumber": "166011",
  "EchoTime": 0.03,
  "EchoTrainLength": 58,
  "EffectiveEchoSpacing": 0.000580542,
  "FlipAngle": 62,
  "ImageOrientationPatientDICOM": [0.99644, -0.0588836, -0.060336, 0.054663, 0.996093, -0.0693641],
  "ImageType": [
    "ORIGINAL",
    "PRIMARY",
    "M",
    "ND",
    "MOSAIC"
],
  "ImagingFrequency": 123.259,
  "InPlanePhaseEncodingDirectionDICOM": "COL",
  "InstitutionAddress": "West 130th Street 610,NY,NYC,US,10025",
  "InstitutionName": "MBBI",
  "MRAcquisitionType": "2D",
  "MagneticFieldStrength": 3,
  "Manufacturer": "Siemens",
  "ManufacturersModelName": "Prisma",
  "Modality": "MR",
  "MultibandAccelerationFactor": 3,
  "PartialFourier": 0.75,
  "PatientPosition": "HFS",
  "PercentPhaseFOV": 100,
  "PercentSampling": 75,
  "PhaseEncodingDirection": "j-",
  "PhaseEncodingSteps": 58,
  "PhaseOversampling": 0.05,
  "PhaseResolution": 0.75,
  "PixelBandwidth": 2265,
  "ProcedureStepDescription": "White^Word_recognition",
  "ProtocolName": "func_vwfate_run7",
  "PulseSequenceDetails": "%SiemensSeq%\\ep2d_bold",
  "ReceiveCoilActiveElements": "HC1-7",
  "ReceiveCoilName": "HeadNeck_64",
  "ReconMatrixPE": 96,
  "RefLinesPE": 40,
  "RepetitionTime": 1.5,
  "SAR": 0.0494343,
  "ScanOptions": "PFP\\FS",
  "ScanningSequence": "EP",
  "SequenceName": "*epfid2d1_72",
  "SequenceVariant": "SK\\OSP",
  "SeriesDescription": "func_vwfate_run7",
  "SeriesNumber": 8,
  "ShimSetting": [-1156, -1381, 712, 635, -68, -19, -69, 19],
  "SliceThickness": 2,
  "SliceTiming": [1.075, 0, 0.74, 0.0675, 0.8075, 0.1325, 0.8725, 0.2, 0.94, 0.2675, 1.0075, 0.4025, 1.1425, 0.47, 1.21, 0.5375, 1.2775, 0.605, 1.345, 0.6725, 1.4125, 0.335, 1.075, 0, 0.74, 0.0675, 0.8075, 0.1325, 0.8725, 0.2, 0.94, 0.2675, 1.0075, 0.4025, 1.1425, 0.47, 1.21, 0.5375, 1.2775, 0.605, 1.345, 0.6725, 1.4125, 0.335, 1.075, 0, 0.74, 0.0675, 0.8075, 0.1325, 0.8725, 0.2, 0.94, 0.2675, 1.0075, 0.4025, 1.1425, 0.47, 1.21, 0.5375, 1.2775, 0.605, 1.345, 0.6725, 1.4125, 0.335],
  "SoftwareVersions": "syngo MR E11",
  "SpacingBetweenSlices": 2,
  "StationName": "AWP166011",
  "TaskName": "vwfate",
  "TotalReadoutTime": 0.0551515,
  "TxRefAmp": 213.598,
  "dcmmeta_affine": [
    [-1.9928796291351318, 0.10932596027851105, -0.12836939096450806, 98.06938934326172],
    [0.11776719987392426, 1.992185354232788, -0.13163793087005615, -63.14653396606445],
    [-0.1206720843911171, 0.13872812688350677, 1.991530179977417, -55.11629104614258],
    [0.0, 0.0, 0.0, 1.0]
],
  "dcmmeta_reorient_transform": [
    [0.0, -1.0, 0.0, 95.0],
    [1.0, 0.0, 0.0, 0.0],
    [0.0, 0.0, 1.0, 0.0],
    [0.0, 0.0, 0.0, 1.0]
],
  "dcmmeta_shape": [96, 96, 66, 164],
  "dcmmeta_slice_dim": 2,
  "dcmmeta_version": 0.6,
  "global": {
    "const": {
      "AcquisitionMatrix": [96, 0, 0, 72],
      "AngioFlag": "N",
      "BitsAllocated": 16,
      "BitsStored": 12,
      "BodyPartExamined": "BRAIN",
      "Columns": 864,
      "EchoNumbers": 1,
      "EchoTime": 30.0,
      "EchoTrainLength": 58,
      "FlipAngle": 62.0,
      "HighBit": 11,
      "ImageOrientationPatient": [0.99643980425988, -0.0588836014618, -0.06033604201, 0.05466298085878, 0.99609265878761, -0.0693640658632],
      "ImagePositionPatient": [-915.70229536383, -845.88762546845, 57.672564650156],
      "ImageType": [
        "ORIGINAL",
        "PRIMARY",
        "M",
        "ND",
        "MOSAIC"
],
      "ImagedNucleus": "1H",
      "ImagingFrequency": 123.259472,
      "InPlanePhaseEncodingDirection": "COL",
      "MRAcquisitionType": "2D",
      "MagneticFieldStrength": 3.0,
      "Manufacturer": "SIEMENS",
      "ManufacturerModelName": "Prisma",
      "Modality": "MR",
      "NumberOfAverages": 1.0,
      "NumberOfPhaseEncodingSteps": 58,
      "PercentPhaseFieldOfView": 100.0,
      "PercentSampling": 75.0,
      "PerformedProcedureStepStartTime": "164022.172000",
      "PhotometricInterpretation": "MONOCHROME2",
      "PixelBandwidth": 2265.0,
      "PixelRepresentation": 0,
      "PixelSpacing": [2.0, 2.0],
      "ProtocolName": "func_vwfate_run7",
      "RepetitionTime": 1500.0,
      "Rows": 864,
      "SAR": 0.04943426579907,
      "SamplesPerPixel": 1,
      "ScanOptions": [
        "PFP",
        "FS"
],
      "ScanningSequence": "EP",
      "SequenceName": "*epfid2d1_72",
      "SequenceVariant": [
        "SK",
        "OSP"
],
      "SeriesDescription": "func_vwfate_run7",
      "SeriesNumber": 8,
      "SeriesTime": "170116.960000",
      "SliceLocation": -57.021194233065,
      "SliceThickness": 2.0,
      "SmallestImagePixelValue": 0,
      "SoftwareVersions": "syngo MR E11",
      "SpacingBetweenSlices": 1.99999994345,
      "SpecificCharacterSet": "ISO_IR 100",
      "StudyID": "2",
      "StudyTime": "164022.130000",
      "TransmitCoilName": "Body",
      "VariableFlipAngleFlag": "N",
      "WindowCenterWidthExplanation": "Algo1",
      "dBdt": 0.0},
    "slices": {}
  },
  "time": {
    "samples": {
      "AcquisitionNumber": [1, 2, 3, 4, 5, 6, 7, 8, 9, 10, 11, 12, 13, 14, 15, 16, 17, 18, 19, 20, 21, 22, 23, 24, 25, 26, 27, 28, 29, 30, 31, 32, 33, 34, 35, 36, 37, 38, 39, 40, 41, 42, 43, 44, 45, 46, 47, 48, 49, 50, 51, 52, 53, 54, 55, 56, 57, 58, 59, 60, 61, 62, 63, 64, 65, 66, 67, 68, 69, 70, 71, 72, 73, 74, 75, 76, 77, 78, 79, 80, 81, 82, 83, 84, 85, 86, 87, 88, 89, 90, 91, 92, 93, 94, 95, 96, 97, 98, 99, 100, 101, 102, 103, 104, 105, 106, 107, 108, 109, 110, 111, 112, 113, 114, 115, 116, 117, 118, 119, 120, 121, 122, 123, 124, 125, 126, 127, 128, 129, 130, 131, 132, 133, 134, 135, 136, 137, 138, 139, 140, 141, 142, 143, 144, 145, 146, 147, 148, 149, 150, 151, 152, 153, 154, 155, 156, 157, 158, 159, 160, 161, 162, 163, 164],
      "AcquisitionTime": ["170029.015000", "170030.515000", "170032.015000", "170033.515000", "170035.015000", "170036.515000", "170038.015000", "170039.515000", "170041.015000", "170042.515000", "170044.015000", "170045.515000", "170047.015000", "170048.515000", "170050.015000", "170051.515000", "170053.015000", "170054.515000", "170056.015000", "170057.515000", "170059.015000", "170100.515000", "170102.015000", "170103.515000", "170105.015000", "170106.515000", "170108.015000", "170109.515000", "170111.015000", "170112.515000", "170114.015000", "170115.515000", "170117.015000", "170118.515000", "170120.015000", "170121.515000", "170123.015000", "170124.515000", "170126.015000", "170127.515000", "170129.015000", "170130.515000", "170132.015000", "170133.515000", "170135.015000", "170136.515000", "170138.015000", "170139.515000", "170141.015000", "170142.515000", "170144.015000", "170145.515000", "170147.015000", "170148.515000", "170150.015000", "170151.515000", "170153.015000", "170154.515000", "170156.015000", "170157.515000", "170159.015000", "170200.515000", "170202.015000", "170203.515000", "170205.015000", "170206.515000", "170208.015000", "170209.515000", "170211.015000", "170212.515000", "170214.015000", "170215.515000", "170217.015000", "170218.515000", "170220.015000", "170221.515000", "170223.015000", "170224.515000", "170226.015000", "170227.515000", "170229.015000", "170230.515000", "170232.015000", "170233.515000", "170235.015000", "170236.515000", "170238.015000", "170239.515000", "170241.015000", "170242.515000", "170244.015000", "170245.515000", "170247.015000", "170248.515000", "170250.015000", "170251.515000", "170253.015000", "170254.515000", "170256.015000", "170257.515000", "170259.015000", "170300.515000", "170302.015000", "170303.515000", "170305.015000", "170306.515000", "170308.015000", "170309.515000", "170311.015000", "170312.515000", "170314.015000", "170315.515000", "170317.015000", "170318.515000", "170320.015000", "170321.515000", "170323.015000", "170324.515000", "170326.015000", "170327.515000", "170329.015000", "170330.515000", "170332.015000", "170333.515000", "170335.015000", "170336.515000", "170338.015000", "170339.515000", "170341.015000", "170342.515000", "170344.015000", "170345.515000", "170347.015000", "170348.515000", "170350.015000", "170351.515000", "170353.015000", "170354.515000", "170356.015000", "170357.515000", "170359.015000", "170400.515000", "170402.015000", "170403.515000", "170405.015000", "170406.515000", "170408.015000", "170409.515000", "170411.015000", "170412.515000", "170414.015000", "170415.515000", "170417.015000", "170418.515000", "170420.015000", "170421.515000", "170423.015000", "170424.515000", "170426.015000", "170427.515000", "170429.015000", "170430.515000", "170432.015000", "170433.515000"],
      "ContentTime": ["170116.964000", "170116.968000", "170116.971000", "170116.974000", "170116.977000", "170116.980000", "170116.983000", "170116.987000", "170116.990000", "170116.993000", "170117.000000", "170117.003000", "170117.006000", "170117.009000", "170117.012000", "170117.016000", "170117.019000", "170117.022000", "170117.025000", "170117.028000", "170117.031000", "170117.039000", "170117.042000", "170117.046000", "170117.049000", "170117.052000", "170117.055000", "170117.058000", "170117.061000", "170117.064000", "170117.067000", "170117.070000", "170156.959000", "170156.962000", "170156.966000", "170156.969000", "170156.972000", "170156.975000", "170156.978000", "170156.981000", "170156.984000", "170156.987000", "170156.991000", "170156.994000", "170156.997000", "170157.001000", "170157.004000", "170157.007000", "170157.018000", "170157.021000", "170157.025000", "170157.028000", "170157.031000", "170157.034000", "170157.037000", "170157.040000", "170157.043000", "170157.046000", "170236.959000", "170236.962000", "170236.965000", "170236.969000", "170236.972000", "170236.975000", "170236.978000", "170236.981000", "170236.984000", "170236.987000", "170236.990000", "170236.993000", "170236.997000", "170237.001000", "170237.004000", "170237.007000", "170237.010000", "170237.013000", "170237.017000", "170237.020000", "170237.023000", "170237.026000", "170237.029000", "170237.032000", "170237.035000", "170237.038000", "170237.041000", "170316.959000", "170316.962000", "170316.965000", "170316.969000", "170316.972000", "170316.975000", "170316.978000", "170316.981000", "170316.984000", "170316.987000", "170316.990000", "170316.993000", "170316.996000", "170317.001000", "170317.004000", "170317.007000", "170317.010000", "170317.013000", "170317.016000", "170317.019000", "170317.022000", "170317.025000", "170317.028000", "170317.032000", "170317.035000", "170317.038000", "170317.041000", "170356.959000", "170356.962000", "170356.966000", "170356.969000", "170356.972000", "170356.975000", "170356.978000", "170356.981000", "170356.984000", "170356.987000", "170356.991000", "170356.994000", "170356.997000", "170357.001000", "170357.004000", "170357.008000", "170357.011000", "170357.014000", "170357.017000", "170357.020000", "170357.023000", "170357.038000", "170357.047000", "170357.050000", "170357.054000", "170357.057000", "170434.716000", "170434.720000", "170434.723000", "170434.727000", "170434.730000", "170434.733000", "170434.737000", "170434.740000", "170434.743000", "170434.746000", "170434.749000", "170434.752000", "170434.756000", "170434.759000", "170434.762000", "170434.765000", "170434.768000", "170434.771000", "170434.775000", "170434.778000", "170434.782000", "170434.800000", "170434.812000", "170434.815000", "170434.819000", "170434.822000"],
      "InstanceCreationTime": ["170116.964000", "170116.968000", "170116.971000", "170116.974000", "170116.977000", "170116.980000", "170116.983000", "170116.987000", "170116.990000", "170116.993000", "170117.000000", "170117.003000", "170117.006000", "170117.009000", "170117.012000", "170117.016000", "170117.019000", "170117.022000", "170117.025000", "170117.028000", "170117.031000", "170117.039000", "170117.042000", "170117.046000", "170117.049000", "170117.052000", "170117.055000", "170117.058000", "170117.061000", "170117.064000", "170117.067000", "170117.070000", "170156.959000", "170156.962000", "170156.966000", "170156.969000", "170156.972000", "170156.975000", "170156.978000", "170156.981000", "170156.984000", "170156.987000", "170156.991000", "170156.994000", "170156.997000", "170157.001000", "170157.004000", "170157.007000", "170157.018000", "170157.021000", "170157.025000", "170157.028000", "170157.031000", "170157.034000", "170157.037000", "170157.040000", "170157.043000", "170157.046000", "170236.959000", "170236.962000", "170236.965000", "170236.969000", "170236.972000", "170236.975000", "170236.978000", "170236.981000", "170236.984000", "170236.987000", "170236.990000", "170236.993000", "170236.997000", "170237.001000", "170237.004000", "170237.007000", "170237.010000", "170237.013000", "170237.017000", "170237.020000", "170237.023000", "170237.026000", "170237.029000", "170237.032000", "170237.035000", "170237.038000", "170237.041000", "170316.959000", "170316.962000", "170316.965000", "170316.969000", "170316.972000", "170316.975000", "170316.978000", "170316.981000", "170316.984000", "170316.987000", "170316.990000", "170316.993000", "170316.996000", "170317.001000", "170317.004000", "170317.007000", "170317.010000", "170317.013000", "170317.016000", "170317.019000", "170317.022000", "170317.025000", "170317.028000", "170317.032000", "170317.035000", "170317.038000", "170317.041000", "170356.959000", "170356.962000", "170356.966000", "170356.969000", "170356.972000", "170356.975000", "170356.978000", "170356.981000", "170356.984000", "170356.987000", "170356.991000", "170356.994000", "170356.997000", "170357.001000", "170357.004000", "170357.008000", "170357.011000", "170357.014000", "170357.017000", "170357.020000", "170357.023000", "170357.038000", "170357.047000", "170357.050000", "170357.054000", "170357.057000", "170434.716000", "170434.720000", "170434.723000", "170434.727000", "170434.730000", "170434.733000", "170434.737000", "170434.740000", "170434.743000", "170434.746000", "170434.749000", "170434.752000", "170434.756000", "170434.759000", "170434.762000", "170434.765000", "170434.768000", "170434.771000", "170434.775000", "170434.778000", "170434.782000", "170434.800000", "170434.812000", "170434.815000", "170434.819000", "170434.822000"],
      "InstanceNumber": [1, 2, 3, 4, 5, 6, 7, 8, 9, 10, 11, 12, 13, 14, 15, 16, 17, 18, 19, 20, 21, 22, 23, 24, 25, 26, 27, 28, 29, 30, 31, 32, 33, 34, 35, 36, 37, 38, 39, 40, 41, 42, 43, 44, 45, 46, 47, 48, 49, 50, 51, 52, 53, 54, 55, 56, 57, 58, 59, 60, 61, 62, 63, 64, 65, 66, 67, 68, 69, 70, 71, 72, 73, 74, 75, 76, 77, 78, 79, 80, 81, 82, 83, 84, 85, 86, 87, 88, 89, 90, 91, 92, 93, 94, 95, 96, 97, 98, 99, 100, 101, 102, 103, 104, 105, 106, 107, 108, 109, 110, 111, 112, 113, 114, 115, 116, 117, 118, 119, 120, 121, 122, 123, 124, 125, 126, 127, 128, 129, 130, 131, 132, 133, 134, 135, 136, 137, 138, 139, 140, 141, 142, 143, 144, 145, 146, 147, 148, 149, 150, 151, 152, 153, 154, 155, 156, 157, 158, 159, 160, 161, 162, 163, 164],
      "LargestImagePixelValue": [2934, 2876, 2843, 2868, 2819, 2836, 2799, 2771, 2796, 2765, 2793, 2804, 2764, 2805, 2810, 2829, 2810, 2821, 2884, 2815, 2859, 2857, 2830, 2869, 2874, 2826, 2912, 2859, 2823, 2804, 2811, 2807, 2814, 2838, 2835, 2817, 2808, 2856, 2797, 2808, 2861, 2827, 2879, 2813, 2791, 2825, 2816, 2832, 2808, 2798, 2813, 2818, 2792, 2804, 2803, 2762, 2784, 2808, 2808, 2804, 2782, 2813, 2776, 2778, 2844, 2782, 2773, 2791, 2798, 2785, 2772, 2753, 2772, 2776, 2777, 2791, 2782, 2782, 2777, 2755, 2800, 2775, 2765, 2820, 2809, 2788, 2771, 2814, 2817, 2797, 2805, 2855, 2826, 2825, 2792, 2764, 2816, 2784, 2756, 2767, 2758, 2780, 2791, 2790, 2793, 2780, 2782, 2783, 2751, 2788, 2821, 2797, 2788, 2819, 2807, 2786, 2761, 2798, 2770, 2758, 2765, 2762, 2793, 2759, 2778, 2796, 2798, 2793, 2824, 2823, 2804, 2789, 2757, 2809, 2766, 2790, 2764, 2810, 2800, 2789, 2800, 2827, 2786, 2834, 2837, 2857, 2874, 2831, 2800, 2797, 2772, 2827, 2781, 2777, 2808, 2783, 2788, 2782, 2801, 2809, 2803, 2819, 2897, 2913],
      "WindowCenter": [738.0, 737.0, 735.0, 735.0, 733.0, 731.0, 729.0, 728.0, 728.0, 729.0, 730.0, 731.0, 732.0, 733.0, 734.0, 734.0, 735.0, 736.0, 737.0, 737.0, 737.0, 737.0, 737.0, 737.0, 737.0, 737.0, 737.0, 736.0, 735.0, 734.0, 734.0, 735.0, 735.0, 736.0, 736.0, 735.0, 735.0, 734.0, 733.0, 733.0, 734.0, 734.0, 735.0, 735.0, 735.0, 735.0, 735.0, 735.0, 735.0, 735.0, 736.0, 735.0, 735.0, 735.0, 735.0, 734.0, 734.0, 735.0, 736.0, 735.0, 735.0, 735.0, 734.0, 734.0, 735.0, 735.0, 735.0, 735.0, 735.0, 734.0, 734.0, 733.0, 733.0, 733.0, 734.0, 734.0, 734.0, 735.0, 735.0, 734.0, 735.0, 734.0, 734.0, 736.0, 736.0, 735.0, 735.0, 734.0, 734.0, 734.0, 735.0, 737.0, 736.0, 736.0, 735.0, 734.0, 733.0, 733.0, 732.0, 732.0, 733.0, 733.0, 733.0, 733.0, 732.0, 732.0, 732.0, 733.0, 734.0, 735.0, 736.0, 736.0, 735.0, 735.0, 734.0, 734.0, 733.0, 733.0, 733.0, 733.0, 733.0, 733.0, 733.0, 732.0, 733.0, 734.0, 736.0, 736.0, 736.0, 735.0, 734.0, 733.0, 732.0, 732.0, 732.0, 733.0, 733.0, 734.0, 733.0, 733.0, 733.0, 733.0, 733.0, 735.0, 737.0, 738.0, 736.0, 735.0, 734.0, 732.0, 732.0, 733.0, 733.0, 733.0, 732.0, 732.0, 732.0, 732.0, 733.0, 733.0, 734.0, 736.0, 736.0, 735.0],
      "WindowWidth": [1595.0, 1592.0, 1588.0, 1588.0, 1583.0, 1578.0, 1572.0, 1570.0, 1570.0, 1572.0, 1574.0, 1577.0, 1579.0, 1582.0, 1585.0, 1586.0, 1586.0, 1589.0, 1592.0, 1593.0, 1594.0, 1593.0, 1592.0, 1592.0, 1593.0, 1593.0, 1593.0, 1590.0, 1588.0, 1586.0, 1586.0, 1587.0, 1588.0, 1590.0, 1589.0, 1587.0, 1586.0, 1585.0, 1583.0, 1582.0, 1584.0, 1585.0, 1588.0, 1587.0, 1588.0, 1588.0, 1587.0, 1588.0, 1588.0, 1589.0, 1590.0, 1589.0, 1589.0, 1588.0, 1586.0, 1585.0, 1584.0, 1586.0, 1589.0, 1588.0, 1587.0, 1586.0, 1584.0, 1584.0, 1586.0, 1586.0, 1588.0, 1587.0, 1586.0, 1585.0, 1584.0, 1582.0, 1582.0, 1582.0, 1584.0, 1585.0, 1585.0, 1586.0, 1586.0, 1586.0, 1586.0, 1584.0, 1586.0, 1589.0, 1590.0, 1588.0, 1587.0, 1585.0, 1585.0, 1585.0, 1588.0, 1592.0, 1591.0, 1589.0, 1586.0, 1584.0, 1583.0, 1581.0, 1580.0, 1580.0, 1581.0, 1583.0, 1582.0, 1581.0, 1579.0, 1578.0, 1580.0, 1581.0, 1585.0, 1587.0, 1589.0, 1589.0, 1588.0, 1587.0, 1585.0, 1583.0, 1581.0, 1581.0, 1580.0, 1580.0, 1582.0, 1582.0, 1582.0, 1580.0, 1580.0, 1585.0, 1589.0, 1591.0, 1590.0, 1587.0, 1583.0, 1580.0, 1578.0, 1579.0, 1579.0, 1581.0, 1582.0, 1584.0, 1583.0, 1581.0, 1582.0, 1582.0, 1583.0, 1588.0, 1593.0, 1594.0, 1590.0, 1586.0, 1583.0, 1579.0, 1579.0, 1580.0, 1581.0, 1581.0, 1579.0, 1579.0, 1580.0, 1580.0, 1580.0, 1582.0, 1585.0, 1588.0, 1589.0, 1587.0]
    },
    "slices": {}
  }
}