{
  "AcquisitionMatrixPE": 72,
  "AcquisitionNumber": 1,
  "AcquisitionTime": "17:52:33.917500",
  "BandwidthPerPixelPhaseEncode": 17.943,
  "BaseResolution": 96,
  "BodyPartExamined": "BRAIN",
  "CoilCombinationMethod": "Sum of Squares",
  "ConsistencyInfo": "N4_VE11C_LATEST_20160120",
  "ConversionSoftware": "dcm2niix",
  "ConversionSoftwareVersion": "v1.0.20211006",
  "DerivedVendorReportedEchoSpacing": 0.000552897,
  "DeviceSerialNumber": "166011",
  "EchoTime": 0.03,
  "EchoTrainLength": 58,
  "EffectiveEchoSpacing": 0.000580542,
  "FlipAngle": 62,
  "ImageOrientationPatientDICOM": [0.998207, 0.0212985, -0.0559472, -0.0270107, 0.994271, -0.103416],
  "ImageType": [
    "ORIGINAL",
    "PRIMARY",
    "M",
    "ND",
    "MOSAIC"
],
  "ImagingFrequency": 123.259,
  "InPlanePhaseEncodingDirectionDICOM": "COL",
  "InstitutionAddress": "West 130th Street 610,NY,NYC,US,10025",
  "InstitutionName": "MBBI",
  "MRAcquisitionType": "2D",
  "MagneticFieldStrength": 3,
  "Manufacturer": "Siemens",
  "ManufacturersModelName": "Prisma",
  "Modality": "MR",
  "MultibandAccelerationFactor": 3,
  "PartialFourier": 0.75,
  "PatientPosition": "HFS",
  "PercentPhaseFOV": 100,
  "PercentSampling": 75,
  "PhaseEncodingDirection": "j-",
  "PhaseEncodingSteps": 58,
  "PhaseOversampling": 0.05,
  "PhaseResolution": 0.75,
  "PixelBandwidth": 2265,
  "ProcedureStepDescription": "White^Word_recognition",
  "ProtocolName": "func_vwfate_run7",
  "PulseSequenceDetails": "%SiemensSeq%\\ep2d_bold",
  "ReceiveCoilActiveElements": "HC1-7",
  "ReceiveCoilName": "HeadNeck_64",
  "ReconMatrixPE": 96,
  "RefLinesPE": 40,
  "RepetitionTime": 1.5,
  "SAR": 0.0512901,
  "ScanOptions": "PFP\\FS",
  "ScanningSequence": "EP",
  "SequenceName": "*epfid2d1_72",
  "SequenceVariant": "SK\\OSP",
  "SeriesDescription": "func_vwfate_run7",
  "SeriesNumber": 8,
  "ShimSetting": [-1157, -1368, 701, 654, -59, 103, -130, -39],
  "SliceThickness": 2,
  "SliceTiming": [1.0775, 0, 0.74, 0.0675, 0.8075, 0.135, 0.875, 0.2025, 0.9425, 0.27, 1.01, 0.405, 1.145, 0.4725, 1.2125, 0.54, 1.28, 0.6075, 1.3475, 0.675, 1.4125, 0.3375, 1.0775, 0, 0.74, 0.0675, 0.8075, 0.135, 0.875, 0.2025, 0.9425, 0.27, 1.01, 0.405, 1.145, 0.4725, 1.2125, 0.54, 1.28, 0.6075, 1.3475, 0.675, 1.4125, 0.3375, 1.0775, 0, 0.74, 0.0675, 0.8075, 0.135, 0.875, 0.2025, 0.9425, 0.27, 1.01, 0.405, 1.145, 0.4725, 1.2125, 0.54, 1.28, 0.6075, 1.3475, 0.675, 1.4125, 0.3375],
  "SoftwareVersions": "syngo MR E11",
  "SpacingBetweenSlices": 2,
  "StationName": "AWP166011",
  "TaskName": "vwfate",
  "TotalReadoutTime": 0.0551515,
  "TxRefAmp": 209.133,
  "dcmmeta_affine": [
    [-1.9964131116867065, -0.05402142181992531, -0.10684828460216522, 105.07388305664062],
    [-0.04259692505002022, 1.9885427951812744, -0.20948255062103271, -67.01344299316406],
    [-0.11189446598291397, 0.20683114230632782, 1.9861270189285278, -52.65542984008789],
    [0.0, 0.0, 0.0, 1.0]
],
  "dcmmeta_reorient_transform": [
    [0.0, -1.0, 0.0, 95.0],
    [1.0, 0.0, 0.0, 0.0],
    [0.0, 0.0, 1.0, 0.0],
    [0.0, 0.0, 0.0, 1.0]
],
  "dcmmeta_shape": [96, 96, 66, 164],
  "dcmmeta_slice_dim": 2,
  "dcmmeta_version": 0.6,
  "global": {
    "const": {
      "AcquisitionMatrix": [96, 0, 0, 72],
      "AngioFlag": "N",
      "BitsAllocated": 16,
      "BitsStored": 12,
      "BodyPartExamined": "BRAIN",
      "Columns": 864,
      "EchoNumbers": 1,
      "EchoTime": 30.0,
      "EchoTrainLength": 58,
      "FlipAngle": 62.0,
      "HighBit": 11,
      "ImageOrientationPatient": [0.99820653295909, 0.02129846262214, -0.0559472344958, -0.0270107105277, 0.99427141224157, -0.103415570955],
      "ImagePositionPatient": [-845.82023947368, -901.85578946953, 89.384162243274],
      "ImageType": [
        "ORIGINAL",
        "PRIMARY",
        "M",
        "ND",
        "MOSAIC"
],
      "ImagedNucleus": "1H",
      "ImagingFrequency": 123.259436,
      "InPlanePhaseEncodingDirection": "COL",
      "MRAcquisitionType": "2D",
      "MagneticFieldStrength": 3.0,
      "Manufacturer": "SIEMENS",
      "ManufacturerModelName": "Prisma",
      "Modality": "MR",
      "NumberOfAverages": 1.0,
      "NumberOfPhaseEncodingSteps": 58,
      "PercentPhaseFieldOfView": 100.0,
      "PercentSampling": 75.0,
      "PerformedProcedureStepStartTime": "173414.696000",
      "PhotometricInterpretation": "MONOCHROME2",
      "PixelBandwidth": 2265.0,
      "PixelRepresentation": 0,
      "PixelSpacing": [2.0, 2.0],
      "ProtocolName": "func_vwfate_run7",
      "RepetitionTime": 1500.0,
      "Rows": 864,
      "SAR": 0.05129013717255,
      "SamplesPerPixel": 1,
      "ScanOptions": [
        "PFP",
        "FS"
],
      "ScanningSequence": "EP",
      "SequenceName": "*epfid2d1_72",
      "SequenceVariant": [
        "SK",
        "OSP"
],
      "SeriesDescription": "func_vwfate_run7",
      "SeriesNumber": 8,
      "SeriesTime": "175313.299000",
      "SliceLocation": -50.884595589763,
      "SliceThickness": 2.0,
      "SmallestImagePixelValue": 0,
      "SoftwareVersions": "syngo MR E11",
      "SpacingBetweenSlices": 1.9999999895615,
      "SpecificCharacterSet": "ISO_IR 100",
      "StudyID": "2",
      "StudyTime": "173414.657000",
      "TransmitCoilName": "Body",
      "VariableFlipAngleFlag": "N",
      "WindowCenterWidthExplanation": "Algo1",
      "dBdt": 0.0},
    "slices": {}
  },
  "time": {
    "samples": {
      "AcquisitionNumber": [1, 2, 3, 4, 5, 6, 7, 8, 9, 10, 11, 12, 13, 14, 15, 16, 17, 18, 19, 20, 21, 22, 23, 24, 25, 26, 27, 28, 29, 30, 31, 32, 33, 34, 35, 36, 37, 38, 39, 40, 41, 42, 43, 44, 45, 46, 47, 48, 49, 50, 51, 52, 53, 54, 55, 56, 57, 58, 59, 60, 61, 62, 63, 64, 65, 66, 67, 68, 69, 70, 71, 72, 73, 74, 75, 76, 77, 78, 79, 80, 81, 82, 83, 84, 85, 86, 87, 88, 89, 90, 91, 92, 93, 94, 95, 96, 97, 98, 99, 100, 101, 102, 103, 104, 105, 106, 107, 108, 109, 110, 111, 112, 113, 114, 115, 116, 117, 118, 119, 120, 121, 122, 123, 124, 125, 126, 127, 128, 129, 130, 131, 132, 133, 134, 135, 136, 137, 138, 139, 140, 141, 142, 143, 144, 145, 146, 147, 148, 149, 150, 151, 152, 153, 154, 155, 156, 157, 158, 159, 160, 161, 162, 163, 164],
      "AcquisitionTime": ["175233.917500", "175235.417500", "175236.917500", "175238.417500", "175239.917500", "175241.417500", "175242.917500", "175244.417500", "175245.917500", "175247.417500", "175248.917500", "175250.417500", "175251.917500", "175253.417500", "175254.917500", "175256.417500", "175257.917500", "175259.417500", "175300.917500", "175302.417500", "175303.917500", "175305.417500", "175306.917500", "175308.417500", "175309.917500", "175311.417500", "175312.917500", "175314.417500", "175315.917500", "175317.417500", "175318.917500", "175320.417500", "175321.917500", "175323.417500", "175324.917500", "175326.417500", "175327.917500", "175329.417500", "175330.917500", "175332.417500", "175333.917500", "175335.417500", "175336.917500", "175338.417500", "175339.917500", "175341.417500", "175342.917500", "175344.417500", "175345.917500", "175347.417500", "175348.917500", "175350.417500", "175351.917500", "175353.417500", "175354.917500", "175356.417500", "175357.917500", "175359.417500", "175400.917500", "175402.417500", "175403.917500", "175405.417500", "175406.917500", "175408.417500", "175409.917500", "175411.417500", "175412.917500", "175414.417500", "175415.917500", "175417.417500", "175418.917500", "175420.417500", "175421.917500", "175423.417500", "175424.917500", "175426.417500", "175427.917500", "175429.417500", "175430.917500", "175432.417500", "175433.917500", "175435.417500", "175436.917500", "175438.417500", "175439.917500", "175441.417500", "175442.917500", "175444.417500", "175445.917500", "175447.417500", "175448.917500", "175450.417500", "175451.917500", "175453.417500", "175454.917500", "175456.417500", "175457.917500", "175459.417500", "175500.917500", "175502.417500", "175503.917500", "175505.417500", "175506.917500", "175508.417500", "175509.917500", "175511.417500", "175512.917500", "175514.417500", "175515.917500", "175517.417500", "175518.917500", "175520.417500", "175521.917500", "175523.417500", "175524.917500", "175526.417500", "175527.917500", "175529.417500", "175530.917500", "175532.417500", "175533.917500", "175535.417500", "175536.917500", "175538.417500", "175539.917500", "175541.417500", "175542.917500", "175544.417500", "175545.917500", "175547.417500", "175548.917500", "175550.417500", "175551.917500", "175553.417500", "175554.917500", "175556.417500", "175557.917500", "175559.417500", "175600.917500", "175602.417500", "175603.917500", "175605.417500", "175606.917500", "175608.417500", "175609.917500", "175611.417500", "175612.917500", "175614.417500", "175615.917500", "175617.417500", "175618.917500", "175620.417500", "175621.917500", "175623.417500", "175624.917500", "175626.417500", "175627.917500", "175629.417500", "175630.917500", "175632.417500", "175633.917500", "175635.417500", "175636.917500", "175638.417500"],
      "ContentTime": ["175313.303000", "175313.307000", "175313.310000", "175313.321000", "175313.324000", "175313.327000", "175313.332000", "175313.335000", "175313.339000", "175313.341000", "175313.344000", "175313.347000", "175313.351000", "175313.354000", "175313.357000", "175313.362000", "175313.365000", "175313.368000", "175313.371000", "175313.374000", "175313.377000", "175313.380000", "175313.383000", "175313.386000", "175313.389000", "175313.392000", "175353.298000", "175353.301000", "175353.304000", "175353.307000", "175353.310000", "175353.313000", "175353.316000", "175353.319000", "175353.322000", "175353.325000", "175353.328000", "175353.331000", "175353.334000", "175353.337000", "175353.340000", "175353.343000", "175353.346000", "175353.349000", "175353.355000", "175353.358000", "175353.361000", "175353.364000", "175353.367000", "175353.370000", "175353.373000", "175353.376000", "175353.379000", "175433.300000", "175433.304000", "175433.307000", "175433.310000", "175433.314000", "175433.317000", "175433.320000", "175433.323000", "175433.326000", "175433.329000", "175433.334000", "175433.337000", "175433.341000", "175433.346000", "175433.350000", "175433.353000", "175433.357000", "175433.362000", "175433.366000", "175433.370000", "175433.374000", "175433.377000", "175433.380000", "175433.383000", "175433.387000", "175433.391000", "175513.298000", "175513.301000", "175513.304000", "175513.307000", "175513.310000", "175513.313000", "175513.316000", "175513.319000", "175513.323000", "175513.325000", "175513.328000", "175513.332000", "175513.335000", "175513.338000", "175513.341000", "175513.344000", "175513.347000", "175513.350000", "175513.353000", "175513.356000", "175513.359000", "175513.362000", "175513.365000", "175513.368000", "175513.371000", "175513.374000", "175513.377000", "175553.298000", "175553.301000", "175553.304000", "175553.308000", "175553.311000", "175553.314000", "175553.316000", "175553.320000", "175553.323000", "175553.326000", "175553.329000", "175553.332000", "175553.335000", "175553.338000", "175553.341000", "175553.344000", "175553.347000", "175553.350000", "175553.353000", "175553.361000", "175553.372000", "175553.375000", "175553.378000", "175553.381000", "175553.384000", "175553.387000", "175553.390000", "175633.298000", "175633.301000", "175633.304000", "175633.307000", "175633.310000", "175633.313000", "175633.316000", "175633.319000", "175633.323000", "175633.326000", "175633.328000", "175633.331000", "175633.335000", "175633.338000", "175633.341000", "175633.344000", "175633.347000", "175633.350000", "175633.353000", "175633.356000", "175633.359000", "175633.362000", "175633.364000", "175633.367000", "175633.371000", "175633.374000", "175639.663000", "175639.667000", "175639.670000", "175639.673000", "175639.677000"],
      "InstanceCreationTime": ["175313.303000", "175313.307000", "175313.310000", "175313.321000", "175313.324000", "175313.327000", "175313.332000", "175313.335000", "175313.339000", "175313.341000", "175313.344000", "175313.347000", "175313.351000", "175313.354000", "175313.357000", "175313.362000", "175313.365000", "175313.368000", "175313.371000", "175313.374000", "175313.377000", "175313.380000", "175313.383000", "175313.386000", "175313.389000", "175313.392000", "175353.298000", "175353.301000", "175353.304000", "175353.307000", "175353.310000", "175353.313000", "175353.316000", "175353.319000", "175353.322000", "175353.325000", "175353.328000", "175353.331000", "175353.334000", "175353.337000", "175353.340000", "175353.343000", "175353.346000", "175353.349000", "175353.355000", "175353.358000", "175353.361000", "175353.364000", "175353.367000", "175353.370000", "175353.373000", "175353.376000", "175353.379000", "175433.300000", "175433.304000", "175433.307000", "175433.310000", "175433.314000", "175433.317000", "175433.320000", "175433.323000", "175433.326000", "175433.329000", "175433.334000", "175433.337000", "175433.341000", "175433.346000", "175433.350000", "175433.353000", "175433.357000", "175433.362000", "175433.366000", "175433.370000", "175433.374000", "175433.377000", "175433.380000", "175433.383000", "175433.387000", "175433.391000", "175513.298000", "175513.301000", "175513.304000", "175513.307000", "175513.310000", "175513.313000", "175513.316000", "175513.319000", "175513.323000", "175513.325000", "175513.328000", "175513.332000", "175513.335000", "175513.338000", "175513.341000", "175513.344000", "175513.347000", "175513.350000", "175513.353000", "175513.356000", "175513.359000", "175513.362000", "175513.365000", "175513.368000", "175513.371000", "175513.374000", "175513.377000", "175553.298000", "175553.301000", "175553.304000", "175553.308000", "175553.311000", "175553.314000", "175553.316000", "175553.320000", "175553.323000", "175553.326000", "175553.329000", "175553.332000", "175553.335000", "175553.338000", "175553.341000", "175553.344000", "175553.347000", "175553.350000", "175553.353000", "175553.361000", "175553.372000", "175553.375000", "175553.378000", "175553.381000", "175553.384000", "175553.387000", "175553.390000", "175633.298000", "175633.301000", "175633.304000", "175633.307000", "175633.310000", "175633.313000", "175633.316000", "175633.319000", "175633.323000", "175633.326000", "175633.328000", "175633.331000", "175633.335000", "175633.338000", "175633.341000", "175633.344000", "175633.347000", "175633.350000", "175633.353000", "175633.356000", "175633.359000", "175633.362000", "175633.364000", "175633.367000", "175633.371000", "175633.374000", "175639.663000", "175639.667000", "175639.670000", "175639.673000", "175639.677000"],
      "InstanceNumber": [1, 2, 3, 4, 5, 6, 7, 8, 9, 10, 11, 12, 13, 14, 15, 16, 17, 18, 19, 20, 21, 22, 23, 24, 25, 26, 27, 28, 29, 30, 31, 32, 33, 34, 35, 36, 37, 38, 39, 40, 41, 42, 43, 44, 45, 46, 47, 48, 49, 50, 51, 52, 53, 54, 55, 56, 57, 58, 59, 60, 61, 62, 63, 64, 65, 66, 67, 68, 69, 70, 71, 72, 73, 74, 75, 76, 77, 78, 79, 80, 81, 82, 83, 84, 85, 86, 87, 88, 89, 90, 91, 92, 93, 94, 95, 96, 97, 98, 99, 100, 101, 102, 103, 104, 105, 106, 107, 108, 109, 110, 111, 112, 113, 114, 115, 116, 117, 118, 119, 120, 121, 122, 123, 124, 125, 126, 127, 128, 129, 130, 131, 132, 133, 134, 135, 136, 137, 138, 139, 140, 141, 142, 143, 144, 145, 146, 147, 148, 149, 150, 151, 152, 153, 154, 155, 156, 157, 158, 159, 160, 161, 162, 163, 164],
      "LargestImagePixelValue": [2277, 2200, 2182, 2193, 2204, 2174, 2183, 2160, 2189, 2169, 2129, 2142, 2120, 2107, 2124, 2122, 2099, 2125, 2151, 2152, 2148, 2125, 2136, 2132, 2135, 2121, 2139, 2186, 2214, 2224, 2222, 2179, 2153, 2205, 2219, 2219, 2210, 2196, 2216, 2224, 2192, 2232, 2209, 2174, 2147, 2140, 2158, 2165, 2190, 2210, 2257, 2236, 2311, 2303, 2289, 2280, 2273, 2192, 2239, 2189, 2187, 2154, 2127, 2141, 2148, 2134, 2133, 2141, 2177, 2232, 2262, 2292, 2316, 2254, 2243, 2238, 2195, 2159, 2186, 2164, 2235, 2260, 2275, 2327, 2326, 2347, 2312, 2354, 2363, 2367, 2358, 2367, 2367, 2354, 2314, 2297, 2248, 2330, 2337, 2296, 2251, 2255, 2213, 2230, 2269, 2230, 2261, 2225, 2232, 2299, 2330, 2315, 2210, 2161, 2181, 2212, 2229, 2215, 2241, 2240, 2245, 2262, 2224, 2248, 2292, 2257, 2278, 2263, 2245, 2232, 2193, 2243, 2206, 2210, 2228, 2195, 2209, 2244, 2243, 2257, 2248, 2235, 2282, 2283, 2293, 2350, 2328, 2328, 2289, 2237, 2246, 2259, 2261, 2215, 2195, 2238, 2220, 2240, 2193, 2185, 2170, 2127, 2145, 2145],
      "WindowCenter": [714.0, 712.0, 713.0, 714.0, 714.0, 713.0, 712.0, 711.0, 713.0, 712.0, 711.0, 711.0, 710.0, 708.0, 708.0, 708.0, 709.0, 709.0, 708.0, 709.0, 707.0, 707.0, 708.0, 708.0, 708.0, 709.0, 710.0, 711.0, 712.0, 711.0, 711.0, 711.0, 711.0, 711.0, 712.0, 711.0, 712.0, 712.0, 712.0, 711.0, 711.0, 711.0, 711.0, 710.0, 709.0, 710.0, 710.0, 710.0, 711.0, 713.0, 713.0, 713.0, 714.0, 714.0, 714.0, 713.0, 713.0, 711.0, 711.0, 710.0, 710.0, 709.0, 708.0, 709.0, 709.0, 708.0, 710.0, 711.0, 712.0, 712.0, 713.0, 713.0, 712.0, 712.0, 713.0, 712.0, 711.0, 710.0, 711.0, 711.0, 712.0, 713.0, 713.0, 714.0, 715.0, 715.0, 715.0, 715.0, 715.0, 715.0, 714.0, 714.0, 714.0, 714.0, 714.0, 713.0, 713.0, 714.0, 714.0, 713.0, 712.0, 711.0, 711.0, 711.0, 711.0, 711.0, 711.0, 710.0, 712.0, 713.0, 713.0, 712.0, 710.0, 710.0, 711.0, 711.0, 712.0, 712.0, 712.0, 712.0, 711.0, 710.0, 710.0, 711.0, 711.0, 712.0, 712.0, 712.0, 712.0, 712.0, 711.0, 711.0, 711.0, 711.0, 711.0, 710.0, 710.0, 710.0, 711.0, 711.0, 712.0, 712.0, 712.0, 713.0, 713.0, 714.0, 713.0, 712.0, 711.0, 711.0, 712.0, 712.0, 712.0, 712.0, 712.0, 713.0, 713.0, 711.0, 710.0, 709.0, 708.0, 708.0, 708.0, 708.0],
      "WindowWidth": [1539.0, 1534.0, 1536.0, 1538.0, 1540.0, 1537.0, 1534.0, 1533.0, 1538.0, 1535.0, 1532.0, 1530.0, 1527.0, 1523.0, 1522.0, 1524.0, 1526.0, 1526.0, 1524.0, 1525.0, 1521.0, 1521.0, 1523.0, 1523.0, 1524.0, 1526.0, 1530.0, 1532.0, 1533.0, 1532.0, 1530.0, 1530.0, 1530.0, 1532.0, 1533.0, 1532.0, 1533.0, 1533.0, 1534.0, 1532.0, 1531.0, 1532.0, 1531.0, 1529.0, 1527.0, 1528.0, 1529.0, 1530.0, 1533.0, 1536.0, 1537.0, 1538.0, 1540.0, 1539.0, 1538.0, 1537.0, 1536.0, 1531.0, 1530.0, 1529.0, 1528.0, 1525.0, 1524.0, 1526.0, 1525.0, 1524.0, 1528.0, 1530.0, 1533.0, 1535.0, 1536.0, 1536.0, 1533.0, 1534.0, 1535.0, 1534.0, 1532.0, 1530.0, 1531.0, 1531.0, 1535.0, 1535.0, 1538.0, 1539.0, 1541.0, 1542.0, 1542.0, 1543.0, 1543.0, 1541.0, 1540.0, 1540.0, 1540.0, 1540.0, 1538.0, 1535.0, 1536.0, 1540.0, 1539.0, 1537.0, 1533.0, 1531.0, 1531.0, 1531.0, 1532.0, 1532.0, 1530.0, 1529.0, 1534.0, 1537.0, 1538.0, 1533.0, 1529.0, 1528.0, 1530.0, 1532.0, 1534.0, 1535.0, 1535.0, 1532.0, 1530.0, 1530.0, 1529.0, 1531.0, 1532.0, 1533.0, 1534.0, 1535.0, 1533.0, 1533.0, 1531.0, 1532.0, 1531.0, 1532.0, 1531.0, 1529.0, 1529.0, 1530.0, 1531.0, 1532.0, 1533.0, 1534.0, 1534.0, 1536.0, 1536.0, 1538.0, 1537.0, 1535.0, 1532.0, 1531.0, 1533.0, 1533.0, 1533.0, 1534.0, 1534.0, 1536.0, 1535.0, 1531.0, 1528.0, 1526.0, 1524.0, 1524.0, 1524.0, 1523.0]
    },
    "slices": {}
  }
}