{
  "AcquisitionMatrixPE": 72,
  "AcquisitionNumber": 1,
  "AcquisitionTime": "18:17:40.670000",
  "BandwidthPerPixelPhaseEncode": 17.943,
  "BaseResolution": 96,
  "BodyPartExamined": "BRAIN",
  "CoilCombinationMethod": "Sum of Squares",
  "ConsistencyInfo": "N4_VE11C_LATEST_20160120",
  "ConversionSoftware": "dcm2niix",
  "ConversionSoftwareVersion": "v1.0.20211006",
  "DerivedVendorReportedEchoSpacing": 0.000552897,
  "DeviceSerialNumber": "166011",
  "EchoTime": 0.03,
  "EchoTrainLength": 58,
  "EffectiveEchoSpacing": 0.000580542,
  "FlipAngle": 62,
  "ImageOrientationPatientDICOM": [0.998207, 0.0212985, -0.0559472, -0.0270107, 0.994271, -0.103416],
  "ImageType": [
    "ORIGINAL",
    "PRIMARY",
    "M",
    "ND",
    "MOSAIC"
],
  "ImagingFrequency": 123.259,
  "InPlanePhaseEncodingDirectionDICOM": "COL",
  "InstitutionAddress": "West 130th Street 610,NY,NYC,US,10025",
  "InstitutionName": "MBBI",
  "MRAcquisitionType": "2D",
  "MagneticFieldStrength": 3,
  "Manufacturer": "Siemens",
  "ManufacturersModelName": "Prisma",
  "Modality": "MR",
  "MultibandAccelerationFactor": 3,
  "PartialFourier": 0.75,
  "PatientPosition": "HFS",
  "PercentPhaseFOV": 100,
  "PercentSampling": 75,
  "PhaseEncodingDirection": "j-",
  "PhaseEncodingSteps": 58,
  "PhaseOversampling": 0.05,
  "PhaseResolution": 0.75,
  "PixelBandwidth": 2265,
  "ProcedureStepDescription": "White^Word_recognition",
  "ProtocolName": "func_vwfate_run10",
  "PulseSequenceDetails": "%SiemensSeq%\\ep2d_bold",
  "ReceiveCoilActiveElements": "HC1-7",
  "ReceiveCoilName": "HeadNeck_64",
  "ReconMatrixPE": 96,
  "RefLinesPE": 40,
  "RepetitionTime": 1.5,
  "SAR": 0.0512901,
  "ScanOptions": "PFP\\FS",
  "ScanningSequence": "EP",
  "SequenceName": "*epfid2d1_72",
  "SequenceVariant": "SK\\OSP",
  "SeriesDescription": "func_vwfate_run10",
  "SeriesNumber": 12,
  "ShimSetting": [-1157, -1368, 701, 654, -59, 103, -130, -39],
  "SliceThickness": 2,
  "SliceTiming": [1.0775, 0, 0.74, 0.0675, 0.8075, 0.135, 0.875, 0.2025, 0.9425, 0.27, 1.01, 0.405, 1.145, 0.4725, 1.2125, 0.5375, 1.2775, 0.605, 1.345, 0.6725, 1.4125, 0.3375, 1.0775, 0, 0.74, 0.0675, 0.8075, 0.135, 0.875, 0.2025, 0.9425, 0.27, 1.01, 0.405, 1.145, 0.4725, 1.2125, 0.5375, 1.2775, 0.605, 1.345, 0.6725, 1.4125, 0.3375, 1.0775, 0, 0.74, 0.0675, 0.8075, 0.135, 0.875, 0.2025, 0.9425, 0.27, 1.01, 0.405, 1.145, 0.4725, 1.2125, 0.5375, 1.2775, 0.605, 1.345, 0.6725, 1.4125, 0.3375],
  "SoftwareVersions": "syngo MR E11",
  "SpacingBetweenSlices": 2,
  "StationName": "AWP166011",
  "TaskName": "vwfate",
  "TotalReadoutTime": 0.0551515,
  "TxRefAmp": 209.133,
  "dcmmeta_affine": [
    [-1.9964131116867065, -0.05402142181992531, -0.10684828460216522, 105.07388305664062],
    [-0.04259692505002022, 1.9885427951812744, -0.20948255062103271, -67.01344299316406],
    [-0.11189446598291397, 0.20683114230632782, 1.9861270189285278, -52.65542984008789],
    [0.0, 0.0, 0.0, 1.0]
],
  "dcmmeta_reorient_transform": [
    [0.0, -1.0, 0.0, 95.0],
    [1.0, 0.0, 0.0, 0.0],
    [0.0, 0.0, 1.0, 0.0],
    [0.0, 0.0, 0.0, 1.0]
],
  "dcmmeta_shape": [96, 96, 66, 164],
  "dcmmeta_slice_dim": 2,
  "dcmmeta_version": 0.6,
  "global": {
    "const": {
      "AcquisitionMatrix": [96, 0, 0, 72],
      "AngioFlag": "N",
      "BitsAllocated": 16,
      "BitsStored": 12,
      "BodyPartExamined": "BRAIN",
      "Columns": 864,
      "EchoNumbers": 1,
      "EchoTime": 30.0,
      "EchoTrainLength": 58,
      "FlipAngle": 62.0,
      "HighBit": 11,
      "ImageOrientationPatient": [0.99820653295909, 0.02129846262214, -0.0559472344958, -0.0270107105277, 0.99427141224157, -0.103415570955],
      "ImagePositionPatient": [-845.82023947368, -901.85578946953, 89.384162243274],
      "ImageType": [
        "ORIGINAL",
        "PRIMARY",
        "M",
        "ND",
        "MOSAIC"
],
      "ImagedNucleus": "1H",
      "ImagingFrequency": 123.259445,
      "InPlanePhaseEncodingDirection": "COL",
      "MRAcquisitionType": "2D",
      "MagneticFieldStrength": 3.0,
      "Manufacturer": "SIEMENS",
      "ManufacturerModelName": "Prisma",
      "Modality": "MR",
      "NumberOfAverages": 1.0,
      "NumberOfPhaseEncodingSteps": 58,
      "PercentPhaseFieldOfView": 100.0,
      "PercentSampling": 75.0,
      "PerformedProcedureStepStartTime": "173414.696000",
      "PhotometricInterpretation": "MONOCHROME2",
      "PixelBandwidth": 2265.0,
      "PixelRepresentation": 0,
      "PixelSpacing": [2.0, 2.0],
      "ProtocolName": "func_vwfate_run10",
      "RepetitionTime": 1500.0,
      "Rows": 864,
      "SAR": 0.05129013717255,
      "SamplesPerPixel": 1,
      "ScanOptions": [
        "PFP",
        "FS"
],
      "ScanningSequence": "EP",
      "SequenceName": "*epfid2d1_72",
      "SequenceVariant": [
        "SK",
        "OSP"
],
      "SeriesDescription": "func_vwfate_run10",
      "SeriesNumber": 12,
      "SeriesTime": "181823.636000",
      "SliceLocation": -50.884595589763,
      "SliceThickness": 2.0,
      "SmallestImagePixelValue": 0,
      "SoftwareVersions": "syngo MR E11",
      "SpacingBetweenSlices": 1.9999999895615,
      "SpecificCharacterSet": "ISO_IR 100",
      "StudyID": "2",
      "StudyTime": "173414.657000",
      "TransmitCoilName": "Body",
      "VariableFlipAngleFlag": "N",
      "WindowCenterWidthExplanation": "Algo1",
      "dBdt": 0.0},
    "slices": {}
  },
  "time": {
    "samples": {
      "AcquisitionNumber": [1, 2, 3, 4, 5, 6, 7, 8, 9, 10, 11, 12, 13, 14, 15, 16, 17, 18, 19, 20, 21, 22, 23, 24, 25, 26, 27, 28, 29, 30, 31, 32, 33, 34, 35, 36, 37, 38, 39, 40, 41, 42, 43, 44, 45, 46, 47, 48, 49, 50, 51, 52, 53, 54, 55, 56, 57, 58, 59, 60, 61, 62, 63, 64, 65, 66, 67, 68, 69, 70, 71, 72, 73, 74, 75, 76, 77, 78, 79, 80, 81, 82, 83, 84, 85, 86, 87, 88, 89, 90, 91, 92, 93, 94, 95, 96, 97, 98, 99, 100, 101, 102, 103, 104, 105, 106, 107, 108, 109, 110, 111, 112, 113, 114, 115, 116, 117, 118, 119, 120, 121, 122, 123, 124, 125, 126, 127, 128, 129, 130, 131, 132, 133, 134, 135, 136, 137, 138, 139, 140, 141, 142, 143, 144, 145, 146, 147, 148, 149, 150, 151, 152, 153, 154, 155, 156, 157, 158, 159, 160, 161, 162, 163, 164],
      "AcquisitionTime": ["181740.670000", "181742.170000", "181743.670000", "181745.170000", "181746.670000", "181748.170000", "181749.670000", "181751.170000", "181752.670000", "181754.170000", "181755.670000", "181757.170000", "181758.670000", "181800.170000", "181801.670000", "181803.170000", "181804.670000", "181806.170000", "181807.670000", "181809.170000", "181810.670000", "181812.170000", "181813.670000", "181815.170000", "181816.670000", "181818.170000", "181819.670000", "181821.170000", "181822.670000", "181824.170000", "181825.670000", "181827.170000", "181828.670000", "181830.170000", "181831.670000", "181833.170000", "181834.670000", "181836.170000", "181837.670000", "181839.170000", "181840.670000", "181842.170000", "181843.670000", "181845.170000", "181846.670000", "181848.170000", "181849.670000", "181851.170000", "181852.670000", "181854.170000", "181855.670000", "181857.170000", "181858.670000", "181900.170000", "181901.670000", "181903.170000", "181904.670000", "181906.170000", "181907.670000", "181909.170000", "181910.670000", "181912.170000", "181913.670000", "181915.170000", "181916.670000", "181918.170000", "181919.670000", "181921.170000", "181922.670000", "181924.170000", "181925.670000", "181927.170000", "181928.670000", "181930.170000", "181931.670000", "181933.170000", "181934.670000", "181936.170000", "181937.670000", "181939.170000", "181940.670000", "181942.170000", "181943.670000", "181945.170000", "181946.670000", "181948.170000", "181949.670000", "181951.170000", "181952.670000", "181954.170000", "181955.670000", "181957.170000", "181958.670000", "182000.170000", "182001.670000", "182003.170000", "182004.670000", "182006.170000", "182007.670000", "182009.170000", "182010.670000", "182012.170000", "182013.670000", "182015.170000", "182016.670000", "182018.170000", "182019.670000", "182021.170000", "182022.670000", "182024.170000", "182025.670000", "182027.170000", "182028.670000", "182030.170000", "182031.670000", "182033.170000", "182034.670000", "182036.170000", "182037.670000", "182039.170000", "182040.670000", "182042.170000", "182043.670000", "182045.170000", "182046.670000", "182048.170000", "182049.670000", "182051.170000", "182052.670000", "182054.170000", "182055.670000", "182057.170000", "182058.670000", "182100.170000", "182101.670000", "182103.170000", "182104.670000", "182106.170000", "182107.670000", "182109.170000", "182110.670000", "182112.170000", "182113.670000", "182115.170000", "182116.670000", "182118.170000", "182119.670000", "182121.170000", "182122.670000", "182124.170000", "182125.670000", "182127.170000", "182128.670000", "182130.170000", "182131.670000", "182133.170000", "182134.670000", "182136.170000", "182137.670000", "182139.170000", "182140.670000", "182142.170000", "182143.670000", "182145.170000"],
      "ContentTime": ["181823.640000", "181823.644000", "181823.647000", "181823.650000", "181823.653000", "181823.656000", "181823.659000", "181823.662000", "181823.665000", "181823.668000", "181823.678000", "181823.681000", "181823.684000", "181823.687000", "181823.690000", "181823.693000", "181823.696000", "181823.699000", "181823.702000", "181823.705000", "181823.712000", "181823.715000", "181823.718000", "181823.721000", "181823.724000", "181823.727000", "181823.731000", "181823.734000", "181903.635000", "181903.638000", "181903.641000", "181903.644000", "181903.647000", "181903.650000", "181903.653000", "181903.656000", "181903.659000", "181903.662000", "181903.665000", "181903.668000", "181903.671000", "181903.674000", "181903.677000", "181903.680000", "181903.683000", "181903.686000", "181903.692000", "181903.695000", "181903.698000", "181903.701000", "181903.704000", "181903.707000", "181903.710000", "181903.713000", "181903.716000", "181943.634000", "181943.637000", "181943.640000", "181943.643000", "181943.646000", "181943.649000", "181943.652000", "181943.655000", "181943.658000", "181943.661000", "181943.664000", "181943.667000", "181943.670000", "181943.673000", "181943.676000", "181943.679000", "181943.682000", "181943.695000", "181943.698000", "181943.701000", "181943.704000", "181943.707000", "181943.710000", "181943.713000", "181943.716000", "181943.719000", "182023.634000", "182023.637000", "182023.640000", "182023.643000", "182023.646000", "182023.649000", "182023.652000", "182023.655000", "182023.658000", "182023.662000", "182023.665000", "182023.667000", "182023.671000", "182023.674000", "182023.677000", "182023.680000", "182023.683000", "182023.686000", "182023.689000", "182023.692000", "182023.695000", "182023.698000", "182023.701000", "182023.704000", "182023.707000", "182023.710000", "182023.713000", "182043.635000", "182043.638000", "182043.641000", "182043.644000", "182043.647000", "182043.651000", "182043.654000", "182043.657000", "182043.660000", "182043.663000", "182043.666000", "182043.669000", "182043.672000", "182123.634000", "182123.637000", "182123.640000", "182123.643000", "182123.646000", "182123.649000", "182123.652000", "182123.655000", "182123.658000", "182123.661000", "182123.664000", "182123.667000", "182123.670000", "182123.673000", "182123.676000", "182123.679000", "182123.682000", "182123.685000", "182123.688000", "182123.691000", "182123.694000", "182123.697000", "182123.700000", "182123.703000", "182123.706000", "182123.709000", "182123.712000", "182146.771000", "182146.790000", "182146.793000", "182146.797000", "182146.800000", "182146.804000", "182146.807000", "182146.810000", "182146.814000", "182146.818000", "182146.821000", "182146.824000", "182146.827000", "182146.830000", "182146.834000", "182146.837000"],
      "InstanceCreationTime": ["181823.640000", "181823.644000", "181823.647000", "181823.650000", "181823.653000", "181823.656000", "181823.659000", "181823.662000", "181823.665000", "181823.668000", "181823.678000", "181823.681000", "181823.684000", "181823.687000", "181823.690000", "181823.693000", "181823.696000", "181823.699000", "181823.702000", "181823.705000", "181823.712000", "181823.715000", "181823.718000", "181823.721000", "181823.724000", "181823.727000", "181823.731000", "181823.734000", "181903.635000", "181903.638000", "181903.641000", "181903.644000", "181903.647000", "181903.650000", "181903.653000", "181903.656000", "181903.659000", "181903.662000", "181903.665000", "181903.668000", "181903.671000", "181903.674000", "181903.677000", "181903.680000", "181903.683000", "181903.686000", "181903.692000", "181903.695000", "181903.698000", "181903.701000", "181903.704000", "181903.707000", "181903.710000", "181903.713000", "181903.716000", "181943.634000", "181943.637000", "181943.640000", "181943.643000", "181943.646000", "181943.649000", "181943.652000", "181943.655000", "181943.658000", "181943.661000", "181943.664000", "181943.667000", "181943.670000", "181943.673000", "181943.676000", "181943.679000", "181943.682000", "181943.695000", "181943.698000", "181943.701000", "181943.704000", "181943.707000", "181943.710000", "181943.713000", "181943.716000", "181943.719000", "182023.634000", "182023.637000", "182023.640000", "182023.643000", "182023.646000", "182023.649000", "182023.652000", "182023.655000", "182023.658000", "182023.662000", "182023.665000", "182023.667000", "182023.671000", "182023.674000", "182023.677000", "182023.680000", "182023.683000", "182023.686000", "182023.689000", "182023.692000", "182023.695000", "182023.698000", "182023.701000", "182023.704000", "182023.707000", "182023.710000", "182023.713000", "182043.635000", "182043.638000", "182043.641000", "182043.644000", "182043.647000", "182043.651000", "182043.654000", "182043.657000", "182043.660000", "182043.663000", "182043.666000", "182043.669000", "182043.672000", "182123.634000", "182123.637000", "182123.640000", "182123.643000", "182123.646000", "182123.649000", "182123.652000", "182123.655000", "182123.658000", "182123.661000", "182123.664000", "182123.667000", "182123.670000", "182123.673000", "182123.676000", "182123.679000", "182123.682000", "182123.685000", "182123.688000", "182123.691000", "182123.694000", "182123.697000", "182123.700000", "182123.703000", "182123.706000", "182123.709000", "182123.712000", "182146.771000", "182146.790000", "182146.793000", "182146.797000", "182146.800000", "182146.804000", "182146.807000", "182146.810000", "182146.814000", "182146.818000", "182146.821000", "182146.824000", "182146.827000", "182146.830000", "182146.834000", "182146.837000"],
      "InstanceNumber": [1, 2, 3, 4, 5, 6, 7, 8, 9, 10, 11, 12, 13, 14, 15, 16, 17, 18, 19, 20, 21, 22, 23, 24, 25, 26, 27, 28, 29, 30, 31, 32, 33, 34, 35, 36, 37, 38, 39, 40, 41, 42, 43, 44, 45, 46, 47, 48, 49, 50, 51, 52, 53, 54, 55, 56, 57, 58, 59, 60, 61, 62, 63, 64, 65, 66, 67, 68, 69, 70, 71, 72, 73, 74, 75, 76, 77, 78, 79, 80, 81, 82, 83, 84, 85, 86, 87, 88, 89, 90, 91, 92, 93, 94, 95, 96, 97, 98, 99, 100, 101, 102, 103, 104, 105, 106, 107, 108, 109, 110, 111, 112, 113, 114, 115, 116, 117, 118, 119, 120, 121, 122, 123, 124, 125, 126, 127, 128, 129, 130, 131, 132, 133, 134, 135, 136, 137, 138, 139, 140, 141, 142, 143, 144, 145, 146, 147, 148, 149, 150, 151, 152, 153, 154, 155, 156, 157, 158, 159, 160, 161, 162, 163, 164],
      "LargestImagePixelValue": [2129, 2148, 2115, 2115, 2165, 2144, 2202, 2185, 2210, 2231, 2248, 2246, 2215, 2180, 2188, 2122, 2141, 2126, 2107, 2107, 2151, 2127, 2105, 2061, 2054, 2067, 2036, 2071, 2042, 2090, 2109, 2054, 2149, 2113, 2094, 2075, 2100, 2133, 2137, 2120, 2274, 2096, 2093, 2112, 2106, 2097, 2130, 2187, 2194, 2174, 2158, 2173, 2145, 2145, 2153, 2167, 2140, 2136, 2085, 2084, 2090, 2105, 2146, 2116, 2134, 2154, 2104, 2125, 2125, 2125, 2109, 2113, 2084, 2133, 2093, 2115, 2127, 2115, 2136, 2114, 2105, 2104, 2056, 2074, 2064, 2063, 2084, 2084, 2088, 2113, 2118, 2226, 2095, 2109, 2095, 2088, 2070, 2090, 2100, 2103, 2084, 2102, 2085, 2087, 2089, 2119, 2101, 2153, 2104, 2117, 2106, 2099, 2096, 2099, 2111, 2128, 2108, 2132, 2113, 2113, 2108, 2124, 2152, 2132, 2114, 2111, 2127, 2116, 2110, 2115, 2118, 2130, 2117, 2140, 2135, 2146, 2168, 2216, 2174, 2214, 2175, 2140, 2136, 2140, 2108, 2158, 2148, 2118, 2135, 2121, 2109, 2122, 2132, 2162, 2153, 2143, 2128, 2103, 2122, 2124, 2128, 2107, 2119, 2176],
      "WindowCenter": [709.0, 708.0, 708.0, 708.0, 708.0, 708.0, 709.0, 709.0, 710.0, 711.0, 711.0, 712.0, 711.0, 710.0, 710.0, 709.0, 709.0, 709.0, 706.0, 706.0, 707.0, 707.0, 708.0, 706.0, 703.0, 703.0, 702.0, 704.0, 704.0, 704.0, 704.0, 703.0, 706.0, 706.0, 706.0, 706.0, 707.0, 708.0, 708.0, 708.0, 709.0, 707.0, 707.0, 708.0, 708.0, 708.0, 708.0, 710.0, 710.0, 710.0, 710.0, 710.0, 709.0, 709.0, 710.0, 709.0, 709.0, 709.0, 709.0, 708.0, 707.0, 707.0, 707.0, 707.0, 707.0, 707.0, 706.0, 707.0, 707.0, 708.0, 707.0, 707.0, 706.0, 706.0, 705.0, 705.0, 705.0, 705.0, 706.0, 706.0, 705.0, 705.0, 706.0, 706.0, 707.0, 707.0, 707.0, 708.0, 707.0, 708.0, 708.0, 710.0, 709.0, 708.0, 707.0, 706.0, 706.0, 706.0, 706.0, 706.0, 706.0, 706.0, 706.0, 707.0, 708.0, 708.0, 707.0, 708.0, 708.0, 709.0, 708.0, 708.0, 708.0, 708.0, 708.0, 708.0, 708.0, 709.0, 709.0, 709.0, 709.0, 709.0, 709.0, 708.0, 708.0, 708.0, 708.0, 709.0, 709.0, 708.0, 709.0, 709.0, 709.0, 710.0, 711.0, 711.0, 711.0, 711.0, 711.0, 710.0, 710.0, 710.0, 710.0, 710.0, 709.0, 710.0, 710.0, 709.0, 709.0, 709.0, 707.0, 708.0, 710.0, 711.0, 711.0, 711.0, 710.0, 708.0, 708.0, 708.0, 709.0, 709.0, 704.0, 711.0],
      "WindowWidth": [1525.0, 1523.0, 1523.0, 1523.0, 1523.0, 1523.0, 1526.0, 1526.0, 1529.0, 1531.0, 1532.0, 1533.0, 1531.0, 1530.0, 1528.0, 1526.0, 1525.0, 1525.0, 1517.0, 1518.0, 1521.0, 1521.0, 1523.0, 1517.0, 1511.0, 1509.0, 1509.0, 1512.0, 1512.0, 1513.0, 1513.0, 1511.0, 1518.0, 1518.0, 1519.0, 1519.0, 1521.0, 1524.0, 1523.0, 1523.0, 1526.0, 1522.0, 1521.0, 1523.0, 1523.0, 1524.0, 1524.0, 1528.0, 1529.0, 1529.0, 1528.0, 1528.0, 1526.0, 1527.0, 1528.0, 1527.0, 1527.0, 1528.0, 1527.0, 1523.0, 1522.0, 1521.0, 1520.0, 1521.0, 1520.0, 1521.0, 1519.0, 1521.0, 1522.0, 1524.0, 1522.0, 1522.0, 1519.0, 1519.0, 1516.0, 1516.0, 1515.0, 1516.0, 1519.0, 1518.0, 1517.0, 1517.0, 1518.0, 1519.0, 1520.0, 1521.0, 1522.0, 1523.0, 1522.0, 1523.0, 1524.0, 1528.0, 1526.0, 1523.0, 1520.0, 1518.0, 1519.0, 1518.0, 1518.0, 1517.0, 1519.0, 1519.0, 1520.0, 1521.0, 1522.0, 1523.0, 1522.0, 1523.0, 1523.0, 1526.0, 1525.0, 1525.0, 1524.0, 1523.0, 1524.0, 1524.0, 1524.0, 1525.0, 1525.0, 1525.0, 1526.0, 1526.0, 1526.0, 1524.0, 1524.0, 1524.0, 1525.0, 1525.0, 1525.0, 1525.0, 1525.0, 1526.0, 1527.0, 1529.0, 1531.0, 1533.0, 1533.0, 1533.0, 1531.0, 1530.0, 1530.0, 1529.0, 1529.0, 1528.0, 1526.0, 1528.0, 1528.0, 1527.0, 1527.0, 1525.0, 1522.0, 1525.0, 1529.0, 1532.0, 1532.0, 1531.0, 1528.0, 1524.0, 1524.0, 1524.0, 1525.0, 1526.0, 1514.0, 1533.0]
    },
    "slices": {}
  }
}