{
  "AcquisitionMatrixPE": 70,
  "AcquisitionNumber": 1,
  "AcquisitionTime": "16:03:47.497500",
  "BaseResolution": 70,
  "BodyPartExamined": "BRAIN",
  "CoilCombinationMethod": "Sum of Squares",
  "ConsistencyInfo": "N4_VE11C_LATEST_20160120",
  "ConversionSoftware": "dcm2niix",
  "ConversionSoftwareVersion": "v1.0.20211006",
  "DeviceSerialNumber": "166011",
  "EchoNumber": 2,
  "EchoTime": 0.00738,
  "EchoTime1": 0.00492,
  "EchoTime2": 0.00738,
  "FlipAngle": 60,
  "ImageOrientationPatientDICOM": [
    0.994482,
    0.101964,
    -0.0246731,
    -0.103822,
    0.990322,
    -0.0920999
  ],
  "ImageType": [
    "ORIGINAL",
    "PRIMARY",
    "P",
    "ND",
    "PHASE"
  ],
  "ImagingFrequency": 123.26,
  "InPlanePhaseEncodingDirectionDICOM": "ROW",
  "InstitutionAddress": "West 130th Street 610,NY,NYC,US,10025",
  "InstitutionName": "MBBI",
  "IntendedFor": [
    "ses-1/func/sub-150_ses-1_task-catLoc_run-01_bold.nii.gz",
    "ses-1/func/sub-150_ses-1_task-catLoc_run-02_bold.nii.gz",
    "ses-1/func/sub-150_ses-1_task-vwfate_run-01_bold.nii.gz",
    "ses-1/func/sub-150_ses-1_task-vwfate_run-02_bold.nii.gz",
    "ses-1/func/sub-150_ses-1_task-vwfate_run-03_bold.nii.gz",
    "ses-1/func/sub-150_ses-1_task-vwfate_run-04_bold.nii.gz",
    "ses-1/func/sub-150_ses-1_task-vwfate_run-05_bold.nii.gz",
    "ses-1/func/sub-150_ses-1_task-vwfate_run-06_bold.nii.gz"
  ],
  "MRAcquisitionType": "2D",
  "MagneticFieldStrength": 3,
  "Manufacturer": "Siemens",
  "ManufacturersModelName": "Prisma",
  "MatrixCoilMode": "SENSE",
  "Modality": "MR",
  "PartialFourier": 1,
  "PatientPosition": "HFS",
  "PercentPhaseFOV": 100,
  "PercentSampling": 100,
  "PhaseEncodingDirection": "i",
  "PhaseEncodingSteps": 70,
  "PhaseResolution": 1,
  "PixelBandwidth": 595,
  "ProcedureStepDescription": "White^Word_recognition",
  "ProtocolName": "fmap_gre_field_mapping",
  "PulseSequenceDetails": "%SiemensSeq%\\gre_field_mapping",
  "ReceiveCoilActiveElements": "HC1-7",
  "ReceiveCoilName": "HeadNeck_64",
  "ReconMatrixPE": 70,
  "RepetitionTime": 0.52,
  "SAR": 0.0908933,
  "ScanningSequence": "GR",
  "SequenceName": "*fm2d2r",
  "SequenceVariant": "SP",
  "SeriesDescription": "fmap_gre_field_mapping",
  "SeriesNumber": 17,
  "ShimSetting": [
    -1145,
    -1336,
    625,
    639,
    -133,
    110,
    -64,
    25
  ],
  "SliceThickness": 3,
  "SliceTiming": [
    0.26562,
    0,
    0.28125,
    0.01562,
    0.28125,
    0.03125,
    0.29688,
    0.04688,
    0.3125,
    0.04688,
    0.32812,
    0.0625,
    0.34375,
    0.07812,
    0.34375,
    0.09375,
    0.35938,
    0.10938,
    0.375,
    0.10938,
    0.39062,
    0.125,
    0.40625,
    0.14062,
    0.40625,
    0.15625,
    0.42188,
    0.17188,
    0.4375,
    0.17188,
    0.45312,
    0.1875,
    0.46875,
    0.20312,
    0.46875,
    0.21875,
    0.48438,
    0.23438,
    0.5,
    0.23438,
    0.51562,
    0.25
  ],
  "SoftwareVersions": "syngo MR E11",
  "SpacingBetweenSlices": 3,
  "StationName": "AWP166011",
  "TxRefAmp": 221.835,
  "dcmmeta_affine": [
    [
      -2.9834463596343994,
      -0.31146714091300964,
      -0.045130252838134766,
      119.40055847167969
    ],
    [
      -0.30589163303375244,
      2.9709672927856445,
      -0.28246116638183594,
      -59.10709762573242
    ],
    [
      -0.0740191861987114,
      0.27629971504211426,
      2.9863319396972656,
      -69.88885498046875
    ],
    [
      0.0,
      0.0,
      0.0,
      1.0
    ]
  ],
  "dcmmeta_reorient_transform": [
    [
      0.0,
      -1.0,
      0.0,
      69.0
    ],
    [
      1.0,
      0.0,
      0.0,
      0.0
    ],
    [
      0.0,
      0.0,
      -1.0,
      41.0
    ],
    [
      0.0,
      0.0,
      0.0,
      1.0
    ]
  ],
  "dcmmeta_shape": [
    70,
    70,
    42
  ],
  "dcmmeta_slice_dim": 2,
  "dcmmeta_version": 0.6,
  "global": {
    "const": {
      "AcquisitionMatrix": [
        0,
        70,
        70,
        0
      ],
      "AcquisitionNumber": 1,
      "AngioFlag": "N",
      "BitsAllocated": 16,
      "BitsStored": 12,
      "BodyPartExamined": "BRAIN",
      "Columns": 70,
      "EchoNumbers": 2,
      "EchoTime": 7.38,
      "EchoTrainLength": 0,
      "FlipAngle": 60.0,
      "HighBit": 11,
      "ImageOrientationPatient": [
        0.99448208034086,
        0.10196387535931,
        -0.0246730622873,
        -0.1038223833339,
        0.99032243243344,
        -0.0920999052008
      ],
      "ImageType": [
        "ORIGINAL",
        "PRIMARY",
        "P",
        "ND"
      ],
      "ImagedNucleus": "1H",
      "ImagingFrequency": 123.259549,
      "InPlanePhaseEncodingDirection": "ROW",
      "MRAcquisitionType": "2D",
      "MagneticFieldStrength": 3.0,
      "Manufacturer": "SIEMENS",
      "ManufacturerModelName": "Prisma",
      "Modality": "MR",
      "NumberOfAverages": 1.0,
      "NumberOfPhaseEncodingSteps": 70,
      "PercentPhaseFieldOfView": 100.0,
      "PercentSampling": 100.0,
      "PerformedProcedureStepStartTime": "145822.861000",
      "PhotometricInterpretation": "MONOCHROME2",
      "PixelBandwidth": 595.0,
      "PixelRepresentation": 0,
      "PixelSpacing": [
        3.0,
        3.0
      ],
      "ProtocolName": "fmap_gre_field_mapping",
      "RepetitionTime": 520.0,
      "RescaleIntercept": -4096.0,
      "RescaleSlope": 2.0,
      "RescaleType": "US",
      "Rows": 70,
      "SAR": 0.09089328219138,
      "SamplesPerPixel": 1,
      "ScanningSequence": "GR",
      "SequenceName": "*fm2d2r",
      "SequenceVariant": "SP",
      "SeriesDescription": "fmap_gre_field_mapping",
      "SeriesNumber": 17,
      "SeriesTime": "160500.716000",
      "SliceThickness": 3.0,
      "SoftwareVersions": "syngo MR E11",
      "SpacingBetweenSlices": 3.0,
      "SpecificCharacterSet": "ISO_IR 100",
      "StudyID": "1",
      "StudyTime": "145822.809000",
      "TransmitCoilName": "Body",
      "VariableFlipAngleFlag": "N",
      "WindowCenterWidthExplanation": "Algo1",
      "dBdt": 0.0
    },
    "slices": {
      "AcquisitionTime": [
        "160347.497500",
        "160347.240000",
        "160347.510000",
        "160347.250000",
        "160347.522500",
        "160347.262500",
        "160347.535000",
        "160347.275000",
        "160347.547500",
        "160347.287500",
        "160347.560000",
        "160347.300000",
        "160347.572500",
        "160347.312500",
        "160347.585000",
        "160347.325000",
        "160347.597500",
        "160347.337500",
        "160347.610000",
        "160347.350000",
        "160347.622500",
        "160347.362500",
        "160347.635000",
        "160347.375000",
        "160347.647500",
        "160347.387500",
        "160347.660000",
        "160347.400000",
        "160347.672500",
        "160347.412500",
        "160347.685000",
        "160347.425000",
        "160347.697500",
        "160347.437500",
        "160347.710000",
        "160347.450000",
        "160347.722500",
        "160347.462500",
        "160347.735000",
        "160347.475000",
        "160347.747500",
        "160347.487500"
      ],
      "ContentTime": [
        "160500.781000",
        "160500.718000",
        "160500.784000",
        "160500.721000",
        "160500.786000",
        "160500.729000",
        "160500.788000",
        "160500.731000",
        "160500.790000",
        "160500.733000",
        "160500.793000",
        "160500.735000",
        "160500.795000",
        "160500.737000",
        "160500.797000",
        "160500.739000",
        "160500.799000",
        "160500.742000",
        "160500.801000",
        "160500.744000",
        "160500.803000",
        "160500.758000",
        "160500.806000",
        "160500.760000",
        "160500.808000",
        "160500.762000",
        "160500.810000",
        "160500.764000",
        "160500.812000",
        "160500.766000",
        "160500.814000",
        "160500.768000",
        "160500.816000",
        "160500.771000",
        "160500.819000",
        "160500.773000",
        "160500.821000",
        "160500.775000",
        "160500.823000",
        "160500.777000",
        "160500.825000",
        "160500.779000"
      ],
      "CsaImage.ICE_Dims": [
        "X_2_1_1_1_1_1_22_1_1_1_1_60",
        "X_2_1_1_1_1_1_1_1_1_2_1_60",
        "X_2_1_1_1_1_1_23_1_1_3_1_60",
        "X_2_1_1_1_1_1_2_1_1_4_1_60",
        "X_2_1_1_1_1_1_24_1_1_5_1_60",
        "X_2_1_1_1_1_1_3_1_1_6_1_60",
        "X_2_1_1_1_1_1_25_1_1_7_1_60",
        "X_2_1_1_1_1_1_4_1_1_8_1_60",
        "X_2_1_1_1_1_1_26_1_1_9_1_60",
        "X_2_1_1_1_1_1_5_1_1_10_1_60",
        "X_2_1_1_1_1_1_27_1_1_11_1_60",
        "X_2_1_1_1_1_1_6_1_1_12_1_60",
        "X_2_1_1_1_1_1_28_1_1_13_1_60",
        "X_2_1_1_1_1_1_7_1_1_14_1_60",
        "X_2_1_1_1_1_1_29_1_1_15_1_60",
        "X_2_1_1_1_1_1_8_1_1_16_1_60",
        "X_2_1_1_1_1_1_30_1_1_17_1_60",
        "X_2_1_1_1_1_1_9_1_1_18_1_60",
        "X_2_1_1_1_1_1_31_1_1_19_1_60",
        "X_2_1_1_1_1_1_10_1_1_20_1_60",
        "X_2_1_1_1_1_1_32_1_1_21_1_60",
        "X_2_1_1_1_1_1_11_1_1_22_1_60",
        "X_2_1_1_1_1_1_33_1_1_23_1_60",
        "X_2_1_1_1_1_1_12_1_1_24_1_60",
        "X_2_1_1_1_1_1_34_1_1_25_1_60",
        "X_2_1_1_1_1_1_13_1_1_26_1_60",
        "X_2_1_1_1_1_1_35_1_1_27_1_60",
        "X_2_1_1_1_1_1_14_1_1_28_1_60",
        "X_2_1_1_1_1_1_36_1_1_29_1_60",
        "X_2_1_1_1_1_1_15_1_1_30_1_60",
        "X_2_1_1_1_1_1_37_1_1_31_1_60",
        "X_2_1_1_1_1_1_16_1_1_32_1_60",
        "X_2_1_1_1_1_1_38_1_1_33_1_60",
        "X_2_1_1_1_1_1_17_1_1_34_1_60",
        "X_2_1_1_1_1_1_39_1_1_35_1_60",
        "X_2_1_1_1_1_1_18_1_1_36_1_60",
        "X_2_1_1_1_1_1_40_1_1_37_1_60",
        "X_2_1_1_1_1_1_19_1_1_38_1_60",
        "X_2_1_1_1_1_1_41_1_1_39_1_60",
        "X_2_1_1_1_1_1_20_1_1_40_1_60",
        "X_2_1_1_1_1_1_42_1_1_41_1_60",
        "X_2_1_1_1_1_1_21_1_1_42_1_60"
      ],
      "CsaImage.ProtocolSliceNumber": [
        0,
        1,
        2,
        3,
        4,
        5,
        6,
        7,
        8,
        9,
        10,
        11,
        12,
        13,
        14,
        15,
        16,
        17,
        18,
        19,
        20,
        21,
        22,
        23,
        24,
        25,
        26,
        27,
        28,
        29,
        30,
        31,
        32,
        33,
        34,
        35,
        36,
        37,
        38,
        39,
        40,
        41
      ],
      "CsaImage.SlicePosition_PCS": [
        [
          -97.90932718,
          -145.88959769,
          -50.82418464
        ],
        [
          -97.86419693,
          -145.60713652,
          -47.8378527
        ],
        [
          -97.81906667,
          -145.32467726,
          -44.85152076
        ],
        [
          -97.77393642,
          -145.042218,
          -41.86518882
        ],
        [
          -97.72880617,
          -144.75975684,
          -38.87885688
        ],
        [
          -97.68367592,
          -144.47729758,
          -35.89252494
        ],
        [
          -97.63854566,
          -144.19483832,
          -32.906193
        ],
        [
          -97.59341541,
          -143.91237715,
          -29.91986106
        ],
        [
          -97.54828516,
          -143.62991789,
          -26.93352912
        ],
        [
          -97.5031549,
          -143.34745673,
          -23.94719718
        ],
        [
          -97.45802465,
          -143.06499747,
          -20.96086524
        ],
        [
          -97.4128944,
          -142.78253821,
          -17.9745333
        ],
        [
          -97.36776415,
          -142.50007704,
          -14.98820136
        ],
        [
          -97.32263389,
          -142.21761778,
          -12.00186751
        ],
        [
          -97.27750364,
          -141.93515852,
          -9.01553557
        ],
        [
          -97.23237339,
          -141.65269736,
          -6.02920363
        ],
        [
          -97.18724313,
          -141.3702381,
          -3.04287169
        ],
        [
          -97.14211264,
          -141.08777693,
          -0.05653975
        ],
        [
          -97.09698239,
          -140.80531767,
          2.92979219
        ],
        [
          -97.05185214,
          -140.52285842,
          5.9161246
        ],
        [
          -97.00672188,
          -140.24039725,
          8.90245654
        ],
        [
          -96.96159163,
          -139.95793799,
          11.88878869
        ],
        [
          -96.91646138,
          -139.67547873,
          14.8751209
        ],
        [
          -96.87133113,
          -139.39301756,
          17.86145284
        ],
        [
          -96.82620087,
          -139.11055831,
          20.84778478
        ],
        [
          -96.78107062,
          -138.82809714,
          23.83411767
        ],
        [
          -96.73594037,
          -138.54563788,
          26.82044961
        ],
        [
          -96.69081011,
          -138.26317862,
          29.80678155
        ],
        [
          -96.64567986,
          -137.98071745,
          32.79311349
        ],
        [
          -96.60054961,
          -137.6982582,
          35.77944543
        ],
        [
          -96.55541912,
          -137.41579894,
          38.76577737
        ],
        [
          -96.51028887,
          -137.13333777,
          41.75210931
        ],
        [
          -96.46515861,
          -136.85087851,
          44.73844125
        ],
        [
          -96.42002836,
          -136.56841734,
          47.72477319
        ],
        [
          -96.37489811,
          -136.28595809,
          50.71110513
        ],
        [
          -96.32976785,
          -136.00349883,
          53.69743707
        ],
        [
          -96.2846376,
          -135.72103766,
          56.68376901
        ],
        [
          -96.23950735,
          -135.4385784,
          59.67010476
        ],
        [
          -96.1943771,
          -135.15611914,
          62.6564367
        ],
        [
          -96.14924684,
          -134.87365798,
          65.64276864
        ],
        [
          -96.10411659,
          -134.59119872,
          68.62910058
        ],
        [
          -96.05898634,
          -134.30873755,
          71.61543252
        ]
      ],
      "CsaImage.TimeAfterStart": [
        0.78,
        0.5225,
        0.7925,
        0.5325,
        0.805,
        0.545,
        0.8175,
        0.5575,
        0.83,
        0.57,
        0.8425,
        0.5825,
        0.855,
        0.595,
        0.8675,
        0.6075,
        0.88,
        0.62,
        0.8925,
        0.6325,
        0.905,
        0.645,
        0.9175,
        0.6575,
        0.93,
        0.67,
        0.9425,
        0.6825,
        0.955,
        0.695,
        0.9675,
        0.7075,
        0.98,
        0.72,
        0.9925,
        0.7325,
        1.005,
        0.745,
        1.0175,
        0.7575,
        1.03,
        0.77
      ],
      "ImagePositionPatient": [
        [
          -97.909327180024,
          -145.88959768811,
          -50.824184635678
        ],
        [
          -97.864196927186,
          -145.60713652173,
          -47.837852695981
        ],
        [
          -97.819066674348,
          -145.3246772627,
          -44.851520756283
        ],
        [
          -97.77393642151,
          -145.04221800366,
          -41.865188816586
        ],
        [
          -97.728806168671,
          -144.75975683728,
          -38.878856876889
        ],
        [
          -97.683675915833,
          -144.47729757825,
          -35.892524937192
        ],
        [
          -97.638545662995,
          -144.19483831922,
          -32.906192997494
        ],
        [
          -97.593415410157,
          -143.91237715283,
          -29.919861057797
        ],
        [
          -97.548285157319,
          -143.6299178938,
          -26.9335291181
        ],
        [
          -97.503154904481,
          -143.34745672742,
          -23.947197178402
        ],
        [
          -97.458024651643,
          -143.06499746839,
          -20.960865238705
        ],
        [
          -97.412894398805,
          -142.78253820935,
          -17.974533299008
        ],
        [
          -97.367764145966,
          -142.50007704297,
          -14.988201359311
        ],
        [
          -97.322633893128,
          -142.21761778394,
          -12.001867512265
        ],
        [
          -97.27750364029,
          -141.9351585249,
          -9.0155355725675
        ],
        [
          -97.232373387452,
          -141.65269735852,
          -6.0292036328702
        ],
        [
          -97.187243134614,
          -141.37023809949,
          -3.042871693173
        ],
        [
          -97.142112643357,
          -141.08777693311,
          -0.0565397534757
        ],
        [
          -97.096982390519,
          -140.80531767407,
          2.9297921862216
        ],
        [
          -97.051852137681,
          -140.52285841504,
          5.916124602756
        ],
        [
          -97.006721884843,
          -140.24039724866,
          8.9024565424533
        ],
        [
          -96.961591632005,
          -139.95793798963,
          11.888788690767
        ],
        [
          -96.916461379166,
          -139.67547873059,
          14.875120898685
        ],
        [
          -96.871331126328,
          -139.39301756421,
          17.861452838382
        ],
        [
          -96.82620087349,
          -139.11055830518,
          20.847784778079
        ],
        [
          -96.781070620652,
          -138.8280971388,
          23.834117671451
        ],
        [
          -96.735940367814,
          -138.54563787976,
          26.820449611148
        ],
        [
          -96.690810114976,
          -138.26317862073,
          29.806781550846
        ],
        [
          -96.645679862138,
          -137.98071745435,
          32.793113490543
        ],
        [
          -96.6005496093,
          -137.69825819531,
          35.77944543024
        ],
        [
          -96.555419118043,
          -137.41579893628,
          38.765777369937
        ],
        [
          -96.510288865205,
          -137.1333377699,
          41.752109309635
        ],
        [
          -96.465158612367,
          -136.85087851087,
          44.738441249332
        ],
        [
          -96.420028359528,
          -136.56841734448,
          47.724773189029
        ],
        [
          -96.37489810669,
          -136.28595808545,
          50.711105128726
        ],
        [
          -96.329767853852,
          -136.00349882642,
          53.697437068424
        ],
        [
          -96.284637601014,
          -135.72103766004,
          56.683769008121
        ],
        [
          -96.239507348176,
          -135.438578401,
          59.670104762516
        ],
        [
          -96.194377095338,
          -135.15611914197,
          62.656436702213
        ],
        [
          -96.1492468425,
          -134.87365797559,
          65.64276864191
        ],
        [
          -96.104116589661,
          -134.59119871655,
          68.629100581607
        ],
        [
          -96.058986336823,
          -134.30873755017,
          71.615432521305
        ]
      ],
      "InstanceCreationTime": [
        "160500.781000",
        "160500.718000",
        "160500.784000",
        "160500.721000",
        "160500.786000",
        "160500.729000",
        "160500.788000",
        "160500.731000",
        "160500.790000",
        "160500.733000",
        "160500.793000",
        "160500.735000",
        "160500.795000",
        "160500.737000",
        "160500.797000",
        "160500.739000",
        "160500.799000",
        "160500.742000",
        "160500.801000",
        "160500.744000",
        "160500.803000",
        "160500.758000",
        "160500.806000",
        "160500.760000",
        "160500.808000",
        "160500.762000",
        "160500.810000",
        "160500.764000",
        "160500.812000",
        "160500.766000",
        "160500.814000",
        "160500.768000",
        "160500.816000",
        "160500.771000",
        "160500.819000",
        "160500.773000",
        "160500.821000",
        "160500.775000",
        "160500.823000",
        "160500.777000",
        "160500.825000",
        "160500.779000"
      ],
      "InstanceNumber": [
        1,
        2,
        3,
        4,
        5,
        6,
        7,
        8,
        9,
        10,
        11,
        12,
        13,
        14,
        15,
        16,
        17,
        18,
        19,
        20,
        21,
        22,
        23,
        24,
        25,
        26,
        27,
        28,
        29,
        30,
        31,
        32,
        33,
        34,
        35,
        36,
        37,
        38,
        39,
        40,
        41,
        42
      ],
      "LargestImagePixelValue": [
        4085,
        4093,
        4095,
        4094,
        4089,
        4079,
        4082,
        4093,
        4093,
        4094,
        4080,
        4092,
        4092,
        4085,
        4092,
        4089,
        4090,
        4088,
        4084,
        4083,
        4059,
        4080,
        4076,
        4086,
        4080,
        4081,
        4090,
        4092,
        4094,
        4092,
        4081,
        4093,
        4091,
        4090,
        4087,
        4093,
        4094,
        4095,
        4093,
        4092,
        4092,
        4093
      ],
      "SliceLocation": [
        -65.801513647497,
        -62.801513730115,
        -59.801513992317,
        -56.801514254518,
        -53.801514337137,
        -50.801514599338,
        -47.80151486154,
        -44.801514944158,
        -41.80151520636,
        -38.801515288978,
        -35.80151555118,
        -32.801515813381,
        -29.801515896,
        -26.801514259543,
        -23.801514521744,
        -20.801514604363,
        -17.801514866564,
        -14.801514945596,
        -11.801515207798,
        -8.8015149953346,
        -5.801515077953,
        -2.8015151324888,
        0.19848487230848,
        3.1984847896901,
        6.1984845274885,
        9.1984853941995,
        12.198485131998,
        15.198484869796,
        18.198484787178,
        21.198484524976,
        24.198484266361,
        27.198484183743,
        30.198483921541,
        33.198483838923,
        36.198483576721,
        39.19848331452,
        42.198483231901,
        45.198486767017,
        48.198486504816,
        51.198486422197,
        54.198486159996,
        57.198486077377
      ],
      "SmallestImagePixelValue": [
        2,
        1,
        0,
        1,
        0,
        4,
        0,
        1,
        0,
        3,
        2,
        5,
        0,
        16,
        4,
        8,
        16,
        3,
        6,
        24,
        1,
        38,
        0,
        3,
        21,
        7,
        12,
        2,
        0,
        12,
        3,
        6,
        12,
        7,
        0,
        0,
        0,
        0,
        0,
        0,
        4,
        0
      ],
      "WindowCenter": [
        -192.0,
        -202.0,
        -144.0,
        -56.0,
        -112.0,
        -206.0,
        -190.0,
        -172.0,
        -196.0,
        -130.0,
        -108.0,
        -90.0,
        -78.0,
        -96.0,
        -244.0,
        -264.0,
        -244.0,
        -230.0,
        -210.0,
        -166.0,
        -146.0,
        2.0,
        -128.0,
        -140.0,
        -130.0,
        -138.0,
        -146.0,
        -136.0,
        -34.0,
        -28.0,
        -162.0,
        -28.0,
        -52.0,
        -22.0,
        -214.0,
        -84.0,
        -126.0,
        -204.0,
        -216.0,
        -262.0,
        -256.0,
        -344.0
      ],
      "WindowWidth": [
        6056.0,
        6134.0,
        6106.0,
        6114.0,
        5980.0,
        5690.0,
        5552.0,
        5526.0,
        5194.0,
        5464.0,
        5430.0,
        5328.0,
        5194.0,
        5148.0,
        4568.0,
        4568.0,
        4572.0,
        4550.0,
        4538.0,
        4486.0,
        4476.0,
        5122.0,
        4448.0,
        4468.0,
        4470.0,
        4478.0,
        4500.0,
        4502.0,
        4898.0,
        5056.0,
        4560.0,
        5178.0,
        5200.0,
        5320.0,
        4678.0,
        5438.0,
        5574.0,
        5524.0,
        5714.0,
        5854.0,
        5928.0,
        6084.0
      ]
    }
  }
}