{
  "AcquisitionMatrixPE": 72,
  "AcquisitionNumber": 1,
  "AcquisitionTime": "15:36:6.360000",
  "BandwidthPerPixelPhaseEncode": 17.943,
  "BaseResolution": 96,
  "BodyPartExamined": "BRAIN",
  "CoilCombinationMethod": "Sum of Squares",
  "ConsistencyInfo": "N4_VE11C_LATEST_20160120",
  "ConversionSoftware": "dcm2niix",
  "ConversionSoftwareVersion": "v1.0.20211006",
  "DerivedVendorReportedEchoSpacing": 0.000552897,
  "DeviceSerialNumber": "166011",
  "DwellTime": 2.3e-06,
  "EchoTime": 0.03,
  "EchoTrainLength": 58,
  "EffectiveEchoSpacing": 0.000580542,
  "FlipAngle": 62,
  "ImageOrientationPatientDICOM": [0.997868, -0.0407488, -0.0509813, 0.046011, 0.993225, 0.106709],
  "ImageOrientationText": "Tra>Cor(6.3)>Sag(-2.7)",
  "ImageType": [
    "ORIGINAL",
    "PRIMARY",
    "M",
    "ND",
    "MOSAIC"
],
  "ImagingFrequency": 123.259,
  "InPlanePhaseEncodingDirectionDICOM": "COL",
  "InstitutionAddress": "West 130th Street 610,NY,NYC,US,10025",
  "InstitutionName": "MBBI",
  "InstitutionalDepartmentName": "Department",
  "MRAcquisitionType": "2D",
  "MagneticFieldStrength": 3,
  "Manufacturer": "Siemens",
  "ManufacturersModelName": "Prisma",
  "Modality": "MR",
  "MultibandAccelerationFactor": 3,
  "PartialFourier": 0.75,
  "PatientPosition": "HFS",
  "PercentPhaseFOV": 100,
  "PercentSampling": 75,
  "PhaseEncodingDirection": "j-",
  "PhaseEncodingSteps": 58,
  "PhaseOversampling": 0.05,
  "PhaseResolution": 0.75,
  "PixelBandwidth": 2265,
  "ProcedureStepDescription": "White^Word_recognition",
  "ProtocolName": "func_vwfate_run9",
  "PulseSequenceDetails": "%SiemensSeq%\\ep2d_bold",
  "ReceiveCoilActiveElements": "HC1-7",
  "ReceiveCoilName": "HeadNeck_64",
  "ReconMatrixPE": 96,
  "RefLinesPE": 40,
  "RepetitionTime": 1.5,
  "SAR": 0.0500195,
  "ScanOptions": "PFP\\FS",
  "ScanningSequence": "EP",
  "SequenceName": "*epfid2d1_72",
  "SequenceVariant": "SK\\OSP",
  "SeriesDescription": "func_vwfate_run9",
  "SeriesNumber": 11,
  "ShimSetting": [-1157, -1354, 687, 701, -217, -94, -62, 73],
  "SliceThickness": 2,
  "SliceTiming": [1.0775, 0, 0.74, 0.0675, 0.8075, 0.135, 0.875, 0.2025, 0.9425, 0.27, 1.01, 0.405, 1.145, 0.4725, 1.2125, 0.54, 1.2775, 0.605, 1.345, 0.6725, 1.4125, 0.3375, 1.0775, 0, 0.74, 0.0675, 0.8075, 0.135, 0.875, 0.2025, 0.9425, 0.27, 1.01, 0.405, 1.145, 0.4725, 1.2125, 0.54, 1.2775, 0.605, 1.345, 0.6725, 1.4125, 0.3375, 1.0775, 0, 0.74, 0.0675, 0.8075, 0.135, 0.875, 0.2025, 0.9425, 0.27, 1.01, 0.405, 1.145, 0.4725, 1.2125, 0.54, 1.2775, 0.605, 1.345, 0.6725, 1.4125, 0.3375],
  "SoftwareVersions": "syngo MR E11",
  "SpacingBetweenSlices": 2,
  "StationName": "AWP166011",
  "TaskName": "vwfate",
  "TotalReadoutTime": 0.0551515,
  "TxRefAmp": 219.385,
  "dcmmeta_affine": [
    [-1.9957358837127686, 0.09202208369970322, -0.09257515519857407, 97.2831039428711],
    [0.0814976841211319, 1.9864501953125, 0.21765489876270294, -79.60708618164062],
    [-0.10196250677108765, -0.21341852843761444, 1.9859647750854492, -37.35761642456055],
    [0.0, 0.0, 0.0, 1.0]
],
  "dcmmeta_reorient_transform": [
    [0.0, -1.0, 0.0, 95.0],
    [1.0, 0.0, 0.0, 0.0],
    [0.0, 0.0, 1.0, 0.0],
    [0.0, 0.0, 0.0, 1.0]
],
  "dcmmeta_shape": [96, 96, 66, 164],
  "dcmmeta_slice_dim": 2,
  "dcmmeta_version": 0.6,
  "global": {
    "const": {
      "AcquisitionMatrix": [96, 0, 0, 72],
      "AngioFlag": "N",
      "BitsAllocated": 16,
      "BitsStored": 12,
      "BodyPartExamined": "BRAIN",
      "Columns": 864,
      "EchoNumbers": 1,
      "EchoTime": 30.0,
      "EchoTrainLength": 58,
      "FlipAngle": 62.0,
      "HighBit": 11,
      "ImageOrientationPatient": [0.9978679491436, -0.0407488407992, -0.0509812519017, 0.04601104153221, 0.9932251090776, 0.10670926274187],
      "ImagePositionPatient": [-907.72427028582, -840.60745882045, -100.43148732786],
      "ImageType": [
        "ORIGINAL",
        "PRIMARY",
        "M",
        "ND",
        "MOSAIC"
],
      "ImagedNucleus": "1H",
      "ImagingFrequency": 123.259483,
      "InPlanePhaseEncodingDirection": "COL",
      "MRAcquisitionType": "2D",
      "MagneticFieldStrength": 3.0,
      "Manufacturer": "SIEMENS",
      "ManufacturerModelName": "Prisma",
      "Modality": "MR",
      "NumberOfAverages": 1.0,
      "NumberOfPhaseEncodingSteps": 58,
      "PercentPhaseFieldOfView": 100.0,
      "PercentSampling": 75.0,
      "PerformedProcedureStepStartTime": "145541.351000",
      "PhotometricInterpretation": "MONOCHROME2",
      "PixelBandwidth": 2265.0,
      "PixelRepresentation": 0,
      "PixelSpacing": [2.0, 2.0],
      "ProtocolName": "func_vwfate_run9",
      "RepetitionTime": 1500.0,
      "Rows": 864,
      "SAR": 0.05001946882925,
      "SamplesPerPixel": 1,
      "ScanOptions": [
        "PFP",
        "FS"
],
      "ScanningSequence": "EP",
      "SequenceName": "*epfid2d1_72",
      "SequenceVariant": [
        "SK",
        "OSP"
],
      "SeriesDescription": "func_vwfate_run9",
      "SeriesNumber": 11,
      "SeriesTime": "153622.616000",
      "SliceLocation": -50.261890404256,
      "SliceThickness": 2.0,
      "SmallestImagePixelValue": 0,
      "SoftwareVersions": "syngo MR E11",
      "SpacingBetweenSlices": 1.9999999343638,
      "SpecificCharacterSet": "ISO_IR 100",
      "StudyID": "2",
      "StudyTime": "145541.232000",
      "TransmitCoilName": "Body",
      "VariableFlipAngleFlag": "N",
      "WindowCenterWidthExplanation": "Algo1",
      "dBdt": 0.0},
    "slices": {}
  },
  "time": {
    "samples": {
      "AcquisitionNumber": [1, 2, 3, 4, 5, 6, 7, 8, 9, 10, 11, 12, 13, 14, 15, 16, 17, 18, 19, 20, 21, 22, 23, 24, 25, 26, 27, 28, 29, 30, 31, 32, 33, 34, 35, 36, 37, 38, 39, 40, 41, 42, 43, 44, 45, 46, 47, 48, 49, 50, 51, 52, 53, 54, 55, 56, 57, 58, 59, 60, 61, 62, 63, 64, 65, 66, 67, 68, 69, 70, 71, 72, 73, 74, 75, 76, 77, 78, 79, 80, 81, 82, 83, 84, 85, 86, 87, 88, 89, 90, 91, 92, 93, 94, 95, 96, 97, 98, 99, 100, 101, 102, 103, 104, 105, 106, 107, 108, 109, 110, 111, 112, 113, 114, 115, 116, 117, 118, 119, 120, 121, 122, 123, 124, 125, 126, 127, 128, 129, 130, 131, 132, 133, 134, 135, 136, 137, 138, 139, 140, 141, 142, 143, 144, 145, 146, 147, 148, 149, 150, 151, 152, 153, 154, 155, 156, 157, 158, 159, 160, 161, 162, 163, 164],
      "AcquisitionTime": ["153606.360000", "153607.860000", "153609.360000", "153610.860000", "153612.360000", "153613.860000", "153615.360000", "153616.860000", "153618.360000", "153619.860000", "153621.360000", "153622.860000", "153624.360000", "153625.860000", "153627.360000", "153628.860000", "153630.360000", "153631.860000", "153633.360000", "153634.860000", "153636.360000", "153637.860000", "153639.360000", "153640.860000", "153642.360000", "153643.860000", "153645.360000", "153646.860000", "153648.360000", "153649.860000", "153651.360000", "153652.860000", "153654.360000", "153655.860000", "153657.360000", "153658.860000", "153700.360000", "153701.860000", "153703.360000", "153704.860000", "153706.360000", "153707.860000", "153709.360000", "153710.860000", "153712.360000", "153713.860000", "153715.360000", "153716.860000", "153718.360000", "153719.860000", "153721.360000", "153722.860000", "153724.360000", "153725.860000", "153727.360000", "153728.860000", "153730.360000", "153731.860000", "153733.360000", "153734.860000", "153736.360000", "153737.860000", "153739.360000", "153740.860000", "153742.360000", "153743.860000", "153745.360000", "153746.860000", "153748.360000", "153749.860000", "153751.360000", "153752.860000", "153754.360000", "153755.860000", "153757.360000", "153758.860000", "153800.360000", "153801.860000", "153803.360000", "153804.860000", "153806.360000", "153807.860000", "153809.360000", "153810.860000", "153812.360000", "153813.860000", "153815.360000", "153816.860000", "153818.360000", "153819.860000", "153821.360000", "153822.860000", "153824.360000", "153825.860000", "153827.360000", "153828.860000", "153830.360000", "153831.860000", "153833.360000", "153834.860000", "153836.360000", "153837.860000", "153839.360000", "153840.860000", "153842.360000", "153843.860000", "153845.360000", "153846.860000", "153848.360000", "153849.860000", "153851.360000", "153852.860000", "153854.360000", "153855.860000", "153857.360000", "153858.860000", "153900.360000", "153901.860000", "153903.360000", "153904.860000", "153906.360000", "153907.860000", "153909.360000", "153910.860000", "153912.360000", "153913.860000", "153915.360000", "153916.860000", "153918.360000", "153919.860000", "153921.360000", "153922.860000", "153924.360000", "153925.860000", "153927.360000", "153928.860000", "153930.360000", "153931.860000", "153933.360000", "153934.860000", "153936.360000", "153937.860000", "153939.360000", "153940.860000", "153942.360000", "153943.860000", "153945.360000", "153946.860000", "153948.360000", "153949.860000", "153951.360000", "153952.860000", "153954.360000", "153955.860000", "153957.360000", "153958.860000", "154000.360000", "154001.860000", "154003.360000", "154004.860000", "154006.360000", "154007.860000", "154009.360000", "154010.860000"],
      "ContentTime": ["153622.621000", "153622.627000", "153622.630000", "153622.634000", "153622.651000", "153622.666000", "153622.669000", "153622.672000", "153622.676000", "153622.679000", "153702.615000", "153702.618000", "153702.621000", "153702.624000", "153702.627000", "153702.631000", "153702.634000", "153702.637000", "153702.640000", "153702.643000", "153702.649000", "153702.652000", "153702.655000", "153702.658000", "153702.661000", "153702.664000", "153702.667000", "153702.671000", "153702.674000", "153702.677000", "153702.680000", "153702.683000", "153702.686000", "153702.689000", "153702.692000", "153702.695000", "153702.698000", "153742.615000", "153742.618000", "153742.621000", "153742.624000", "153742.627000", "153742.630000", "153742.638000", "153742.641000", "153742.645000", "153742.648000", "153742.651000", "153742.654000", "153742.657000", "153742.660000", "153742.663000", "153742.666000", "153742.669000", "153742.672000", "153742.675000", "153742.678000", "153742.681000", "153742.684000", "153742.687000", "153742.697000", "153742.700000", "153742.703000", "153742.706000", "153822.615000", "153822.619000", "153822.623000", "153822.627000", "153822.630000", "153822.633000", "153822.637000", "153822.641000", "153822.644000", "153822.647000", "153822.650000", "153822.653000", "153822.656000", "153822.659000", "153822.662000", "153822.665000", "153822.669000", "153822.671000", "153822.674000", "153822.678000", "153822.681000", "153822.688000", "153822.691000", "153822.694000", "153822.697000", "153822.700000", "153902.615000", "153902.618000", "153902.621000", "153902.624000", "153902.627000", "153902.631000", "153902.634000", "153902.637000", "153902.640000", "153902.643000", "153902.646000", "153902.649000", "153902.652000", "153902.655000", "153902.658000", "153902.661000", "153902.664000", "153902.667000", "153902.670000", "153902.673000", "153902.676000", "153902.682000", "153902.686000", "153902.689000", "153902.692000", "153902.695000", "153902.698000", "153942.615000", "153942.619000", "153942.622000", "153942.625000", "153942.628000", "153942.631000", "153942.635000", "153942.638000", "153942.641000", "153942.644000", "153942.647000", "153942.650000", "153942.653000", "153942.656000", "153942.659000", "153942.662000", "153942.665000", "153942.669000", "153942.672000", "153942.675000", "153942.678000", "153942.681000", "153942.684000", "153942.687000", "153942.690000", "153942.693000", "153942.696000", "154012.141000", "154012.145000", "154012.149000", "154012.153000", "154012.156000", "154012.160000", "154012.163000", "154012.166000", "154012.169000", "154012.173000", "154012.176000", "154012.179000", "154012.182000", "154012.186000", "154012.189000", "154012.192000", "154012.196000", "154012.199000", "154012.202000", "154012.206000"],
      "InstanceCreationTime": ["153622.621000", "153622.627000", "153622.630000", "153622.634000", "153622.651000", "153622.666000", "153622.669000", "153622.672000", "153622.676000", "153622.679000", "153702.615000", "153702.618000", "153702.621000", "153702.624000", "153702.627000", "153702.631000", "153702.634000", "153702.637000", "153702.640000", "153702.643000", "153702.649000", "153702.652000", "153702.655000", "153702.658000", "153702.661000", "153702.664000", "153702.667000", "153702.671000", "153702.674000", "153702.677000", "153702.680000", "153702.683000", "153702.686000", "153702.689000", "153702.692000", "153702.695000", "153702.698000", "153742.615000", "153742.618000", "153742.621000", "153742.624000", "153742.627000", "153742.630000", "153742.638000", "153742.641000", "153742.645000", "153742.648000", "153742.651000", "153742.654000", "153742.657000", "153742.660000", "153742.663000", "153742.666000", "153742.669000", "153742.672000", "153742.675000", "153742.678000", "153742.681000", "153742.684000", "153742.687000", "153742.697000", "153742.700000", "153742.703000", "153742.706000", "153822.615000", "153822.619000", "153822.623000", "153822.627000", "153822.630000", "153822.633000", "153822.637000", "153822.641000", "153822.644000", "153822.647000", "153822.650000", "153822.653000", "153822.656000", "153822.659000", "153822.662000", "153822.665000", "153822.669000", "153822.671000", "153822.674000", "153822.678000", "153822.681000", "153822.688000", "153822.691000", "153822.694000", "153822.697000", "153822.700000", "153902.615000", "153902.618000", "153902.621000", "153902.624000", "153902.627000", "153902.631000", "153902.634000", "153902.637000", "153902.640000", "153902.643000", "153902.646000", "153902.649000", "153902.652000", "153902.655000", "153902.658000", "153902.661000", "153902.664000", "153902.667000", "153902.670000", "153902.673000", "153902.676000", "153902.682000", "153902.686000", "153902.689000", "153902.692000", "153902.695000", "153902.698000", "153942.615000", "153942.619000", "153942.622000", "153942.625000", "153942.628000", "153942.631000", "153942.635000", "153942.638000", "153942.641000", "153942.644000", "153942.647000", "153942.650000", "153942.653000", "153942.656000", "153942.659000", "153942.662000", "153942.665000", "153942.669000", "153942.672000", "153942.675000", "153942.678000", "153942.681000", "153942.684000", "153942.687000", "153942.690000", "153942.693000", "153942.696000", "154012.141000", "154012.145000", "154012.149000", "154012.153000", "154012.156000", "154012.160000", "154012.163000", "154012.166000", "154012.169000", "154012.173000", "154012.176000", "154012.179000", "154012.182000", "154012.186000", "154012.189000", "154012.192000", "154012.196000", "154012.199000", "154012.202000", "154012.206000"],
      "InstanceNumber": [1, 2, 3, 4, 5, 6, 7, 8, 9, 10, 11, 12, 13, 14, 15, 16, 17, 18, 19, 20, 21, 22, 23, 24, 25, 26, 27, 28, 29, 30, 31, 32, 33, 34, 35, 36, 37, 38, 39, 40, 41, 42, 43, 44, 45, 46, 47, 48, 49, 50, 51, 52, 53, 54, 55, 56, 57, 58, 59, 60, 61, 62, 63, 64, 65, 66, 67, 68, 69, 70, 71, 72, 73, 74, 75, 76, 77, 78, 79, 80, 81, 82, 83, 84, 85, 86, 87, 88, 89, 90, 91, 92, 93, 94, 95, 96, 97, 98, 99, 100, 101, 102, 103, 104, 105, 106, 107, 108, 109, 110, 111, 112, 113, 114, 115, 116, 117, 118, 119, 120, 121, 122, 123, 124, 125, 126, 127, 128, 129, 130, 131, 132, 133, 134, 135, 136, 137, 138, 139, 140, 141, 142, 143, 144, 145, 146, 147, 148, 149, 150, 151, 152, 153, 154, 155, 156, 157, 158, 159, 160, 161, 162, 163, 164],
      "LargestImagePixelValue": [4095, 3851, 3705, 3736, 3713, 3760, 3752, 3754, 3756, 3719, 3748, 3751, 3749, 3774, 3757, 3728, 3750, 3726, 3727, 3757, 3724, 3749, 3724, 3726, 3718, 3741, 3707, 3664, 3675, 3677, 3697, 3675, 3691, 3665, 3681, 3694, 3746, 3708, 3774, 3735, 3773, 3713, 3767, 3658, 3672, 3702, 3755, 3717, 3715, 3707, 3755, 3747, 3734, 3778, 3705, 3700, 3712, 3723, 3716, 3755, 3723, 3714, 3725, 3742, 3707, 3758, 3715, 3779, 3728, 3769, 3741, 3772, 3767, 3820, 3775, 3820, 3740, 3735, 3752, 3728, 3760, 3748, 3744, 3749, 3722, 3767, 3720, 3733, 3742, 3733, 3722, 3747, 3694, 3838, 3713, 3900, 3899, 3907, 3851, 3824, 3821, 3848, 3827, 3805, 3858, 3742, 3803, 3766, 3771, 3755, 3742, 3731, 3869, 3778, 3832, 3842, 3855, 3836, 3820, 3817, 3825, 3772, 3783, 3786, 3758, 3773, 3714, 3816, 3685, 3782, 3688, 3789, 3712, 3765, 3736, 3740, 3727, 3770, 3718, 3767, 3701, 3784, 3762, 3783, 3729, 3722, 3741, 3766, 3766, 3773, 3826, 3746, 3832, 3755, 3904, 3827, 3781, 3890, 3818, 3899, 3863, 3799, 3868, 3790],
      "WindowCenter": [785.0, 781.0, 781.0, 779.0, 778.0, 778.0, 778.0, 779.0, 780.0, 780.0, 781.0, 781.0, 782.0, 781.0, 782.0, 782.0, 783.0, 783.0, 783.0, 782.0, 783.0, 783.0, 784.0, 783.0, 783.0, 783.0, 782.0, 781.0, 782.0, 783.0, 782.0, 782.0, 781.0, 780.0, 780.0, 782.0, 782.0, 781.0, 781.0, 782.0, 782.0, 782.0, 782.0, 781.0, 781.0, 781.0, 782.0, 781.0, 781.0, 780.0, 781.0, 782.0, 782.0, 782.0, 781.0, 780.0, 779.0, 780.0, 781.0, 781.0, 780.0, 781.0, 781.0, 781.0, 781.0, 781.0, 781.0, 781.0, 782.0, 782.0, 781.0, 781.0, 782.0, 782.0, 782.0, 782.0, 782.0, 781.0, 781.0, 781.0, 782.0, 781.0, 782.0, 781.0, 781.0, 781.0, 781.0, 781.0, 782.0, 782.0, 781.0, 780.0, 780.0, 782.0, 782.0, 784.0, 783.0, 781.0, 780.0, 780.0, 781.0, 780.0, 778.0, 778.0, 779.0, 779.0, 781.0, 781.0, 783.0, 783.0, 784.0, 784.0, 785.0, 784.0, 784.0, 783.0, 783.0, 782.0, 781.0, 782.0, 782.0, 783.0, 782.0, 782.0, 782.0, 782.0, 782.0, 783.0, 783.0, 783.0, 783.0, 783.0, 783.0, 784.0, 784.0, 784.0, 784.0, 784.0, 782.0, 782.0, 781.0, 782.0, 782.0, 783.0, 783.0, 782.0, 782.0, 782.0, 782.0, 782.0, 781.0, 780.0, 781.0, 782.0, 783.0, 782.0, 782.0, 782.0, 782.0, 783.0, 783.0, 782.0, 782.0, 781.0],
      "WindowWidth": [1765.0, 1750.0, 1748.0, 1741.0, 1737.0, 1738.0, 1738.0, 1742.0, 1744.0, 1745.0, 1749.0, 1749.0, 1752.0, 1749.0, 1750.0, 1750.0, 1753.0, 1753.0, 1754.0, 1752.0, 1754.0, 1753.0, 1756.0, 1755.0, 1755.0, 1752.0, 1751.0, 1746.0, 1750.0, 1752.0, 1752.0, 1749.0, 1746.0, 1745.0, 1746.0, 1750.0, 1750.0, 1749.0, 1750.0, 1751.0, 1753.0, 1751.0, 1751.0, 1748.0, 1748.0, 1749.0, 1751.0, 1749.0, 1748.0, 1746.0, 1748.0, 1750.0, 1751.0, 1752.0, 1749.0, 1744.0, 1743.0, 1746.0, 1749.0, 1750.0, 1747.0, 1748.0, 1748.0, 1750.0, 1750.0, 1749.0, 1747.0, 1749.0, 1751.0, 1752.0, 1750.0, 1750.0, 1751.0, 1752.0, 1754.0, 1752.0, 1751.0, 1749.0, 1750.0, 1749.0, 1753.0, 1750.0, 1752.0, 1749.0, 1749.0, 1748.0, 1749.0, 1751.0, 1751.0, 1750.0, 1748.0, 1746.0, 1746.0, 1752.0, 1752.0, 1758.0, 1755.0, 1749.0, 1747.0, 1747.0, 1749.0, 1745.0, 1740.0, 1739.0, 1744.0, 1744.0, 1748.0, 1751.0, 1756.0, 1757.0, 1760.0, 1760.0, 1763.0, 1759.0, 1757.0, 1755.0, 1754.0, 1751.0, 1750.0, 1751.0, 1752.0, 1754.0, 1752.0, 1752.0, 1751.0, 1752.0, 1752.0, 1756.0, 1753.0, 1755.0, 1753.0, 1756.0, 1756.0, 1757.0, 1758.0, 1759.0, 1757.0, 1757.0, 1751.0, 1751.0, 1748.0, 1751.0, 1752.0, 1756.0, 1753.0, 1752.0, 1750.0, 1751.0, 1752.0, 1750.0, 1749.0, 1746.0, 1750.0, 1751.0, 1754.0, 1752.0, 1751.0, 1753.0, 1753.0, 1756.0, 1755.0, 1752.0, 1751.0, 1749.0]
    },
    "slices": {}
  }
}