{
  "AcquisitionMatrixPE": 70,
  "AcquisitionNumber": 1,
  "AcquisitionTime": "17:48:46.775000",
  "BaseResolution": 70,
  "BodyPartExamined": "BRAIN",
  "CoilCombinationMethod": "Sum of Squares",
  "ConsistencyInfo": "N4_VE11C_LATEST_20160120",
  "ConversionSoftware": "dcm2niix",
  "ConversionSoftwareVersion": "v1.0.20211006",
  "DeviceSerialNumber": "166011",
  "EchoNumber": 2,
  "EchoTime": 0.00738,
  "EchoTime1": 0.00492,
  "EchoTime2": 0.00738,
  "FlipAngle": 60,
  "ImageOrientationPatientDICOM": [
    0.999768,
    0.00279848,
    -0.0213617,
    -0.00191942,
    0.999155,
    0.0410614
  ],
  "ImageType": [
    "ORIGINAL",
    "PRIMARY",
    "P",
    "ND",
    "PHASE"
  ],
  "ImagingFrequency": 123.259,
  "InPlanePhaseEncodingDirectionDICOM": "ROW",
  "InstitutionAddress": "West 130th Street 610,NY,NYC,US,10025",
  "InstitutionName": "MBBI",
  "IntendedFor": [
    "ses-1/func/sub-146_ses-1_task-catLoc_run-01_bold.nii.gz",
    "ses-1/func/sub-146_ses-1_task-catLoc_run-02_bold.nii.gz",
    "ses-1/func/sub-146_ses-1_task-vwfate_run-01_bold.nii.gz",
    "ses-1/func/sub-146_ses-1_task-vwfate_run-02_bold.nii.gz",
    "ses-1/func/sub-146_ses-1_task-vwfate_run-03_bold.nii.gz",
    "ses-1/func/sub-146_ses-1_task-vwfate_run-04_bold.nii.gz",
    "ses-1/func/sub-146_ses-1_task-vwfate_run-05_bold.nii.gz",
    "ses-1/func/sub-146_ses-1_task-vwfate_run-06_bold.nii.gz"
  ],
  "MRAcquisitionType": "2D",
  "MagneticFieldStrength": 3,
  "Manufacturer": "Siemens",
  "ManufacturersModelName": "Prisma",
  "MatrixCoilMode": "SENSE",
  "Modality": "MR",
  "MultibandAccelerationFactor": 2,
  "PartialFourier": 1,
  "PatientPosition": "HFS",
  "PercentPhaseFOV": 100,
  "PercentSampling": 100,
  "PhaseEncodingDirection": "i",
  "PhaseEncodingSteps": 70,
  "PhaseResolution": 1,
  "PixelBandwidth": 595,
  "ProcedureStepDescription": "White^Word_recognition",
  "ProtocolName": "fmap_gre_field_mapping",
  "PulseSequenceDetails": "%SiemensSeq%\\gre_field_mapping",
  "ReceiveCoilActiveElements": "HC1-7",
  "ReceiveCoilName": "HeadNeck_64",
  "ReconMatrixPE": 70,
  "RepetitionTime": 0.52,
  "SAR": 0.0941224,
  "ScanningSequence": "GR",
  "SequenceName": "*fm2d2r",
  "SequenceVariant": "SP",
  "SeriesDescription": "fmap_gre_field_mapping",
  "SeriesNumber": 17,
  "ShimSetting": [
    -1166,
    -1391,
    701,
    628,
    -141,
    -59,
    -36,
    37
  ],
  "SliceThickness": 3,
  "SliceTiming": [
    0.26562,
    0,
    0.26562,
    0.01562,
    0.28125,
    0.03125,
    0.29688,
    0.03125,
    0.3125,
    0.04688,
    0.32812,
    0.0625,
    0.32812,
    0.07812,
    0.34375,
    0.09375,
    0.35938,
    0.09375,
    0.375,
    0.10938,
    0.39062,
    0.125,
    0.39062,
    0.14062,
    0.40625,
    0.15625,
    0.42188,
    0.15625,
    0.4375,
    0.17188,
    0.45312,
    0.1875,
    0.45312,
    0.20312,
    0.46875,
    0.21875,
    0.48438,
    0.21875,
    0.5,
    0.23438,
    0.5,
    0.25
  ],
  "SoftwareVersions": "syngo MR E11",
  "SpacingBetweenSlices": 3,
  "StationName": "AWP166011",
  "TxRefAmp": 214.819,
  "dcmmeta_affine": [
    [
      -2.9993035793304443,
      -0.005758256651461124,
      -0.0643758773803711,
      112.9718017578125
    ],
    [
      -0.00839544553309679,
      2.997464418411255,
      0.1230316162109375,
      -83.66687774658203
    ],
    [
      -0.06408516317605972,
      -0.12318430840969086,
      2.9967803955078125,
      -51.032840728759766
    ],
    [
      0.0,
      0.0,
      0.0,
      1.0
    ]
  ],
  "dcmmeta_reorient_transform": [
    [
      0.0,
      -1.0,
      0.0,
      69.0
    ],
    [
      1.0,
      0.0,
      0.0,
      0.0
    ],
    [
      0.0,
      0.0,
      -1.0,
      41.0
    ],
    [
      0.0,
      0.0,
      0.0,
      1.0
    ]
  ],
  "dcmmeta_shape": [
    70,
    70,
    42
  ],
  "dcmmeta_slice_dim": 2,
  "dcmmeta_version": 0.6,
  "global": {
    "const": {
      "AcquisitionMatrix": [
        0,
        70,
        70,
        0
      ],
      "AcquisitionNumber": 1,
      "AngioFlag": "N",
      "BitsAllocated": 16,
      "BitsStored": 12,
      "BodyPartExamined": "BRAIN",
      "Columns": 70,
      "EchoNumbers": 2,
      "EchoTime": 7.38,
      "EchoTrainLength": 0,
      "FlipAngle": 60.0,
      "HighBit": 11,
      "ImageOrientationPatient": [
        0.99976789573317,
        0.00279848171885,
        -0.0213617218719,
        -0.001919418915,
        0.99915477995232,
        0.04106143603744
      ],
      "ImageType": [
        "ORIGINAL",
        "PRIMARY",
        "P",
        "ND"
      ],
      "ImagedNucleus": "1H",
      "ImagingFrequency": 123.259425,
      "InPlanePhaseEncodingDirection": "ROW",
      "MRAcquisitionType": "2D",
      "MagneticFieldStrength": 3.0,
      "Manufacturer": "SIEMENS",
      "ManufacturerModelName": "Prisma",
      "Modality": "MR",
      "NumberOfAverages": 1.0,
      "NumberOfPhaseEncodingSteps": 70,
      "PercentPhaseFieldOfView": 100.0,
      "PercentSampling": 100.0,
      "PerformedProcedureStepStartTime": "163648.140000",
      "PhotometricInterpretation": "MONOCHROME2",
      "PixelBandwidth": 595.0,
      "PixelRepresentation": 0,
      "PixelSpacing": [
        3.0,
        3.0
      ],
      "ProtocolName": "fmap_gre_field_mapping",
      "RepetitionTime": 520.0,
      "RescaleIntercept": -4096.0,
      "RescaleSlope": 2.0,
      "RescaleType": "US",
      "Rows": 70,
      "SAR": 0.09412238194854,
      "SamplesPerPixel": 1,
      "ScanningSequence": "GR",
      "SequenceName": "*fm2d2r",
      "SequenceVariant": "SP",
      "SeriesDescription": "fmap_gre_field_mapping",
      "SeriesNumber": 17,
      "SeriesTime": "174959.961000",
      "SliceThickness": 3.0,
      "SoftwareVersions": "syngo MR E11",
      "SpacingBetweenSlices": 3.0,
      "SpecificCharacterSet": "ISO_IR 100",
      "StudyID": "1",
      "StudyTime": "163648.086000",
      "TransmitCoilName": "Body",
      "VariableFlipAngleFlag": "N",
      "WindowCenterWidthExplanation": "Algo1",
      "dBdt": 0.0
    },
    "slices": {
      "AcquisitionTime": [
        "174846.775000",
        "174846.515000",
        "174846.787500",
        "174846.527500",
        "174846.800000",
        "174846.540000",
        "174846.812500",
        "174846.552500",
        "174846.825000",
        "174846.565000",
        "174846.837500",
        "174846.577500",
        "174846.850000",
        "174846.590000",
        "174846.862500",
        "174846.602500",
        "174846.875000",
        "174846.615000",
        "174846.887500",
        "174846.627500",
        "174846.900000",
        "174846.640000",
        "174846.912500",
        "174846.652500",
        "174846.925000",
        "174846.665000",
        "174846.937500",
        "174846.677500",
        "174846.950000",
        "174846.690000",
        "174846.962500",
        "174846.702500",
        "174846.975000",
        "174846.715000",
        "174846.985000",
        "174846.727500",
        "174846.997500",
        "174846.737500",
        "174847.010000",
        "174846.750000",
        "174847.022500",
        "174846.762500"
      ],
      "ContentTime": [
        "175000.010000",
        "174959.964000",
        "175000.012000",
        "174959.966000",
        "175000.014000",
        "174959.968000",
        "175000.017000",
        "174959.970000",
        "175000.019000",
        "174959.973000",
        "175000.021000",
        "174959.975000",
        "175000.023000",
        "174959.977000",
        "175000.025000",
        "174959.979000",
        "175000.027000",
        "174959.981000",
        "175000.030000",
        "174959.984000",
        "175000.032000",
        "174959.986000",
        "175000.034000",
        "174959.988000",
        "175000.036000",
        "174959.990000",
        "175000.038000",
        "174959.992000",
        "175000.040000",
        "174959.994000",
        "175000.042000",
        "174959.996000",
        "175000.045000",
        "174959.998000",
        "175000.047000",
        "175000.002000",
        "175000.049000",
        "175000.004000",
        "175000.051000",
        "175000.006000",
        "175000.053000",
        "175000.008000"
      ],
      "CsaImage.ICE_Dims": [
        "X_2_1_1_1_1_1_22_1_1_1_1_143",
        "X_2_1_1_1_1_1_1_1_1_2_1_143",
        "X_2_1_1_1_1_1_23_1_1_3_1_143",
        "X_2_1_1_1_1_1_2_1_1_4_1_143",
        "X_2_1_1_1_1_1_24_1_1_5_1_143",
        "X_2_1_1_1_1_1_3_1_1_6_1_143",
        "X_2_1_1_1_1_1_25_1_1_7_1_143",
        "X_2_1_1_1_1_1_4_1_1_8_1_143",
        "X_2_1_1_1_1_1_26_1_1_9_1_143",
        "X_2_1_1_1_1_1_5_1_1_10_1_143",
        "X_2_1_1_1_1_1_27_1_1_11_1_143",
        "X_2_1_1_1_1_1_6_1_1_12_1_143",
        "X_2_1_1_1_1_1_28_1_1_13_1_143",
        "X_2_1_1_1_1_1_7_1_1_14_1_143",
        "X_2_1_1_1_1_1_29_1_1_15_1_143",
        "X_2_1_1_1_1_1_8_1_1_16_1_143",
        "X_2_1_1_1_1_1_30_1_1_17_1_143",
        "X_2_1_1_1_1_1_9_1_1_18_1_143",
        "X_2_1_1_1_1_1_31_1_1_19_1_143",
        "X_2_1_1_1_1_1_10_1_1_20_1_143",
        "X_2_1_1_1_1_1_32_1_1_21_1_143",
        "X_2_1_1_1_1_1_11_1_1_22_1_143",
        "X_2_1_1_1_1_1_33_1_1_23_1_143",
        "X_2_1_1_1_1_1_12_1_1_24_1_143",
        "X_2_1_1_1_1_1_34_1_1_25_1_143",
        "X_2_1_1_1_1_1_13_1_1_26_1_143",
        "X_2_1_1_1_1_1_35_1_1_27_1_143",
        "X_2_1_1_1_1_1_14_1_1_28_1_143",
        "X_2_1_1_1_1_1_36_1_1_29_1_143",
        "X_2_1_1_1_1_1_15_1_1_30_1_143",
        "X_2_1_1_1_1_1_37_1_1_31_1_143",
        "X_2_1_1_1_1_1_16_1_1_32_1_143",
        "X_2_1_1_1_1_1_38_1_1_33_1_143",
        "X_2_1_1_1_1_1_17_1_1_34_1_143",
        "X_2_1_1_1_1_1_39_1_1_35_1_143",
        "X_2_1_1_1_1_1_18_1_1_36_1_143",
        "X_2_1_1_1_1_1_40_1_1_37_1_143",
        "X_2_1_1_1_1_1_19_1_1_38_1_143",
        "X_2_1_1_1_1_1_41_1_1_39_1_143",
        "X_2_1_1_1_1_1_20_1_1_40_1_143",
        "X_2_1_1_1_1_1_42_1_1_41_1_143",
        "X_2_1_1_1_1_1_21_1_1_42_1_143"
      ],
      "CsaImage.ProtocolSliceNumber": [
        0,
        1,
        2,
        3,
        4,
        5,
        6,
        7,
        8,
        9,
        10,
        11,
        12,
        13,
        14,
        15,
        16,
        17,
        18,
        19,
        20,
        21,
        22,
        23,
        24,
        25,
        26,
        27,
        28,
        29,
        30,
        31,
        32,
        33,
        34,
        35,
        36,
        37,
        38,
        39,
        40,
        41
      ],
      "CsaImage.SlicePosition_PCS": [
        [
          -112.57447602,
          -123.15811448,
          -59.5327339
        ],
        [
          -112.51010062,
          -123.281148,
          -56.53594969
        ],
        [
          -112.44572474,
          -123.40417962,
          -53.53916167
        ],
        [
          -112.38134886,
          -123.52721314,
          -50.54237746
        ],
        [
          -112.31697346,
          -123.65024476,
          -47.54559325
        ],
        [
          -112.25259758,
          -123.77327828,
          -44.54880904
        ],
        [
          -112.18822171,
          -123.89631181,
          -41.55202483
        ],
        [
          -112.12384631,
          -124.01934342,
          -38.55524062
        ],
        [
          -112.05947043,
          -124.14237695,
          -35.55845641
        ],
        [
          -111.99509455,
          -124.26540856,
          -32.56167029
        ],
        [
          -111.93071867,
          -124.38844208,
          -29.56488608
        ],
        [
          -111.86634327,
          -124.5114737,
          -26.56809996
        ],
        [
          -111.8019674,
          -124.63450722,
          -23.57131575
        ],
        [
          -111.73759152,
          -124.75754075,
          -20.57453154
        ],
        [
          -111.67321612,
          -124.88057236,
          -17.57774638
        ],
        [
          -111.60884024,
          -125.00360589,
          -14.58096217
        ],
        [
          -111.54446436,
          -125.1266375,
          -11.584177
        ],
        [
          -111.48008896,
          -125.24967103,
          -8.58739232
        ],
        [
          -111.41571309,
          -125.37270264,
          -5.59060763
        ],
        [
          -111.35133721,
          -125.49573617,
          -2.59382288
        ],
        [
          -111.28696181,
          -125.61876778,
          0.40296174
        ],
        [
          -111.22258593,
          -125.74180131,
          3.39974643
        ],
        [
          -111.15821005,
          -125.86483483,
          6.39653112
        ],
        [
          -111.09383418,
          -125.98786645,
          9.39331628
        ],
        [
          -111.02945878,
          -126.11089997,
          12.39010049
        ],
        [
          -110.9650829,
          -126.23393159,
          15.3868847
        ],
        [
          -110.90070702,
          -126.35696511,
          18.38367082
        ],
        [
          -110.83633162,
          -126.47999673,
          21.38045503
        ],
        [
          -110.77195574,
          -126.60303025,
          24.37723924
        ],
        [
          -110.70757987,
          -126.72606377,
          27.37402345
        ],
        [
          -110.64320446,
          -126.84909539,
          30.37080766
        ],
        [
          -110.57882859,
          -126.97212891,
          33.36759569
        ],
        [
          -110.51445271,
          -127.09516053,
          36.3643799
        ],
        [
          -110.45007731,
          -127.21819405,
          39.36116411
        ],
        [
          -110.38570143,
          -127.34122567,
          42.35794832
        ],
        [
          -110.32132555,
          -127.46425919,
          45.35473253
        ],
        [
          -110.25695015,
          -127.58729272,
          48.35151674
        ],
        [
          -110.19257428,
          -127.71032433,
          51.34830095
        ],
        [
          -110.1281984,
          -127.83335786,
          54.34508516
        ],
        [
          -110.06382252,
          -127.95638947,
          57.34187318
        ],
        [
          -109.99944712,
          -128.079423,
          60.33865739
        ],
        [
          -109.93507124,
          -128.20245461,
          63.33543779
        ]
      ],
      "CsaImage.TimeAfterStart": [
        0.7825,
        0.5225,
        0.795,
        0.535,
        0.8075,
        0.5475,
        0.82,
        0.56,
        0.8325,
        0.5725,
        0.845,
        0.585,
        0.8575,
        0.5975,
        0.87,
        0.61,
        0.8825,
        0.6225,
        0.895,
        0.635,
        0.9075,
        0.6475,
        0.92,
        0.66,
        0.9325,
        0.6725,
        0.945,
        0.685,
        0.9575,
        0.6975,
        0.97,
        0.71,
        0.9825,
        0.7225,
        0.9925,
        0.735,
        1.005,
        0.745,
        1.0175,
        0.7575,
        1.03,
        0.77
      ],
      "ImagePositionPatient": [
        [
          -112.5744760179,
          -123.15811447865,
          -59.532733903397
        ],
        [
          -112.51010061736,
          -123.28114800221,
          -56.535949693192
        ],
        [
          -112.44572473998,
          -123.40417961842,
          -53.539161668289
        ],
        [
          -112.3813488626,
          -123.52721314198,
          -50.542377458084
        ],
        [
          -112.31697346205,
          -123.65024475819,
          -47.545593247879
        ],
        [
          -112.25259758467,
          -123.77327828175,
          -44.548809037674
        ],
        [
          -112.18822170729,
          -123.89631180531,
          -41.552024827469
        ],
        [
          -112.12384630675,
          -124.01934342152,
          -38.555240617264
        ],
        [
          -112.05947042937,
          -124.14237694508,
          -35.558456407059
        ],
        [
          -111.99509455199,
          -124.26540856129,
          -32.561670289505
        ],
        [
          -111.93071867461,
          -124.38844208485,
          -29.5648860793
        ],
        [
          -111.86634327407,
          -124.51147370106,
          -26.568099961746
        ],
        [
          -111.80196739669,
          -124.63450722462,
          -23.571315751541
        ],
        [
          -111.7375915193,
          -124.75754074818,
          -20.574531541336
        ],
        [
          -111.67321611876,
          -124.88057236439,
          -17.577746377457
        ],
        [
          -111.60884024138,
          -125.00360588795,
          -14.580962167252
        ],
        [
          -111.544464364,
          -125.12663750416,
          -11.584177003372
        ],
        [
          -111.48008896346,
          -125.24967102772,
          -8.5873923163299
        ],
        [
          -111.41571308608,
          -125.37270264393,
          -5.5906076292877
        ],
        [
          -111.3513372087,
          -125.49573616749,
          -2.5938228826408
        ],
        [
          -111.28696180815,
          -125.6187677837,
          0.40296174479677
        ],
        [
          -111.22258593077,
          -125.74180130726,
          3.399746431839
        ],
        [
          -111.15821005339,
          -125.86483483082,
          6.3965311188812
        ],
        [
          -111.09383417601,
          -125.98786644703,
          9.3933162827606
        ],
        [
          -111.02945877547,
          -126.11089997059,
          12.390100492966
        ],
        [
          -110.96508289809,
          -126.2339315868,
          15.386884703171
        ],
        [
          -110.90070702071,
          -126.35696511036,
          18.383670820725
        ],
        [
          -110.83633162017,
          -126.47999672657,
          21.38045503093
        ],
        [
          -110.77195574278,
          -126.60303025013,
          24.377239241135
        ],
        [
          -110.7075798654,
          -126.72606377369,
          27.37402345134
        ],
        [
          -110.64320446486,
          -126.8490953899,
          30.370807661545
        ],
        [
          -110.57882858748,
          -126.97212891346,
          33.367595686447
        ],
        [
          -110.5144527101,
          -127.09516052967,
          36.364379896652
        ],
        [
          -110.45007730956,
          -127.21819405323,
          39.361164106857
        ],
        [
          -110.38570143218,
          -127.34122566944,
          42.357948317062
        ],
        [
          -110.3213255548,
          -127.464259193,
          45.354732527267
        ],
        [
          -110.25695015425,
          -127.58729271656,
          48.351516737473
        ],
        [
          -110.19257427687,
          -127.71032433277,
          51.348300947678
        ],
        [
          -110.12819839949,
          -127.83335785633,
          54.345085157883
        ],
        [
          -110.06382252211,
          -127.95638947254,
          57.341873182785
        ],
        [
          -109.99944712157,
          -128.0794229961,
          60.33865739299
        ],
        [
          -109.93507124419,
          -128.20245461231,
          63.335437788498
        ]
      ],
      "InstanceCreationTime": [
        "175000.010000",
        "174959.964000",
        "175000.012000",
        "174959.966000",
        "175000.014000",
        "174959.968000",
        "175000.017000",
        "174959.970000",
        "175000.019000",
        "174959.973000",
        "175000.021000",
        "174959.975000",
        "175000.023000",
        "174959.977000",
        "175000.025000",
        "174959.979000",
        "175000.027000",
        "174959.981000",
        "175000.030000",
        "174959.984000",
        "175000.032000",
        "174959.986000",
        "175000.034000",
        "174959.988000",
        "175000.036000",
        "174959.990000",
        "175000.038000",
        "174959.992000",
        "175000.040000",
        "174959.994000",
        "175000.042000",
        "174959.996000",
        "175000.045000",
        "174959.998000",
        "175000.047000",
        "175000.002000",
        "175000.049000",
        "175000.004000",
        "175000.051000",
        "175000.006000",
        "175000.053000",
        "175000.008000"
      ],
      "InstanceNumber": [
        1,
        2,
        3,
        4,
        5,
        6,
        7,
        8,
        9,
        10,
        11,
        12,
        13,
        14,
        15,
        16,
        17,
        18,
        19,
        20,
        21,
        22,
        23,
        24,
        25,
        26,
        27,
        28,
        29,
        30,
        31,
        32,
        33,
        34,
        35,
        36,
        37,
        38,
        39,
        40,
        41,
        42
      ],
      "LargestImagePixelValue": [
        4093,
        4094,
        4091,
        4090,
        4091,
        4094,
        4092,
        4088,
        4091,
        4094,
        4094,
        4093,
        4087,
        4085,
        4089,
        4091,
        4007,
        4091,
        4094,
        4094,
        4059,
        4087,
        4062,
        4063,
        4075,
        4084,
        4085,
        4066,
        4085,
        4047,
        4053,
        4041,
        4095,
        4079,
        4087,
        4092,
        4088,
        4091,
        4094,
        4094,
        4092,
        4094
      ],
      "SliceLocation": [
        -56.833791732507,
        -53.833792225399,
        -50.833788975672,
        -47.833789458332,
        -44.833790029446,
        -41.833790512106,
        -38.833790994766,
        -35.83379156588,
        -32.83379204854,
        -29.833790704117,
        -26.833791186777,
        -23.833789852586,
        -20.833790335246,
        -17.833790817906,
        -14.833790436368,
        -11.833790919028,
        -8.8337905272572,
        -5.8337905438231,
        -2.8337906283789,
        0.16620942482825,
        3.1662092704995,
        6.1662092641659,
        9.1662092578322,
        12.166209649603,
        15.166209156711,
        18.166208595829,
        21.166210018473,
        24.166209447359,
        27.1662089647,
        30.16620848204,
        33.166207910926,
        36.166211238875,
        39.166210677993,
        42.166210185101,
        45.166209624219,
        48.166209141559,
        51.166208648667,
        54.166208087786,
        57.166207605126,
        60.166210854853,
        63.166210361961,
        66.16620599047
      ],
      "SmallestImagePixelValue": [
        1,
        1,
        1,
        0,
        0,
        2,
        0,
        0,
        4,
        8,
        0,
        1,
        4,
        1,
        45,
        21,
        11,
        20,
        9,
        0,
        16,
        52,
        9,
        66,
        13,
        0,
        28,
        17,
        13,
        14,
        35,
        0,
        5,
        7,
        5,
        14,
        0,
        1,
        0,
        1,
        0,
        0
      ],
      "WindowCenter": [
        -264.0,
        -324.0,
        -258.0,
        -316.0,
        -282.0,
        -298.0,
        -292.0,
        -296.0,
        -304.0,
        -334.0,
        -304.0,
        -308.0,
        -388.0,
        -144.0,
        -146.0,
        -118.0,
        -270.0,
        -292.0,
        -282.0,
        -266.0,
        -246.0,
        -214.0,
        -208.0,
        -198.0,
        -86.0,
        -88.0,
        -48.0,
        -40.0,
        -162.0,
        -54.0,
        -182.0,
        -196.0,
        -198.0,
        -178.0,
        -156.0,
        -194.0,
        -84.0,
        -128.0,
        -130.0,
        -148.0,
        -148.0,
        -242.0
      ],
      "WindowWidth": [
        6084.0,
        6114.0,
        6184.0,
        6208.0,
        6144.0,
        6150.0,
        6154.0,
        6016.0,
        5816.0,
        5578.0,
        5580.0,
        5368.0,
        4708.0,
        5470.0,
        5392.0,
        5274.0,
        4602.0,
        4636.0,
        4610.0,
        4604.0,
        4580.0,
        4560.0,
        4548.0,
        4544.0,
        4976.0,
        4990.0,
        5096.0,
        5044.0,
        4520.0,
        5000.0,
        4530.0,
        4552.0,
        4570.0,
        4562.0,
        4576.0,
        4618.0,
        5330.0,
        5470.0,
        5590.0,
        5770.0,
        5900.0,
        5848.0
      ]
    }
  }
}