{
  "AcquisitionMatrixPE": 72,
  "AcquisitionNumber": 1,
  "AcquisitionTime": "15:41:25.465000",
  "BandwidthPerPixelPhaseEncode": 17.943,
  "BaseResolution": 96,
  "BodyPartExamined": "BRAIN",
  "CoilCombinationMethod": "Sum of Squares",
  "ConsistencyInfo": "N4_VE11C_LATEST_20160120",
  "ConversionSoftware": "dcm2niix",
  "ConversionSoftwareVersion": "v1.0.20211006",
  "DerivedVendorReportedEchoSpacing": 0.000552897,
  "DeviceSerialNumber": "166011",
  "EchoTime": 0.03,
  "EchoTrainLength": 58,
  "EffectiveEchoSpacing": 0.000580542,
  "FlipAngle": 62,
  "ImageOrientationPatientDICOM": [0.996811, -0.0265968, 0.0752299, 0.0395133, 0.983631, -0.175806],
  "ImageType": [
    "ORIGINAL",
    "PRIMARY",
    "M",
    "ND",
    "MOSAIC"
],
  "ImagingFrequency": 123.259,
  "InPlanePhaseEncodingDirectionDICOM": "COL",
  "InstitutionAddress": "West 130th Street 610,NY,NYC,US,10025",
  "InstitutionName": "MBBI",
  "MRAcquisitionType": "2D",
  "MagneticFieldStrength": 3,
  "Manufacturer": "Siemens",
  "ManufacturersModelName": "Prisma",
  "Modality": "MR",
  "MultibandAccelerationFactor": 3,
  "PartialFourier": 0.75,
  "PatientPosition": "HFS",
  "PercentPhaseFOV": 100,
  "PercentSampling": 75,
  "PhaseEncodingDirection": "j-",
  "PhaseEncodingSteps": 58,
  "PhaseOversampling": 0.05,
  "PhaseResolution": 0.75,
  "PixelBandwidth": 2265,
  "ProcedureStepDescription": "White^Word_recognition",
  "ProtocolName": "func_vwfate_run17",
  "PulseSequenceDetails": "%SiemensSeq%\\ep2d_bold",
  "ReceiveCoilActiveElements": "HC1-7",
  "ReceiveCoilName": "HeadNeck_64",
  "ReconMatrixPE": 96,
  "RefLinesPE": 40,
  "RepetitionTime": 1.5,
  "SAR": 0.0525387,
  "ScanOptions": "PFP\\FS",
  "ScanningSequence": "EP",
  "SequenceName": "*epfid2d1_72",
  "SequenceVariant": "SK\\OSP",
  "SeriesDescription": "func_vwfate_run17",
  "SeriesNumber": 12,
  "ShimSetting": [-1133, -1332, 660, 409, -123, -40, -4, -4],
  "SliceThickness": 2,
  "SliceTiming": [1.0775, 0, 0.74, 0.0675, 0.8075, 0.135, 0.875, 0.2025, 0.9425, 0.27, 1.01, 0.4025, 1.1425, 0.47, 1.21, 0.5375, 1.2775, 0.605, 1.345, 0.6725, 1.4125, 0.3375, 1.0775, 0, 0.74, 0.0675, 0.8075, 0.135, 0.875, 0.2025, 0.9425, 0.27, 1.01, 0.4025, 1.1425, 0.47, 1.21, 0.5375, 1.2775, 0.605, 1.345, 0.6725, 1.4125, 0.3375, 1.0775, 0, 0.74, 0.0675, 0.8075, 0.135, 0.875, 0.2025, 0.9425, 0.27, 1.01, 0.4025, 1.1425, 0.47, 1.21, 0.5375, 1.2775, 0.605, 1.345, 0.6725, 1.4125, 0.3375],
  "SoftwareVersions": "syngo MR E11",
  "SpacingBetweenSlices": 2,
  "StationName": "AWP166011",
  "TaskName": "vwfate",
  "TotalReadoutTime": 0.0551515,
  "TxRefAmp": 245.956,
  "dcmmeta_affine": [
    [-1.993622899055481, 0.07902663201093674, 0.1386452317237854, 93.43112182617188],
    [0.053193554282188416, 1.967262864112854, -0.3564368784427643, -63.27562713623047],
    [0.15045981109142303, 0.3516128361225128, 1.9630920886993408, -89.84494018554688],
    [0.0, 0.0, 0.0, 1.0]
],
  "dcmmeta_reorient_transform": [
    [0.0, -1.0, 0.0, 95.0],
    [1.0, 0.0, 0.0, 0.0],
    [0.0, 0.0, 1.0, 0.0],
    [0.0, 0.0, 0.0, 1.0]
],
  "dcmmeta_shape": [96, 96, 66, 164],
  "dcmmeta_slice_dim": 2,
  "dcmmeta_version": 0.6,
  "global": {
    "const": {
      "AcquisitionMatrix": [96, 0, 0, 72],
      "AngioFlag": "N",
      "BitsAllocated": 16,
      "BitsStored": 12,
      "BodyPartExamined": "BRAIN",
      "Columns": 864,
      "EchoNumbers": 1,
      "EchoTime": 30.0,
      "EchoTrainLength": 58,
      "FlipAngle": 62.0,
      "HighBit": 11,
      "ImageOrientationPatient": [0.99681145285889, -0.0265967774638, 0.07522990680506, 0.03951331676275, 0.98363143603161, -0.1758064158351],
      "ImagePositionPatient": [-896.83607228184, -858.61696439649, 20.801035015364],
      "ImageType": [
        "ORIGINAL",
        "PRIMARY",
        "M",
        "ND",
        "MOSAIC"
],
      "ImagedNucleus": "1H",
      "ImagingFrequency": 123.259467,
      "InPlanePhaseEncodingDirection": "COL",
      "MRAcquisitionType": "2D",
      "MagneticFieldStrength": 3.0,
      "Manufacturer": "SIEMENS",
      "ManufacturerModelName": "Prisma",
      "Modality": "MR",
      "NumberOfAverages": 1.0,
      "NumberOfPhaseEncodingSteps": 58,
      "PercentPhaseFieldOfView": 100.0,
      "PercentSampling": 75.0,
      "PerformedProcedureStepStartTime": "144608.581000",
      "PhotometricInterpretation": "MONOCHROME2",
      "PixelBandwidth": 2265.0,
      "PixelRepresentation": 0,
      "PixelSpacing": [2.0, 2.0],
      "ProtocolName": "func_vwfate_run17",
      "RepetitionTime": 1500.0,
      "Rows": 864,
      "SAR": 0.05253873402972,
      "SamplesPerPixel": 1,
      "ScanOptions": [
        "PFP",
        "FS"
],
      "ScanningSequence": "EP",
      "SequenceName": "*epfid2d1_72",
      "SequenceVariant": [
        "SK",
        "OSP"
],
      "SeriesDescription": "func_vwfate_run17",
      "SeriesNumber": 12,
      "SeriesTime": "154203.026000",
      "SliceLocation": -70.433172465681,
      "SliceThickness": 2.0,
      "SmallestImagePixelValue": 0,
      "SoftwareVersions": "syngo MR E11",
      "SpacingBetweenSlices": 2.0000000280681,
      "SpecificCharacterSet": "ISO_IR 100",
      "StudyID": "3",
      "StudyTime": "144608.516000",
      "TransmitCoilName": "Body",
      "VariableFlipAngleFlag": "N",
      "WindowCenterWidthExplanation": "Algo1",
      "dBdt": 0.0},
    "slices": {}
  },
  "time": {
    "samples": {
      "AcquisitionNumber": [1, 2, 3, 4, 5, 6, 7, 8, 9, 10, 11, 12, 13, 14, 15, 16, 17, 18, 19, 20, 21, 22, 23, 24, 25, 26, 27, 28, 29, 30, 31, 32, 33, 34, 35, 36, 37, 38, 39, 40, 41, 42, 43, 44, 45, 46, 47, 48, 49, 50, 51, 52, 53, 54, 55, 56, 57, 58, 59, 60, 61, 62, 63, 64, 65, 66, 67, 68, 69, 70, 71, 72, 73, 74, 75, 76, 77, 78, 79, 80, 81, 82, 83, 84, 85, 86, 87, 88, 89, 90, 91, 92, 93, 94, 95, 96, 97, 98, 99, 100, 101, 102, 103, 104, 105, 106, 107, 108, 109, 110, 111, 112, 113, 114, 115, 116, 117, 118, 119, 120, 121, 122, 123, 124, 125, 126, 127, 128, 129, 130, 131, 132, 133, 134, 135, 136, 137, 138, 139, 140, 141, 142, 143, 144, 145, 146, 147, 148, 149, 150, 151, 152, 153, 154, 155, 156, 157, 158, 159, 160, 161, 162, 163, 164],
      "AcquisitionTime": ["154125.465000", "154126.965000", "154128.465000", "154129.965000", "154131.465000", "154132.965000", "154134.465000", "154135.965000", "154137.465000", "154138.965000", "154140.465000", "154141.965000", "154143.465000", "154144.965000", "154146.465000", "154147.965000", "154149.465000", "154150.965000", "154152.465000", "154153.965000", "154155.465000", "154156.965000", "154158.465000", "154159.965000", "154201.465000", "154202.965000", "154204.465000", "154205.965000", "154207.465000", "154208.965000", "154210.465000", "154211.965000", "154213.465000", "154214.965000", "154216.465000", "154217.965000", "154219.465000", "154220.965000", "154222.465000", "154223.965000", "154225.465000", "154226.965000", "154228.465000", "154229.965000", "154231.465000", "154232.965000", "154234.465000", "154235.965000", "154237.465000", "154238.965000", "154240.465000", "154241.965000", "154243.465000", "154244.965000", "154246.465000", "154247.965000", "154249.465000", "154250.965000", "154252.465000", "154253.965000", "154255.465000", "154256.965000", "154258.465000", "154259.965000", "154301.465000", "154302.965000", "154304.465000", "154305.965000", "154307.465000", "154308.965000", "154310.465000", "154311.965000", "154313.465000", "154314.965000", "154316.465000", "154317.965000", "154319.465000", "154320.965000", "154322.465000", "154323.965000", "154325.465000", "154326.965000", "154328.465000", "154329.965000", "154331.465000", "154332.965000", "154334.465000", "154335.965000", "154337.465000", "154338.965000", "154340.465000", "154341.965000", "154343.465000", "154344.965000", "154346.465000", "154347.965000", "154349.465000", "154350.965000", "154352.465000", "154353.965000", "154355.465000", "154356.965000", "154358.465000", "154359.965000", "154401.465000", "154402.965000", "154404.465000", "154405.965000", "154407.465000", "154408.965000", "154410.465000", "154411.965000", "154413.465000", "154414.965000", "154416.465000", "154417.965000", "154419.465000", "154420.965000", "154422.465000", "154423.965000", "154425.465000", "154426.965000", "154428.465000", "154429.965000", "154431.465000", "154432.965000", "154434.465000", "154435.965000", "154437.465000", "154438.965000", "154440.465000", "154441.965000", "154443.465000", "154444.965000", "154446.465000", "154447.965000", "154449.465000", "154450.965000", "154452.465000", "154453.965000", "154455.465000", "154456.965000", "154458.465000", "154459.965000", "154501.465000", "154502.965000", "154504.465000", "154505.965000", "154507.465000", "154508.965000", "154510.465000", "154511.965000", "154513.465000", "154514.965000", "154516.465000", "154517.965000", "154519.465000", "154520.965000", "154522.465000", "154523.965000", "154525.465000", "154526.965000", "154528.465000", "154529.965000"],
      "ContentTime": ["154203.030000", "154203.034000", "154203.036000", "154203.045000", "154203.049000", "154203.052000", "154203.055000", "154203.057000", "154203.060000", "154203.063000", "154203.066000", "154203.069000", "154203.072000", "154203.076000", "154203.078000", "154203.087000", "154203.097000", "154203.100000", "154203.103000", "154203.106000", "154203.108000", "154203.112000", "154203.114000", "154203.117000", "154203.120000", "154243.025000", "154243.028000", "154243.031000", "154243.043000", "154243.046000", "154243.048000", "154243.051000", "154243.055000", "154243.057000", "154243.060000", "154243.063000", "154243.066000", "154243.069000", "154243.072000", "154243.075000", "154243.078000", "154243.081000", "154243.084000", "154243.087000", "154243.090000", "154243.095000", "154243.098000", "154243.101000", "154243.106000", "154243.109000", "154243.112000", "154323.025000", "154323.036000", "154323.039000", "154323.042000", "154323.045000", "154323.048000", "154323.051000", "154323.054000", "154323.057000", "154323.060000", "154323.063000", "154323.066000", "154323.069000", "154323.072000", "154323.075000", "154323.078000", "154323.081000", "154323.084000", "154323.087000", "154323.090000", "154323.093000", "154323.096000", "154323.099000", "154323.102000", "154323.105000", "154323.108000", "154323.110000", "154403.024000", "154403.027000", "154403.030000", "154403.033000", "154403.036000", "154403.039000", "154403.042000", "154403.045000", "154403.048000", "154403.072000", "154403.075000", "154403.078000", "154403.081000", "154403.084000", "154403.087000", "154403.090000", "154403.093000", "154403.096000", "154403.099000", "154403.102000", "154403.105000", "154403.108000", "154403.111000", "154403.114000", "154403.117000", "154403.120000", "154403.123000", "154443.025000", "154443.028000", "154443.031000", "154443.034000", "154443.037000", "154443.040000", "154443.043000", "154443.046000", "154443.049000", "154443.052000", "154443.055000", "154443.058000", "154443.061000", "154443.076000", "154443.079000", "154443.082000", "154443.085000", "154443.088000", "154443.091000", "154443.094000", "154443.097000", "154443.100000", "154443.104000", "154443.108000", "154443.111000", "154443.114000", "154523.025000", "154523.028000", "154523.031000", "154523.034000", "154523.037000", "154523.040000", "154523.043000", "154523.046000", "154523.049000", "154523.052000", "154523.055000", "154523.058000", "154523.061000", "154523.064000", "154523.067000", "154523.070000", "154523.073000", "154523.076000", "154523.079000", "154523.082000", "154523.085000", "154523.088000", "154523.091000", "154523.094000", "154523.097000", "154523.100000", "154523.103000", "154531.375000", "154531.378000", "154531.381000", "154531.384000", "154531.388000", "154531.391000"],
      "InstanceCreationTime": ["154203.030000", "154203.034000", "154203.036000", "154203.045000", "154203.049000", "154203.052000", "154203.055000", "154203.057000", "154203.060000", "154203.063000", "154203.066000", "154203.069000", "154203.072000", "154203.076000", "154203.078000", "154203.087000", "154203.097000", "154203.100000", "154203.103000", "154203.106000", "154203.108000", "154203.112000", "154203.114000", "154203.117000", "154203.120000", "154243.025000", "154243.028000", "154243.031000", "154243.043000", "154243.046000", "154243.048000", "154243.051000", "154243.055000", "154243.057000", "154243.060000", "154243.063000", "154243.066000", "154243.069000", "154243.072000", "154243.075000", "154243.078000", "154243.081000", "154243.084000", "154243.087000", "154243.090000", "154243.095000", "154243.098000", "154243.101000", "154243.106000", "154243.109000", "154243.112000", "154323.025000", "154323.036000", "154323.039000", "154323.042000", "154323.045000", "154323.048000", "154323.051000", "154323.054000", "154323.057000", "154323.060000", "154323.063000", "154323.066000", "154323.069000", "154323.072000", "154323.075000", "154323.078000", "154323.081000", "154323.084000", "154323.087000", "154323.090000", "154323.093000", "154323.096000", "154323.099000", "154323.102000", "154323.105000", "154323.108000", "154323.110000", "154403.024000", "154403.027000", "154403.030000", "154403.033000", "154403.036000", "154403.039000", "154403.042000", "154403.045000", "154403.048000", "154403.072000", "154403.075000", "154403.078000", "154403.081000", "154403.084000", "154403.087000", "154403.090000", "154403.093000", "154403.096000", "154403.099000", "154403.102000", "154403.105000", "154403.108000", "154403.111000", "154403.114000", "154403.117000", "154403.120000", "154403.123000", "154443.025000", "154443.028000", "154443.031000", "154443.034000", "154443.037000", "154443.040000", "154443.043000", "154443.046000", "154443.049000", "154443.052000", "154443.055000", "154443.058000", "154443.061000", "154443.076000", "154443.079000", "154443.082000", "154443.085000", "154443.088000", "154443.091000", "154443.094000", "154443.097000", "154443.100000", "154443.104000", "154443.108000", "154443.111000", "154443.114000", "154523.025000", "154523.028000", "154523.031000", "154523.034000", "154523.037000", "154523.040000", "154523.043000", "154523.046000", "154523.049000", "154523.052000", "154523.055000", "154523.058000", "154523.061000", "154523.064000", "154523.067000", "154523.070000", "154523.073000", "154523.076000", "154523.079000", "154523.082000", "154523.085000", "154523.088000", "154523.091000", "154523.094000", "154523.097000", "154523.100000", "154523.103000", "154531.375000", "154531.378000", "154531.381000", "154531.384000", "154531.388000", "154531.391000"],
      "InstanceNumber": [1, 2, 3, 4, 5, 6, 7, 8, 9, 10, 11, 12, 13, 14, 15, 16, 17, 18, 19, 20, 21, 22, 23, 24, 25, 26, 27, 28, 29, 30, 31, 32, 33, 34, 35, 36, 37, 38, 39, 40, 41, 42, 43, 44, 45, 46, 47, 48, 49, 50, 51, 52, 53, 54, 55, 56, 57, 58, 59, 60, 61, 62, 63, 64, 65, 66, 67, 68, 69, 70, 71, 72, 73, 74, 75, 76, 77, 78, 79, 80, 81, 82, 83, 84, 85, 86, 87, 88, 89, 90, 91, 92, 93, 94, 95, 96, 97, 98, 99, 100, 101, 102, 103, 104, 105, 106, 107, 108, 109, 110, 111, 112, 113, 114, 115, 116, 117, 118, 119, 120, 121, 122, 123, 124, 125, 126, 127, 128, 129, 130, 131, 132, 133, 134, 135, 136, 137, 138, 139, 140, 141, 142, 143, 144, 145, 146, 147, 148, 149, 150, 151, 152, 153, 154, 155, 156, 157, 158, 159, 160, 161, 162, 163, 164],
      "LargestImagePixelValue": [3065, 2995, 2971, 2958, 2955, 2959, 2951, 2966, 2942, 2902, 2956, 2922, 2941, 2951, 2952, 2943, 2946, 2955, 2943, 2933, 2975, 2950, 2972, 2945, 2964, 2948, 2906, 2937, 2929, 2957, 2942, 2941, 2940, 2973, 2992, 2996, 2950, 2956, 2980, 2950, 2965, 2931, 2692, 3194, 3064, 2967, 2985, 2925, 2959, 2931, 2924, 2928, 2926, 2966, 2959, 2946, 2951, 2977, 2982, 2991, 2971, 2961, 2976, 2958, 2964, 2948, 2974, 2982, 2949, 2969, 2953, 2984, 2962, 2973, 2979, 2980, 2985, 2977, 2997, 3007, 2986, 2968, 2968, 2990, 2982, 3001, 3003, 2958, 2991, 3024, 3001, 3043, 3020, 3018, 3016, 3017, 3009, 3009, 3072, 3051, 3067, 3035, 3077, 3033, 3071, 3039, 3055, 3001, 3076, 3030, 3065, 3031, 3010, 3009, 3004, 3039, 3048, 3048, 3044, 3032, 3008, 3010, 3028, 2987, 3001, 3040, 2996, 2969, 3017, 3054, 2999, 3094, 3039, 3055, 3036, 3029, 2970, 3005, 2991, 2993, 2961, 3042, 2975, 3087, 2997, 3086, 2986, 2972, 2943, 3019, 2958, 3079, 3015, 3001, 2994, 3007, 3037, 3033, 2956, 2972, 2972, 2934, 2929, 2930],
      "WindowCenter": [766.0, 766.0, 766.0, 767.0, 768.0, 769.0, 768.0, 770.0, 770.0, 769.0, 769.0, 769.0, 769.0, 770.0, 770.0, 771.0, 770.0, 770.0, 769.0, 768.0, 769.0, 769.0, 770.0, 770.0, 769.0, 770.0, 770.0, 771.0, 771.0, 772.0, 771.0, 771.0, 771.0, 771.0, 772.0, 771.0, 770.0, 771.0, 771.0, 771.0, 770.0, 770.0, 761.0, 773.0, 771.0, 770.0, 770.0, 769.0, 768.0, 767.0, 766.0, 767.0, 768.0, 769.0, 769.0, 769.0, 769.0, 770.0, 771.0, 770.0, 770.0, 770.0, 771.0, 771.0, 771.0, 770.0, 770.0, 769.0, 769.0, 769.0, 770.0, 770.0, 769.0, 770.0, 769.0, 769.0, 770.0, 770.0, 770.0, 770.0, 770.0, 770.0, 771.0, 771.0, 771.0, 771.0, 771.0, 770.0, 771.0, 770.0, 771.0, 771.0, 771.0, 770.0, 770.0, 769.0, 769.0, 769.0, 770.0, 771.0, 771.0, 771.0, 772.0, 771.0, 770.0, 769.0, 769.0, 769.0, 769.0, 771.0, 770.0, 770.0, 771.0, 770.0, 770.0, 770.0, 770.0, 770.0, 770.0, 770.0, 769.0, 770.0, 770.0, 770.0, 770.0, 772.0, 772.0, 773.0, 773.0, 771.0, 770.0, 771.0, 771.0, 772.0, 771.0, 771.0, 771.0, 770.0, 770.0, 769.0, 769.0, 769.0, 769.0, 770.0, 772.0, 773.0, 772.0, 771.0, 770.0, 771.0, 770.0, 770.0, 769.0, 769.0, 768.0, 769.0, 768.0, 768.0, 768.0, 767.0, 767.0, 768.0, 768.0, 767.0],
      "WindowWidth": [1636.0, 1635.0, 1637.0, 1639.0, 1641.0, 1643.0, 1642.0, 1647.0, 1645.0, 1644.0, 1644.0, 1643.0, 1644.0, 1645.0, 1647.0, 1647.0, 1647.0, 1647.0, 1644.0, 1642.0, 1644.0, 1645.0, 1647.0, 1646.0, 1644.0, 1646.0, 1646.0, 1650.0, 1649.0, 1650.0, 1648.0, 1649.0, 1648.0, 1650.0, 1650.0, 1649.0, 1647.0, 1649.0, 1649.0, 1647.0, 1645.0, 1645.0, 1623.0, 1653.0, 1649.0, 1647.0, 1646.0, 1643.0, 1640.0, 1639.0, 1637.0, 1639.0, 1640.0, 1643.0, 1643.0, 1642.0, 1643.0, 1645.0, 1648.0, 1646.0, 1645.0, 1646.0, 1648.0, 1649.0, 1647.0, 1646.0, 1646.0, 1644.0, 1643.0, 1644.0, 1645.0, 1646.0, 1644.0, 1644.0, 1643.0, 1643.0, 1644.0, 1645.0, 1645.0, 1646.0, 1645.0, 1646.0, 1647.0, 1648.0, 1649.0, 1648.0, 1649.0, 1647.0, 1648.0, 1647.0, 1648.0, 1649.0, 1649.0, 1647.0, 1645.0, 1643.0, 1644.0, 1643.0, 1646.0, 1648.0, 1650.0, 1649.0, 1650.0, 1648.0, 1646.0, 1644.0, 1643.0, 1643.0, 1644.0, 1647.0, 1647.0, 1647.0, 1648.0, 1647.0, 1645.0, 1646.0, 1645.0, 1644.0, 1645.0, 1645.0, 1644.0, 1645.0, 1645.0, 1645.0, 1647.0, 1651.0, 1652.0, 1654.0, 1653.0, 1649.0, 1645.0, 1647.0, 1649.0, 1652.0, 1648.0, 1647.0, 1647.0, 1644.0, 1645.0, 1643.0, 1643.0, 1644.0, 1643.0, 1647.0, 1649.0, 1653.0, 1650.0, 1648.0, 1646.0, 1647.0, 1644.0, 1646.0, 1642.0, 1643.0, 1641.0, 1642.0, 1641.0, 1641.0, 1639.0, 1637.0, 1639.0, 1640.0, 1641.0, 1639.0]
    },
    "slices": {}
  }
}