{
  "AcquisitionMatrixPE": 72,
  "AcquisitionNumber": 1,
  "AcquisitionTime": "15:20:17.402500",
  "BandwidthPerPixelPhaseEncode": 17.943,
  "BaseResolution": 96,
  "BodyPartExamined": "BRAIN",
  "CoilCombinationMethod": "Sum of Squares",
  "ConsistencyInfo": "N4_VE11C_LATEST_20160120",
  "ConversionSoftware": "dcm2niix",
  "ConversionSoftwareVersion": "v1.0.20211006",
  "DerivedVendorReportedEchoSpacing": 0.000552897,
  "DeviceSerialNumber": "166011",
  "EchoTime": 0.03,
  "EchoTrainLength": 58,
  "EffectiveEchoSpacing": 0.000580542,
  "FlipAngle": 62,
  "ImageOrientationPatientDICOM": [0.996811, -0.0265968, 0.0752299, 0.0395133, 0.983631, -0.175806],
  "ImageType": [
    "ORIGINAL",
    "PRIMARY",
    "M",
    "ND",
    "MOSAIC"
],
  "ImagingFrequency": 123.259,
  "InPlanePhaseEncodingDirectionDICOM": "COL",
  "InstitutionAddress": "West 130th Street 610,NY,NYC,US,10025",
  "InstitutionName": "MBBI",
  "MRAcquisitionType": "2D",
  "MagneticFieldStrength": 3,
  "Manufacturer": "Siemens",
  "ManufacturersModelName": "Prisma",
  "Modality": "MR",
  "MultibandAccelerationFactor": 3,
  "PartialFourier": 0.75,
  "PatientPosition": "HFS",
  "PercentPhaseFOV": 100,
  "PercentSampling": 75,
  "PhaseEncodingDirection": "j-",
  "PhaseEncodingSteps": 58,
  "PhaseOversampling": 0.05,
  "PhaseResolution": 0.75,
  "PixelBandwidth": 2265,
  "ProcedureStepDescription": "White^Word_recognition",
  "ProtocolName": "func_vwfate_run13",
  "PulseSequenceDetails": "%SiemensSeq%\\ep2d_bold",
  "ReceiveCoilActiveElements": "HC1-7",
  "ReceiveCoilName": "HeadNeck_64",
  "ReconMatrixPE": 96,
  "RefLinesPE": 40,
  "RepetitionTime": 1.5,
  "SAR": 0.0525387,
  "ScanOptions": "PFP\\FS",
  "ScanningSequence": "EP",
  "SequenceName": "*epfid2d1_72",
  "SequenceVariant": "SK\\OSP",
  "SeriesDescription": "func_vwfate_run13",
  "SeriesNumber": 8,
  "ShimSetting": [-1133, -1332, 660, 409, -123, -40, -4, -4],
  "SliceThickness": 2,
  "SliceTiming": [1.0775, 0, 0.74, 0.0675, 0.8075, 0.135, 0.875, 0.2025, 0.9425, 0.27, 1.01, 0.405, 1.145, 0.4725, 1.2125, 0.54, 1.28, 0.6075, 1.3475, 0.6725, 1.4125, 0.3375, 1.0775, 0, 0.74, 0.0675, 0.8075, 0.135, 0.875, 0.2025, 0.9425, 0.27, 1.01, 0.405, 1.145, 0.4725, 1.2125, 0.54, 1.28, 0.6075, 1.3475, 0.6725, 1.4125, 0.3375, 1.0775, 0, 0.74, 0.0675, 0.8075, 0.135, 0.875, 0.2025, 0.9425, 0.27, 1.01, 0.405, 1.145, 0.4725, 1.2125, 0.54, 1.28, 0.6075, 1.3475, 0.6725, 1.4125, 0.3375],
  "SoftwareVersions": "syngo MR E11",
  "SpacingBetweenSlices": 2,
  "StationName": "AWP166011",
  "TaskName": "vwfate",
  "TotalReadoutTime": 0.0551515,
  "TxRefAmp": 245.956,
  "dcmmeta_affine": [
    [-1.993622899055481, 0.07902663201093674, 0.1386452317237854, 93.43112182617188],
    [0.053193554282188416, 1.967262864112854, -0.3564368784427643, -63.27562713623047],
    [0.15045981109142303, 0.3516128361225128, 1.9630920886993408, -89.84494018554688],
    [0.0, 0.0, 0.0, 1.0]
],
  "dcmmeta_reorient_transform": [
    [0.0, -1.0, 0.0, 95.0],
    [1.0, 0.0, 0.0, 0.0],
    [0.0, 0.0, 1.0, 0.0],
    [0.0, 0.0, 0.0, 1.0]
],
  "dcmmeta_shape": [96, 96, 66, 164],
  "dcmmeta_slice_dim": 2,
  "dcmmeta_version": 0.6,
  "global": {
    "const": {
      "AcquisitionMatrix": [96, 0, 0, 72],
      "AngioFlag": "N",
      "BitsAllocated": 16,
      "BitsStored": 12,
      "BodyPartExamined": "BRAIN",
      "Columns": 864,
      "EchoNumbers": 1,
      "EchoTime": 30.0,
      "EchoTrainLength": 58,
      "FlipAngle": 62.0,
      "HighBit": 11,
      "ImageOrientationPatient": [0.99681145285889, -0.0265967774638, 0.07522990680506, 0.03951331676275, 0.98363143603161, -0.1758064158351],
      "ImagePositionPatient": [-896.83607228184, -858.61696439649, 20.801035015364],
      "ImageType": [
        "ORIGINAL",
        "PRIMARY",
        "M",
        "ND",
        "MOSAIC"
],
      "ImagedNucleus": "1H",
      "ImagingFrequency": 123.259454,
      "InPlanePhaseEncodingDirection": "COL",
      "MRAcquisitionType": "2D",
      "MagneticFieldStrength": 3.0,
      "Manufacturer": "SIEMENS",
      "ManufacturerModelName": "Prisma",
      "Modality": "MR",
      "NumberOfAverages": 1.0,
      "NumberOfPhaseEncodingSteps": 58,
      "PercentPhaseFieldOfView": 100.0,
      "PercentSampling": 75.0,
      "PerformedProcedureStepStartTime": "144608.581000",
      "PhotometricInterpretation": "MONOCHROME2",
      "PixelBandwidth": 2265.0,
      "PixelRepresentation": 0,
      "PixelSpacing": [2.0, 2.0],
      "ProtocolName": "func_vwfate_run13",
      "RepetitionTime": 1500.0,
      "Rows": 864,
      "SAR": 0.05253873402972,
      "SamplesPerPixel": 1,
      "ScanOptions": [
        "PFP",
        "FS"
],
      "ScanningSequence": "EP",
      "SequenceName": "*epfid2d1_72",
      "SequenceVariant": [
        "SK",
        "OSP"
],
      "SeriesDescription": "func_vwfate_run13",
      "SeriesNumber": 8,
      "SeriesTime": "152057.493000",
      "SliceLocation": -70.433172465681,
      "SliceThickness": 2.0,
      "SmallestImagePixelValue": 0,
      "SoftwareVersions": "syngo MR E11",
      "SpacingBetweenSlices": 2.0000000280681,
      "SpecificCharacterSet": "ISO_IR 100",
      "StudyID": "3",
      "StudyTime": "144608.516000",
      "TransmitCoilName": "Body",
      "VariableFlipAngleFlag": "N",
      "WindowCenterWidthExplanation": "Algo1",
      "dBdt": 0.0},
    "slices": {}
  },
  "time": {
    "samples": {
      "AcquisitionNumber": [1, 2, 3, 4, 5, 6, 7, 8, 9, 10, 11, 12, 13, 14, 15, 16, 17, 18, 19, 20, 21, 22, 23, 24, 25, 26, 27, 28, 29, 30, 31, 32, 33, 34, 35, 36, 37, 38, 39, 40, 41, 42, 43, 44, 45, 46, 47, 48, 49, 50, 51, 52, 53, 54, 55, 56, 57, 58, 59, 60, 61, 62, 63, 64, 65, 66, 67, 68, 69, 70, 71, 72, 73, 74, 75, 76, 77, 78, 79, 80, 81, 82, 83, 84, 85, 86, 87, 88, 89, 90, 91, 92, 93, 94, 95, 96, 97, 98, 99, 100, 101, 102, 103, 104, 105, 106, 107, 108, 109, 110, 111, 112, 113, 114, 115, 116, 117, 118, 119, 120, 121, 122, 123, 124, 125, 126, 127, 128, 129, 130, 131, 132, 133, 134, 135, 136, 137, 138, 139, 140, 141, 142, 143, 144, 145, 146, 147, 148, 149, 150, 151, 152, 153, 154, 155, 156, 157, 158, 159, 160, 161, 162, 163, 164],
      "AcquisitionTime": ["152017.402500", "152018.902500", "152020.402500", "152021.902500", "152023.402500", "152024.902500", "152026.402500", "152027.902500", "152029.402500", "152030.902500", "152032.402500", "152033.902500", "152035.402500", "152036.902500", "152038.402500", "152039.902500", "152041.402500", "152042.902500", "152044.402500", "152045.902500", "152047.402500", "152048.902500", "152050.402500", "152051.902500", "152053.402500", "152054.902500", "152056.402500", "152057.902500", "152059.402500", "152100.902500", "152102.402500", "152103.902500", "152105.402500", "152106.902500", "152108.402500", "152109.902500", "152111.402500", "152112.902500", "152114.402500", "152115.902500", "152117.402500", "152118.902500", "152120.402500", "152121.902500", "152123.402500", "152124.902500", "152126.402500", "152127.902500", "152129.402500", "152130.902500", "152132.402500", "152133.902500", "152135.402500", "152136.902500", "152138.402500", "152139.902500", "152141.402500", "152142.902500", "152144.402500", "152145.902500", "152147.402500", "152148.902500", "152150.402500", "152151.902500", "152153.402500", "152154.902500", "152156.402500", "152157.902500", "152159.402500", "152200.902500", "152202.402500", "152203.902500", "152205.402500", "152206.902500", "152208.402500", "152209.902500", "152211.402500", "152212.902500", "152214.402500", "152215.902500", "152217.402500", "152218.902500", "152220.402500", "152221.902500", "152223.402500", "152224.902500", "152226.402500", "152227.902500", "152229.402500", "152230.902500", "152232.402500", "152233.902500", "152235.402500", "152236.902500", "152238.402500", "152239.902500", "152241.402500", "152242.902500", "152244.402500", "152245.902500", "152247.402500", "152248.902500", "152250.402500", "152251.902500", "152253.402500", "152254.902500", "152256.402500", "152257.902500", "152259.402500", "152300.902500", "152302.402500", "152303.902500", "152305.402500", "152306.902500", "152308.402500", "152309.902500", "152311.402500", "152312.902500", "152314.402500", "152315.902500", "152317.402500", "152318.902500", "152320.402500", "152321.902500", "152323.402500", "152324.902500", "152326.402500", "152327.902500", "152329.402500", "152330.902500", "152332.402500", "152333.902500", "152335.402500", "152336.902500", "152338.402500", "152339.902500", "152341.402500", "152342.902500", "152344.402500", "152345.902500", "152347.402500", "152348.902500", "152350.402500", "152351.902500", "152353.402500", "152354.902500", "152356.402500", "152357.902500", "152359.402500", "152400.902500", "152402.402500", "152403.902500", "152405.402500", "152406.902500", "152408.402500", "152409.902500", "152411.402500", "152412.902500", "152414.402500", "152415.902500", "152417.402500", "152418.902500", "152420.402500", "152421.902500"],
      "ContentTime": ["152057.497000", "152057.509000", "152057.512000", "152057.515000", "152057.524000", "152057.527000", "152057.530000", "152057.542000", "152057.544000", "152057.554000", "152057.557000", "152057.560000", "152057.563000", "152057.567000", "152057.570000", "152057.573000", "152057.576000", "152057.579000", "152057.582000", "152057.585000", "152057.588000", "152057.591000", "152057.594000", "152057.597000", "152057.600000", "152057.604000", "152057.607000", "152137.491000", "152137.494000", "152137.497000", "152137.501000", "152137.504000", "152137.508000", "152137.511000", "152137.514000", "152137.516000", "152137.520000", "152137.523000", "152137.526000", "152137.528000", "152137.531000", "152137.534000", "152137.537000", "152137.540000", "152137.543000", "152137.553000", "152137.556000", "152137.559000", "152137.562000", "152137.565000", "152137.568000", "152137.571000", "152137.574000", "152217.492000", "152217.495000", "152217.498000", "152217.501000", "152217.504000", "152217.507000", "152217.510000", "152217.513000", "152217.516000", "152217.519000", "152217.522000", "152217.525000", "152217.528000", "152217.531000", "152217.534000", "152217.537000", "152217.548000", "152217.551000", "152217.554000", "152217.557000", "152217.560000", "152217.563000", "152217.566000", "152217.569000", "152217.572000", "152217.575000", "152217.578000", "152257.492000", "152257.495000", "152257.498000", "152257.501000", "152257.504000", "152257.507000", "152257.510000", "152257.513000", "152257.516000", "152257.519000", "152257.522000", "152257.525000", "152257.528000", "152257.531000", "152257.534000", "152257.537000", "152257.540000", "152257.543000", "152257.546000", "152257.549000", "152257.552000", "152257.555000", "152257.558000", "152257.561000", "152257.564000", "152257.567000", "152257.570000", "152337.491000", "152337.494000", "152337.499000", "152337.502000", "152337.505000", "152337.508000", "152337.511000", "152337.514000", "152337.517000", "152337.520000", "152337.523000", "152337.526000", "152337.529000", "152337.532000", "152337.550000", "152337.554000", "152337.557000", "152337.560000", "152337.563000", "152337.566000", "152337.578000", "152337.581000", "152337.584000", "152337.587000", "152337.590000", "152337.593000", "152417.492000", "152417.496000", "152417.498000", "152417.501000", "152417.504000", "152417.507000", "152417.510000", "152417.513000", "152417.516000", "152417.519000", "152417.522000", "152417.525000", "152417.528000", "152417.531000", "152417.534000", "152417.537000", "152417.540000", "152417.543000", "152417.546000", "152417.549000", "152417.552000", "152417.556000", "152417.560000", "152417.562000", "152417.565000", "152417.569000", "152417.572000", "152422.782000", "152422.785000", "152422.789000", "152422.792000"],
      "InstanceCreationTime": ["152057.497000", "152057.509000", "152057.512000", "152057.515000", "152057.524000", "152057.527000", "152057.530000", "152057.542000", "152057.544000", "152057.554000", "152057.557000", "152057.560000", "152057.563000", "152057.567000", "152057.570000", "152057.573000", "152057.576000", "152057.579000", "152057.582000", "152057.585000", "152057.588000", "152057.591000", "152057.594000", "152057.597000", "152057.600000", "152057.604000", "152057.607000", "152137.491000", "152137.494000", "152137.497000", "152137.501000", "152137.504000", "152137.508000", "152137.511000", "152137.514000", "152137.516000", "152137.520000", "152137.523000", "152137.526000", "152137.528000", "152137.531000", "152137.534000", "152137.537000", "152137.540000", "152137.543000", "152137.553000", "152137.556000", "152137.559000", "152137.562000", "152137.565000", "152137.568000", "152137.571000", "152137.574000", "152217.492000", "152217.495000", "152217.498000", "152217.501000", "152217.504000", "152217.507000", "152217.510000", "152217.513000", "152217.516000", "152217.519000", "152217.522000", "152217.525000", "152217.528000", "152217.531000", "152217.534000", "152217.537000", "152217.548000", "152217.551000", "152217.554000", "152217.557000", "152217.560000", "152217.563000", "152217.566000", "152217.569000", "152217.572000", "152217.575000", "152217.578000", "152257.492000", "152257.495000", "152257.498000", "152257.501000", "152257.504000", "152257.507000", "152257.510000", "152257.513000", "152257.516000", "152257.519000", "152257.522000", "152257.525000", "152257.528000", "152257.531000", "152257.534000", "152257.537000", "152257.540000", "152257.543000", "152257.546000", "152257.549000", "152257.552000", "152257.555000", "152257.558000", "152257.561000", "152257.564000", "152257.567000", "152257.570000", "152337.491000", "152337.494000", "152337.499000", "152337.502000", "152337.505000", "152337.508000", "152337.511000", "152337.514000", "152337.517000", "152337.520000", "152337.523000", "152337.526000", "152337.529000", "152337.532000", "152337.550000", "152337.554000", "152337.557000", "152337.560000", "152337.563000", "152337.566000", "152337.578000", "152337.581000", "152337.584000", "152337.587000", "152337.590000", "152337.593000", "152417.492000", "152417.496000", "152417.498000", "152417.501000", "152417.504000", "152417.507000", "152417.510000", "152417.513000", "152417.516000", "152417.519000", "152417.522000", "152417.525000", "152417.528000", "152417.531000", "152417.534000", "152417.537000", "152417.540000", "152417.543000", "152417.546000", "152417.549000", "152417.552000", "152417.556000", "152417.560000", "152417.562000", "152417.565000", "152417.569000", "152417.572000", "152422.782000", "152422.785000", "152422.789000", "152422.792000"],
      "InstanceNumber": [1, 2, 3, 4, 5, 6, 7, 8, 9, 10, 11, 12, 13, 14, 15, 16, 17, 18, 19, 20, 21, 22, 23, 24, 25, 26, 27, 28, 29, 30, 31, 32, 33, 34, 35, 36, 37, 38, 39, 40, 41, 42, 43, 44, 45, 46, 47, 48, 49, 50, 51, 52, 53, 54, 55, 56, 57, 58, 59, 60, 61, 62, 63, 64, 65, 66, 67, 68, 69, 70, 71, 72, 73, 74, 75, 76, 77, 78, 79, 80, 81, 82, 83, 84, 85, 86, 87, 88, 89, 90, 91, 92, 93, 94, 95, 96, 97, 98, 99, 100, 101, 102, 103, 104, 105, 106, 107, 108, 109, 110, 111, 112, 113, 114, 115, 116, 117, 118, 119, 120, 121, 122, 123, 124, 125, 126, 127, 128, 129, 130, 131, 132, 133, 134, 135, 136, 137, 138, 139, 140, 141, 142, 143, 144, 145, 146, 147, 148, 149, 150, 151, 152, 153, 154, 155, 156, 157, 158, 159, 160, 161, 162, 163, 164],
      "LargestImagePixelValue": [3131, 3047, 3039, 3052, 3003, 2979, 2973, 2991, 2989, 2961, 2990, 2940, 2979, 2963, 2986, 2966, 2999, 2979, 2995, 2967, 2988, 2994, 3027, 3011, 3013, 2970, 2994, 3024, 3032, 3019, 2978, 2934, 2951, 2960, 2992, 2978, 2973, 3000, 3001, 2972, 2947, 2973, 2970, 2951, 2994, 2999, 3030, 3013, 3006, 3002, 3002, 3000, 3005, 3011, 3019, 3009, 2994, 2972, 2989, 2982, 2998, 2974, 2978, 2968, 3006, 2980, 3022, 2975, 3010, 2946, 2991, 2972, 3005, 2966, 2972, 2991, 2944, 2932, 2943, 2978, 2988, 2980, 2979, 2978, 2987, 2987, 2991, 2961, 3008, 2984, 2991, 2955, 2938, 2991, 2968, 3009, 2995, 3006, 2970, 2979, 2944, 2975, 2952, 2989, 2953, 2975, 2968, 2946, 2979, 2943, 2969, 2927, 3013, 2949, 2962, 2953, 2947, 2929, 2957, 2943, 2955, 2909, 2941, 2916, 2957, 2939, 2947, 2965, 2961, 2935, 2959, 2963, 2952, 2953, 2937, 2946, 2933, 2951, 2931, 2933, 2906, 2938, 2928, 2948, 2923, 2927, 2921, 2917, 2920, 2933, 2944, 2959, 2942, 2909, 2936, 2941, 2944, 2942, 2938, 2954, 2937, 2969, 2957, 2934],
      "WindowCenter": [774.0, 771.0, 771.0, 771.0, 771.0, 771.0, 771.0, 771.0, 770.0, 770.0, 770.0, 769.0, 769.0, 769.0, 769.0, 769.0, 770.0, 770.0, 770.0, 769.0, 769.0, 770.0, 770.0, 770.0, 771.0, 771.0, 770.0, 770.0, 771.0, 771.0, 771.0, 771.0, 771.0, 771.0, 770.0, 769.0, 769.0, 769.0, 770.0, 770.0, 770.0, 771.0, 771.0, 771.0, 771.0, 772.0, 772.0, 771.0, 771.0, 771.0, 771.0, 771.0, 770.0, 770.0, 769.0, 769.0, 769.0, 769.0, 770.0, 770.0, 770.0, 770.0, 771.0, 771.0, 771.0, 771.0, 770.0, 770.0, 770.0, 770.0, 770.0, 770.0, 769.0, 769.0, 769.0, 769.0, 768.0, 769.0, 769.0, 770.0, 770.0, 770.0, 770.0, 769.0, 768.0, 768.0, 769.0, 768.0, 768.0, 768.0, 769.0, 770.0, 770.0, 771.0, 770.0, 770.0, 769.0, 768.0, 768.0, 768.0, 769.0, 770.0, 770.0, 769.0, 769.0, 768.0, 767.0, 767.0, 768.0, 768.0, 769.0, 769.0, 770.0, 769.0, 769.0, 769.0, 768.0, 768.0, 769.0, 769.0, 769.0, 768.0, 768.0, 767.0, 768.0, 768.0, 769.0, 771.0, 771.0, 771.0, 770.0, 770.0, 770.0, 770.0, 770.0, 770.0, 770.0, 770.0, 770.0, 770.0, 769.0, 769.0, 769.0, 769.0, 769.0, 769.0, 769.0, 770.0, 770.0, 770.0, 770.0, 771.0, 771.0, 769.0, 769.0, 768.0, 767.0, 767.0, 767.0, 768.0, 768.0, 769.0, 769.0, 770.0],
      "WindowWidth": [1658.0, 1651.0, 1649.0, 1649.0, 1649.0, 1649.0, 1650.0, 1651.0, 1648.0, 1647.0, 1647.0, 1645.0, 1646.0, 1646.0, 1645.0, 1646.0, 1648.0, 1647.0, 1647.0, 1645.0, 1645.0, 1647.0, 1648.0, 1649.0, 1650.0, 1649.0, 1648.0, 1648.0, 1649.0, 1649.0, 1651.0, 1651.0, 1650.0, 1650.0, 1647.0, 1645.0, 1646.0, 1646.0, 1648.0, 1647.0, 1647.0, 1650.0, 1651.0, 1651.0, 1651.0, 1652.0, 1652.0, 1652.0, 1651.0, 1651.0, 1651.0, 1650.0, 1649.0, 1648.0, 1647.0, 1646.0, 1645.0, 1646.0, 1647.0, 1647.0, 1648.0, 1648.0, 1649.0, 1650.0, 1651.0, 1650.0, 1649.0, 1648.0, 1648.0, 1647.0, 1647.0, 1647.0, 1647.0, 1645.0, 1645.0, 1645.0, 1644.0, 1645.0, 1647.0, 1649.0, 1649.0, 1648.0, 1646.0, 1645.0, 1644.0, 1643.0, 1644.0, 1642.0, 1643.0, 1643.0, 1646.0, 1646.0, 1648.0, 1650.0, 1647.0, 1647.0, 1645.0, 1643.0, 1643.0, 1643.0, 1644.0, 1647.0, 1647.0, 1646.0, 1645.0, 1642.0, 1639.0, 1640.0, 1642.0, 1643.0, 1644.0, 1645.0, 1647.0, 1646.0, 1646.0, 1645.0, 1644.0, 1644.0, 1646.0, 1645.0, 1646.0, 1643.0, 1642.0, 1641.0, 1642.0, 1644.0, 1646.0, 1649.0, 1650.0, 1649.0, 1648.0, 1648.0, 1647.0, 1648.0, 1648.0, 1648.0, 1647.0, 1648.0, 1647.0, 1647.0, 1645.0, 1646.0, 1646.0, 1646.0, 1645.0, 1646.0, 1646.0, 1647.0, 1647.0, 1647.0, 1648.0, 1650.0, 1651.0, 1647.0, 1645.0, 1642.0, 1641.0, 1641.0, 1641.0, 1642.0, 1642.0, 1644.0, 1646.0, 1647.0]
    },
    "slices": {}
  }
}