{
  "AcquisitionMatrixPE": 72,
  "AcquisitionNumber": 1,
  "AcquisitionTime": "15:47:49.207500",
  "BandwidthPerPixelPhaseEncode": 17.943,
  "BaseResolution": 96,
  "BodyPartExamined": "BRAIN",
  "CoilCombinationMethod": "Sum of Squares",
  "ConsistencyInfo": "N4_VE11C_LATEST_20160120",
  "ConversionSoftware": "dcm2niix",
  "ConversionSoftwareVersion": "v1.0.20211006",
  "DerivedVendorReportedEchoSpacing": 0.000552897,
  "DeviceSerialNumber": "166011",
  "EchoTime": 0.03,
  "EchoTrainLength": 58,
  "EffectiveEchoSpacing": 0.000580542,
  "FlipAngle": 62,
  "ImageOrientationPatientDICOM": [0.996811, -0.0265968, 0.0752299, 0.0395133, 0.983631, -0.175806],
  "ImageType": [
    "ORIGINAL",
    "PRIMARY",
    "M",
    "ND",
    "MOSAIC"
],
  "ImagingFrequency": 123.259,
  "InPlanePhaseEncodingDirectionDICOM": "COL",
  "InstitutionAddress": "West 130th Street 610,NY,NYC,US,10025",
  "InstitutionName": "MBBI",
  "MRAcquisitionType": "2D",
  "MagneticFieldStrength": 3,
  "Manufacturer": "Siemens",
  "ManufacturersModelName": "Prisma",
  "Modality": "MR",
  "MultibandAccelerationFactor": 3,
  "PartialFourier": 0.75,
  "PatientPosition": "HFS",
  "PercentPhaseFOV": 100,
  "PercentSampling": 75,
  "PhaseEncodingDirection": "j-",
  "PhaseEncodingSteps": 58,
  "PhaseOversampling": 0.05,
  "PhaseResolution": 0.75,
  "PixelBandwidth": 2265,
  "ProcedureStepDescription": "White^Word_recognition",
  "ProtocolName": "func_language_run1",
  "PulseSequenceDetails": "%SiemensSeq%\\ep2d_bold",
  "ReceiveCoilActiveElements": "HC1-7",
  "ReceiveCoilName": "HeadNeck_64",
  "ReconMatrixPE": 96,
  "RefLinesPE": 40,
  "RepetitionTime": 1.5,
  "SAR": 0.0527603,
  "ScanOptions": "PFP\\FS",
  "ScanningSequence": "EP",
  "SequenceName": "*epfid2d1_72",
  "SequenceVariant": "SK\\OSP",
  "SeriesDescription": "func_language_run1",
  "SeriesNumber": 13,
  "ShimSetting": [-1133, -1332, 660, 409, -123, -40, -4, -4],
  "SliceThickness": 2,
  "SliceTiming": [1.075, 0, 0.74, 0.0675, 0.8075, 0.135, 0.875, 0.2, 0.94, 0.2675, 1.0075, 0.4025, 1.1425, 0.47, 1.21, 0.5375, 1.2775, 0.605, 1.345, 0.6725, 1.4125, 0.335, 1.075, 0, 0.74, 0.0675, 0.8075, 0.135, 0.875, 0.2, 0.94, 0.2675, 1.0075, 0.4025, 1.1425, 0.47, 1.21, 0.5375, 1.2775, 0.605, 1.345, 0.6725, 1.4125, 0.335, 1.075, 0, 0.74, 0.0675, 0.8075, 0.135, 0.875, 0.2, 0.94, 0.2675, 1.0075, 0.4025, 1.1425, 0.47, 1.21, 0.5375, 1.2775, 0.605, 1.345, 0.6725, 1.4125, 0.335],
  "SoftwareVersions": "syngo MR E11",
  "SpacingBetweenSlices": 2,
  "StationName": "AWP166011",
  "TaskName": "langLoc",
  "TotalReadoutTime": 0.0551515,
  "TxRefAmp": 245.956,
  "dcmmeta_affine": [
    [-1.993622899055481, 0.07902663201093674, 0.1386452317237854, 93.43112182617188],
    [0.053193554282188416, 1.967262864112854, -0.3564368784427643, -63.27562713623047],
    [0.15045981109142303, 0.3516128361225128, 1.9630920886993408, -89.84494018554688],
    [0.0, 0.0, 0.0, 1.0]
],
  "dcmmeta_reorient_transform": [
    [0.0, -1.0, 0.0, 95.0],
    [1.0, 0.0, 0.0, 0.0],
    [0.0, 0.0, 1.0, 0.0],
    [0.0, 0.0, 0.0, 1.0]
],
  "dcmmeta_shape": [96, 96, 66, 239],
  "dcmmeta_slice_dim": 2,
  "dcmmeta_version": 0.6,
  "global": {
    "const": {
      "AcquisitionMatrix": [96, 0, 0, 72],
      "AngioFlag": "N",
      "BitsAllocated": 16,
      "BitsStored": 12,
      "BodyPartExamined": "BRAIN",
      "Columns": 864,
      "EchoNumbers": 1,
      "EchoTime": 30.0,
      "EchoTrainLength": 58,
      "FlipAngle": 62.0,
      "HighBit": 11,
      "ImageOrientationPatient": [0.99681145285889, -0.0265967774638, 0.07522990680506, 0.03951331676275, 0.98363143603161, -0.1758064158351],
      "ImagePositionPatient": [-896.83607228184, -858.61696439649, 20.801035015364],
      "ImageType": [
        "ORIGINAL",
        "PRIMARY",
        "M",
        "ND",
        "MOSAIC"
],
      "ImagedNucleus": "1H",
      "ImagingFrequency": 123.25947,
      "InPlanePhaseEncodingDirection": "COL",
      "MRAcquisitionType": "2D",
      "MagneticFieldStrength": 3.0,
      "Manufacturer": "SIEMENS",
      "ManufacturerModelName": "Prisma",
      "Modality": "MR",
      "NumberOfAverages": 1.0,
      "NumberOfPhaseEncodingSteps": 58,
      "PercentPhaseFieldOfView": 100.0,
      "PercentSampling": 75.0,
      "PerformedProcedureStepStartTime": "144608.581000",
      "PhotometricInterpretation": "MONOCHROME2",
      "PixelBandwidth": 2265.0,
      "PixelRepresentation": 0,
      "PixelSpacing": [2.0, 2.0],
      "ProtocolName": "func_language_run1",
      "RepetitionTime": 1500.0,
      "Rows": 864,
      "SAR": 0.05276029108759,
      "SamplesPerPixel": 1,
      "ScanOptions": [
        "PFP",
        "FS"
],
      "ScanningSequence": "EP",
      "SequenceName": "*epfid2d1_72",
      "SequenceVariant": [
        "SK",
        "OSP"
],
      "SeriesDescription": "func_language_run1",
      "SeriesNumber": 13,
      "SeriesTime": "154823.098000",
      "SliceLocation": -70.433172465681,
      "SliceThickness": 2.0,
      "SmallestImagePixelValue": 0,
      "SoftwareVersions": "syngo MR E11",
      "SpacingBetweenSlices": 2.0000000280681,
      "SpecificCharacterSet": "ISO_IR 100",
      "StudyID": "3",
      "StudyTime": "144608.516000",
      "TransmitCoilName": "Body",
      "VariableFlipAngleFlag": "N",
      "WindowCenterWidthExplanation": "Algo1",
      "dBdt": 0.0},
    "slices": {}
  },
  "time": {
    "samples": {
      "AcquisitionNumber": [1, 2, 3, 4, 5, 6, 7, 8, 9, 10, 11, 12, 13, 14, 15, 16, 17, 18, 19, 20, 21, 22, 23, 24, 25, 26, 27, 28, 29, 30, 31, 32, 33, 34, 35, 36, 37, 38, 39, 40, 41, 42, 43, 44, 45, 46, 47, 48, 49, 50, 51, 52, 53, 54, 55, 56, 57, 58, 59, 60, 61, 62, 63, 64, 65, 66, 67, 68, 69, 70, 71, 72, 73, 74, 75, 76, 77, 78, 79, 80, 81, 82, 83, 84, 85, 86, 87, 88, 89, 90, 91, 92, 93, 94, 95, 96, 97, 98, 99, 100, 101, 102, 103, 104, 105, 106, 107, 108, 109, 110, 111, 112, 113, 114, 115, 116, 117, 118, 119, 120, 121, 122, 123, 124, 125, 126, 127, 128, 129, 130, 131, 132, 133, 134, 135, 136, 137, 138, 139, 140, 141, 142, 143, 144, 145, 146, 147, 148, 149, 150, 151, 152, 153, 154, 155, 156, 157, 158, 159, 160, 161, 162, 163, 164, 165, 166, 167, 168, 169, 170, 171, 172, 173, 174, 175, 176, 177, 178, 179, 180, 181, 182, 183, 184, 185, 186, 187, 188, 189, 190, 191, 192, 193, 194, 195, 196, 197, 198, 199, 200, 201, 202, 203, 204, 205, 206, 207, 208, 209, 210, 211, 212, 213, 214, 215, 216, 217, 218, 219, 220, 221, 222, 223, 224, 225, 226, 227, 228, 229, 230, 231, 232, 233, 234, 235, 236, 237, 238, 239],
      "AcquisitionTime": ["154749.207500", "154750.707500", "154752.207500", "154753.707500", "154755.207500", "154756.707500", "154758.207500", "154759.707500", "154801.207500", "154802.707500", "154804.207500", "154805.707500", "154807.207500", "154808.707500", "154810.207500", "154811.707500", "154813.207500", "154814.707500", "154816.207500", "154817.707500", "154819.207500", "154820.707500", "154822.207500", "154823.707500", "154825.207500", "154826.707500", "154828.207500", "154829.707500", "154831.207500", "154832.707500", "154834.207500", "154835.707500", "154837.207500", "154838.707500", "154840.207500", "154841.707500", "154843.207500", "154844.707500", "154846.207500", "154847.707500", "154849.207500", "154850.707500", "154852.207500", "154853.707500", "154855.207500", "154856.707500", "154858.207500", "154859.707500", "154901.207500", "154902.707500", "154904.207500", "154905.707500", "154907.207500", "154908.707500", "154910.207500", "154911.707500", "154913.207500", "154914.707500", "154916.207500", "154917.707500", "154919.207500", "154920.707500", "154922.207500", "154923.707500", "154925.207500", "154926.707500", "154928.207500", "154929.707500", "154931.207500", "154932.707500", "154934.207500", "154935.707500", "154937.207500", "154938.707500", "154940.207500", "154941.707500", "154943.207500", "154944.707500", "154946.207500", "154947.707500", "154949.207500", "154950.707500", "154952.207500", "154953.707500", "154955.207500", "154956.707500", "154958.207500", "154959.707500", "155001.207500", "155002.707500", "155004.207500", "155005.707500", "155007.207500", "155008.707500", "155010.207500", "155011.707500", "155013.207500", "155014.707500", "155016.207500", "155017.707500", "155019.207500", "155020.707500", "155022.207500", "155023.707500", "155025.207500", "155026.707500", "155028.207500", "155029.707500", "155031.207500", "155032.707500", "155034.207500", "155035.707500", "155037.207500", "155038.707500", "155040.207500", "155041.707500", "155043.207500", "155044.707500", "155046.207500", "155047.707500", "155049.207500", "155050.707500", "155052.207500", "155053.707500", "155055.207500", "155056.707500", "155058.207500", "155059.707500", "155101.207500", "155102.707500", "155104.207500", "155105.707500", "155107.207500", "155108.707500", "155110.207500", "155111.707500", "155113.207500", "155114.707500", "155116.207500", "155117.707500", "155119.207500", "155120.707500", "155122.207500", "155123.707500", "155125.207500", "155126.707500", "155128.207500", "155129.707500", "155131.207500", "155132.707500", "155134.207500", "155135.707500", "155137.207500", "155138.707500", "155140.207500", "155141.707500", "155143.207500", "155144.707500", "155146.207500", "155147.707500", "155149.207500", "155150.707500", "155152.207500", "155153.707500", "155155.207500", "155156.707500", "155158.207500", "155159.707500", "155201.207500", "155202.707500", "155204.207500", "155205.707500", "155207.207500", "155208.707500", "155210.207500", "155211.707500", "155213.207500", "155214.707500", "155216.207500", "155217.707500", "155219.207500", "155220.707500", "155222.207500", "155223.707500", "155225.207500", "155226.707500", "155228.207500", "155229.707500", "155231.207500", "155232.707500", "155234.207500", "155235.707500", "155237.207500", "155238.707500", "155240.207500", "155241.707500", "155243.207500", "155244.707500", "155246.207500", "155247.707500", "155249.207500", "155250.707500", "155252.207500", "155253.707500", "155255.207500", "155256.707500", "155258.207500", "155259.707500", "155301.207500", "155302.707500", "155304.207500", "155305.707500", "155307.207500", "155308.707500", "155310.207500", "155311.707500", "155313.207500", "155314.707500", "155316.207500", "155317.707500", "155319.207500", "155320.707500", "155322.207500", "155323.707500", "155325.207500", "155326.707500", "155328.207500", "155329.707500", "155331.207500", "155332.707500", "155334.207500", "155335.707500", "155337.207500", "155338.707500", "155340.207500", "155341.707500", "155343.207500", "155344.707500", "155346.207500"],
      "ContentTime": ["154823.102000", "154823.105000", "154823.108000", "154823.111000", "154823.115000", "154823.118000", "154823.121000", "154823.124000", "154823.127000", "154823.130000", "154823.137000", "154823.146000", "154823.149000", "154823.152000", "154823.160000", "154823.163000", "154823.166000", "154823.169000", "154823.172000", "154823.175000", "154823.178000", "154823.181000", "154823.184000", "154843.097000", "154843.101000", "154843.104000", "154843.107000", "154843.109000", "154843.112000", "154843.115000", "154843.118000", "154843.121000", "154843.124000", "154843.127000", "154843.130000", "154843.133000", "154923.098000", "154923.101000", "154923.104000", "154923.107000", "154923.110000", "154923.113000", "154923.116000", "154923.119000", "154923.122000", "154923.127000", "154923.130000", "154923.133000", "154923.136000", "154923.155000", "154923.158000", "154923.161000", "154923.167000", "154923.170000", "154923.173000", "154923.176000", "154923.179000", "154923.182000", "154923.185000", "154923.188000", "154923.191000", "154923.194000", "154923.197000", "155003.098000", "155003.101000", "155003.104000", "155003.107000", "155003.110000", "155003.113000", "155003.116000", "155003.119000", "155003.122000", "155003.125000", "155003.128000", "155003.131000", "155003.134000", "155003.137000", "155003.140000", "155003.143000", "155003.146000", "155003.149000", "155003.152000", "155003.155000", "155003.158000", "155003.161000", "155003.164000", "155003.167000", "155003.170000", "155003.173000", "155043.097000", "155043.100000", "155043.103000", "155043.106000", "155043.109000", "155043.112000", "155043.115000", "155043.118000", "155043.121000", "155043.124000", "155043.127000", "155043.130000", "155043.133000", "155043.136000", "155043.139000", "155043.142000", "155043.145000", "155043.148000", "155043.151000", "155043.154000", "155043.157000", "155043.160000", "155043.163000", "155043.166000", "155043.169000", "155043.172000", "155043.175000", "155123.098000", "155123.101000", "155123.104000", "155123.107000", "155123.110000", "155123.113000", "155123.116000", "155123.119000", "155123.122000", "155123.125000", "155123.128000", "155123.131000", "155123.134000", "155123.137000", "155123.140000", "155123.143000", "155123.146000", "155123.149000", "155123.152000", "155123.155000", "155123.158000", "155123.161000", "155123.164000", "155123.167000", "155123.170000", "155123.173000", "155123.176000", "155203.098000", "155203.101000", "155203.104000", "155203.107000", "155203.110000", "155203.113000", "155203.116000", "155203.119000", "155203.122000", "155203.125000", "155203.128000", "155203.131000", "155203.134000", "155203.137000", "155203.140000", "155203.143000", "155203.146000", "155203.149000", "155203.152000", "155203.155000", "155203.158000", "155203.161000", "155203.164000", "155203.167000", "155203.170000", "155203.173000", "155243.098000", "155243.101000", "155243.104000", "155243.107000", "155243.110000", "155243.113000", "155243.116000", "155243.119000", "155243.122000", "155243.125000", "155243.128000", "155243.131000", "155243.134000", "155243.137000", "155243.140000", "155243.143000", "155243.146000", "155243.149000", "155243.152000", "155243.155000", "155243.158000", "155243.161000", "155243.164000", "155243.167000", "155243.170000", "155243.173000", "155243.176000", "155323.097000", "155323.100000", "155323.103000", "155323.106000", "155323.109000", "155323.112000", "155323.115000", "155323.118000", "155323.121000", "155323.124000", "155323.127000", "155323.130000", "155323.133000", "155323.136000", "155323.139000", "155323.142000", "155323.145000", "155323.148000", "155323.151000", "155323.154000", "155323.157000", "155323.160000", "155323.163000", "155323.166000", "155323.169000", "155323.172000", "155323.175000", "155346.969000", "155346.997000", "155347.001000", "155347.004000", "155347.007000", "155347.010000", "155347.013000", "155347.016000", "155347.019000", "155347.022000", "155347.026000", "155347.029000", "155347.032000", "155347.035000", "155347.039000", "155347.042000"],
      "InstanceCreationTime": ["154823.102000", "154823.105000", "154823.108000", "154823.111000", "154823.115000", "154823.118000", "154823.121000", "154823.124000", "154823.127000", "154823.130000", "154823.137000", "154823.146000", "154823.149000", "154823.152000", "154823.160000", "154823.163000", "154823.166000", "154823.169000", "154823.172000", "154823.175000", "154823.178000", "154823.181000", "154823.184000", "154843.097000", "154843.101000", "154843.104000", "154843.107000", "154843.109000", "154843.112000", "154843.115000", "154843.118000", "154843.121000", "154843.124000", "154843.127000", "154843.130000", "154843.133000", "154923.098000", "154923.101000", "154923.104000", "154923.107000", "154923.110000", "154923.113000", "154923.116000", "154923.119000", "154923.122000", "154923.127000", "154923.130000", "154923.133000", "154923.136000", "154923.155000", "154923.158000", "154923.161000", "154923.167000", "154923.170000", "154923.173000", "154923.176000", "154923.179000", "154923.182000", "154923.185000", "154923.188000", "154923.191000", "154923.194000", "154923.197000", "155003.098000", "155003.101000", "155003.104000", "155003.107000", "155003.110000", "155003.113000", "155003.116000", "155003.119000", "155003.122000", "155003.125000", "155003.128000", "155003.131000", "155003.134000", "155003.137000", "155003.140000", "155003.143000", "155003.146000", "155003.149000", "155003.152000", "155003.155000", "155003.158000", "155003.161000", "155003.164000", "155003.167000", "155003.170000", "155003.173000", "155043.097000", "155043.100000", "155043.103000", "155043.106000", "155043.109000", "155043.112000", "155043.115000", "155043.118000", "155043.121000", "155043.124000", "155043.127000", "155043.130000", "155043.133000", "155043.136000", "155043.139000", "155043.142000", "155043.145000", "155043.148000", "155043.151000", "155043.154000", "155043.157000", "155043.160000", "155043.163000", "155043.166000", "155043.169000", "155043.172000", "155043.175000", "155123.098000", "155123.101000", "155123.104000", "155123.107000", "155123.110000", "155123.113000", "155123.116000", "155123.119000", "155123.122000", "155123.125000", "155123.128000", "155123.131000", "155123.134000", "155123.137000", "155123.140000", "155123.143000", "155123.146000", "155123.149000", "155123.152000", "155123.155000", "155123.158000", "155123.161000", "155123.164000", "155123.167000", "155123.170000", "155123.173000", "155123.176000", "155203.098000", "155203.101000", "155203.104000", "155203.107000", "155203.110000", "155203.113000", "155203.116000", "155203.119000", "155203.122000", "155203.125000", "155203.128000", "155203.131000", "155203.134000", "155203.137000", "155203.140000", "155203.143000", "155203.146000", "155203.149000", "155203.152000", "155203.155000", "155203.158000", "155203.161000", "155203.164000", "155203.167000", "155203.170000", "155203.173000", "155243.098000", "155243.101000", "155243.104000", "155243.107000", "155243.110000", "155243.113000", "155243.116000", "155243.119000", "155243.122000", "155243.125000", "155243.128000", "155243.131000", "155243.134000", "155243.137000", "155243.140000", "155243.143000", "155243.146000", "155243.149000", "155243.152000", "155243.155000", "155243.158000", "155243.161000", "155243.164000", "155243.167000", "155243.170000", "155243.173000", "155243.176000", "155323.097000", "155323.100000", "155323.103000", "155323.106000", "155323.109000", "155323.112000", "155323.115000", "155323.118000", "155323.121000", "155323.124000", "155323.127000", "155323.130000", "155323.133000", "155323.136000", "155323.139000", "155323.142000", "155323.145000", "155323.148000", "155323.151000", "155323.154000", "155323.157000", "155323.160000", "155323.163000", "155323.166000", "155323.169000", "155323.172000", "155323.175000", "155346.969000", "155346.997000", "155347.001000", "155347.004000", "155347.007000", "155347.010000", "155347.013000", "155347.016000", "155347.019000", "155347.022000", "155347.026000", "155347.029000", "155347.032000", "155347.035000", "155347.039000", "155347.042000"],
      "InstanceNumber": [1, 2, 3, 4, 5, 6, 7, 8, 9, 10, 11, 12, 13, 14, 15, 16, 17, 18, 19, 20, 21, 22, 23, 24, 25, 26, 27, 28, 29, 30, 31, 32, 33, 34, 35, 36, 37, 38, 39, 40, 41, 42, 43, 44, 45, 46, 47, 48, 49, 50, 51, 52, 53, 54, 55, 56, 57, 58, 59, 60, 61, 62, 63, 64, 65, 66, 67, 68, 69, 70, 71, 72, 73, 74, 75, 76, 77, 78, 79, 80, 81, 82, 83, 84, 85, 86, 87, 88, 89, 90, 91, 92, 93, 94, 95, 96, 97, 98, 99, 100, 101, 102, 103, 104, 105, 106, 107, 108, 109, 110, 111, 112, 113, 114, 115, 116, 117, 118, 119, 120, 121, 122, 123, 124, 125, 126, 127, 128, 129, 130, 131, 132, 133, 134, 135, 136, 137, 138, 139, 140, 141, 142, 143, 144, 145, 146, 147, 148, 149, 150, 151, 152, 153, 154, 155, 156, 157, 158, 159, 160, 161, 162, 163, 164, 165, 166, 167, 168, 169, 170, 171, 172, 173, 174, 175, 176, 177, 178, 179, 180, 181, 182, 183, 184, 185, 186, 187, 188, 189, 190, 191, 192, 193, 194, 195, 196, 197, 198, 199, 200, 201, 202, 203, 204, 205, 206, 207, 208, 209, 210, 211, 212, 213, 214, 215, 216, 217, 218, 219, 220, 221, 222, 223, 224, 225, 226, 227, 228, 229, 230, 231, 232, 233, 234, 235, 236, 237, 238, 239],
      "LargestImagePixelValue": [3057, 3050, 3047, 2974, 2984, 2964, 2936, 2944, 2948, 2963, 2960, 2923, 2969, 2924, 2980, 2961, 2991, 2952, 2968, 2974, 3017, 3015, 3057, 3077, 3046, 3070, 3054, 3086, 3075, 3078, 3065, 3043, 3056, 3094, 3087, 3051, 3076, 3054, 3028, 3066, 3075, 3049, 3044, 3064, 3040, 3062, 3050, 3063, 3050, 3064, 3047, 3074, 3045, 3074, 3077, 3045, 3062, 3032, 3082, 3042, 3120, 3078, 3079, 3078, 3059, 3052, 3050, 3031, 3091, 3068, 2931, 2960, 3102, 2959, 2987, 2937, 2993, 2977, 2977, 2981, 2988, 3001, 3016, 3067, 3060, 3040, 3024, 3035, 3064, 3058, 3059, 3042, 3036, 3034, 3067, 3021, 3075, 3050, 3060, 3036, 2997, 3041, 3035, 3069, 3014, 3029, 3074, 3056, 3058, 3043, 3080, 3072, 3045, 3049, 3058, 3040, 3037, 3064, 3027, 3062, 3053, 3079, 3036, 3013, 3055, 3044, 3047, 3067, 3063, 3041, 3007, 3070, 3061, 2932, 3051, 3021, 2948, 3057, 2945, 2981, 2938, 2985, 2970, 2948, 2985, 2921, 2995, 3000, 2924, 2970, 2921, 2992, 2927, 2973, 2966, 2931, 2949, 2995, 2957, 2947, 2957, 2962, 2928, 2985, 2958, 2985, 3009, 2961, 2997, 2993, 2988, 2986, 3036, 2979, 2966, 2973, 2977, 2985, 2987, 2949, 2972, 2973, 2988, 3005, 2990, 2987, 2991, 2985, 2993, 2969, 2990, 3007, 2990, 3000, 3017, 2975, 2994, 2967, 2952, 2959, 2982, 2967, 2972, 2921, 2977, 2972, 2948, 3006, 2989, 2955, 2999, 2958, 2955, 2991, 2961, 2970, 2973, 2962, 2953, 2921, 2943, 3000, 2959, 2994, 2964, 2971, 2983, 3029, 2960, 2991, 3015, 2940, 3024, 2972, 2952, 3004, 2939, 3021, 2977],
      "WindowCenter": [767.0, 766.0, 766.0, 766.0, 766.0, 766.0, 766.0, 765.0, 766.0, 765.0, 765.0, 765.0, 766.0, 767.0, 768.0, 767.0, 767.0, 767.0, 767.0, 768.0, 768.0, 768.0, 768.0, 768.0, 769.0, 770.0, 770.0, 771.0, 771.0, 771.0, 770.0, 770.0, 771.0, 772.0, 771.0, 770.0, 769.0, 768.0, 768.0, 767.0, 767.0, 767.0, 766.0, 766.0, 767.0, 767.0, 767.0, 767.0, 767.0, 767.0, 768.0, 768.0, 768.0, 769.0, 769.0, 768.0, 767.0, 766.0, 767.0, 766.0, 768.0, 768.0, 768.0, 768.0, 768.0, 768.0, 768.0, 768.0, 768.0, 767.0, 766.0, 766.0, 770.0, 767.0, 767.0, 767.0, 767.0, 767.0, 768.0, 768.0, 768.0, 767.0, 767.0, 767.0, 767.0, 767.0, 767.0, 768.0, 768.0, 769.0, 768.0, 768.0, 769.0, 768.0, 769.0, 768.0, 768.0, 768.0, 768.0, 768.0, 767.0, 767.0, 767.0, 767.0, 767.0, 768.0, 768.0, 768.0, 767.0, 767.0, 767.0, 767.0, 767.0, 767.0, 768.0, 767.0, 767.0, 767.0, 767.0, 767.0, 767.0, 767.0, 768.0, 768.0, 768.0, 767.0, 767.0, 768.0, 768.0, 769.0, 768.0, 768.0, 767.0, 765.0, 769.0, 769.0, 769.0, 769.0, 767.0, 768.0, 767.0, 768.0, 769.0, 769.0, 769.0, 768.0, 768.0, 767.0, 766.0, 767.0, 767.0, 767.0, 766.0, 767.0, 766.0, 767.0, 767.0, 769.0, 769.0, 768.0, 768.0, 767.0, 766.0, 768.0, 768.0, 769.0, 770.0, 769.0, 768.0, 768.0, 767.0, 767.0, 767.0, 767.0, 767.0, 768.0, 769.0, 769.0, 769.0, 768.0, 768.0, 769.0, 770.0, 770.0, 771.0, 770.0, 770.0, 769.0, 769.0, 769.0, 769.0, 769.0, 770.0, 770.0, 770.0, 770.0, 770.0, 770.0, 770.0, 769.0, 770.0, 769.0, 770.0, 770.0, 770.0, 770.0, 769.0, 769.0, 769.0, 768.0, 769.0, 768.0, 768.0, 768.0, 768.0, 768.0, 768.0, 768.0, 768.0, 768.0, 768.0, 769.0, 769.0, 770.0, 769.0, 769.0, 770.0, 770.0, 769.0, 769.0, 769.0, 769.0, 770.0, 769.0, 768.0, 769.0, 769.0, 771.0, 771.0],
      "WindowWidth": [1639.0, 1638.0, 1638.0, 1638.0, 1638.0, 1636.0, 1637.0, 1635.0, 1636.0, 1635.0, 1634.0, 1634.0, 1637.0, 1639.0, 1641.0, 1639.0, 1640.0, 1639.0, 1640.0, 1642.0, 1642.0, 1641.0, 1641.0, 1642.0, 1643.0, 1647.0, 1647.0, 1648.0, 1648.0, 1648.0, 1647.0, 1647.0, 1650.0, 1651.0, 1650.0, 1647.0, 1645.0, 1642.0, 1641.0, 1639.0, 1639.0, 1638.0, 1636.0, 1637.0, 1638.0, 1639.0, 1640.0, 1640.0, 1638.0, 1640.0, 1641.0, 1642.0, 1642.0, 1644.0, 1644.0, 1642.0, 1639.0, 1637.0, 1639.0, 1636.0, 1642.0, 1641.0, 1641.0, 1642.0, 1641.0, 1641.0, 1642.0, 1641.0, 1641.0, 1640.0, 1637.0, 1636.0, 1646.0, 1639.0, 1638.0, 1638.0, 1638.0, 1639.0, 1641.0, 1641.0, 1641.0, 1639.0, 1639.0, 1640.0, 1638.0, 1640.0, 1639.0, 1642.0, 1642.0, 1643.0, 1642.0, 1641.0, 1643.0, 1642.0, 1643.0, 1642.0, 1642.0, 1641.0, 1642.0, 1640.0, 1639.0, 1638.0, 1639.0, 1639.0, 1639.0, 1640.0, 1641.0, 1640.0, 1639.0, 1638.0, 1639.0, 1639.0, 1639.0, 1639.0, 1640.0, 1640.0, 1639.0, 1639.0, 1639.0, 1639.0, 1638.0, 1639.0, 1640.0, 1642.0, 1640.0, 1638.0, 1639.0, 1641.0, 1642.0, 1643.0, 1641.0, 1641.0, 1638.0, 1635.0, 1644.0, 1644.0, 1643.0, 1643.0, 1639.0, 1640.0, 1639.0, 1641.0, 1644.0, 1645.0, 1644.0, 1640.0, 1640.0, 1639.0, 1636.0, 1638.0, 1638.0, 1639.0, 1637.0, 1637.0, 1636.0, 1640.0, 1640.0, 1643.0, 1643.0, 1641.0, 1640.0, 1639.0, 1636.0, 1639.0, 1642.0, 1643.0, 1646.0, 1643.0, 1641.0, 1639.0, 1638.0, 1637.0, 1639.0, 1638.0, 1638.0, 1640.0, 1642.0, 1643.0, 1643.0, 1641.0, 1641.0, 1643.0, 1645.0, 1646.0, 1648.0, 1646.0, 1645.0, 1643.0, 1643.0, 1643.0, 1642.0, 1644.0, 1645.0, 1645.0, 1645.0, 1645.0, 1647.0, 1646.0, 1646.0, 1643.0, 1645.0, 1644.0, 1646.0, 1645.0, 1645.0, 1644.0, 1643.0, 1643.0, 1643.0, 1641.0, 1641.0, 1640.0, 1641.0, 1641.0, 1641.0, 1640.0, 1641.0, 1640.0, 1640.0, 1640.0, 1640.0, 1642.0, 1642.0, 1644.0, 1644.0, 1643.0, 1644.0, 1644.0, 1643.0, 1643.0, 1644.0, 1643.0, 1644.0, 1643.0, 1641.0, 1642.0, 1644.0, 1647.0, 1648.0]
    },
    "slices": {}
  }
}