{
  "AcquisitionMatrixPE": 72,
  "AcquisitionNumber": 1,
  "AcquisitionTime": "15:30:58.752500",
  "BandwidthPerPixelPhaseEncode": 17.943,
  "BaseResolution": 96,
  "BodyPartExamined": "BRAIN",
  "CoilCombinationMethod": "Sum of Squares",
  "ConsistencyInfo": "N4_VE11C_LATEST_20160120",
  "ConversionSoftware": "dcm2niix",
  "ConversionSoftwareVersion": "v1.0.20211006",
  "DerivedVendorReportedEchoSpacing": 0.000552897,
  "DeviceSerialNumber": "166011",
  "EchoTime": 0.03,
  "EchoTrainLength": 58,
  "EffectiveEchoSpacing": 0.000580542,
  "FlipAngle": 62,
  "ImageOrientationPatientDICOM": [0.996811, -0.0265968, 0.0752299, 0.0395133, 0.983631, -0.175806],
  "ImageType": [
    "ORIGINAL",
    "PRIMARY",
    "M",
    "ND",
    "MOSAIC"
],
  "ImagingFrequency": 123.259,
  "InPlanePhaseEncodingDirectionDICOM": "COL",
  "InstitutionAddress": "West 130th Street 610,NY,NYC,US,10025",
  "InstitutionName": "MBBI",
  "MRAcquisitionType": "2D",
  "MagneticFieldStrength": 3,
  "Manufacturer": "Siemens",
  "ManufacturersModelName": "Prisma",
  "Modality": "MR",
  "MultibandAccelerationFactor": 3,
  "PartialFourier": 0.75,
  "PatientPosition": "HFS",
  "PercentPhaseFOV": 100,
  "PercentSampling": 75,
  "PhaseEncodingDirection": "j-",
  "PhaseEncodingSteps": 58,
  "PhaseOversampling": 0.05,
  "PhaseResolution": 0.75,
  "PixelBandwidth": 2265,
  "ProcedureStepDescription": "White^Word_recognition",
  "ProtocolName": "func_vwfate_run15",
  "PulseSequenceDetails": "%SiemensSeq%\\ep2d_bold",
  "ReceiveCoilActiveElements": "HC1-7",
  "ReceiveCoilName": "HeadNeck_64",
  "ReconMatrixPE": 96,
  "RefLinesPE": 40,
  "RepetitionTime": 1.5,
  "SAR": 0.0525387,
  "ScanOptions": "PFP\\FS",
  "ScanningSequence": "EP",
  "SequenceName": "*epfid2d1_72",
  "SequenceVariant": "SK\\OSP",
  "SeriesDescription": "func_vwfate_run15",
  "SeriesNumber": 10,
  "ShimSetting": [-1133, -1332, 660, 409, -123, -40, -4, -4],
  "SliceThickness": 2,
  "SliceTiming": [1.075, 0, 0.74, 0.0675, 0.8075, 0.135, 0.875, 0.2025, 0.9425, 0.27, 1.01, 0.4025, 1.1425, 0.47, 1.21, 0.5375, 1.2775, 0.605, 1.345, 0.6725, 1.4125, 0.335, 1.075, 0, 0.74, 0.0675, 0.8075, 0.135, 0.875, 0.2025, 0.9425, 0.27, 1.01, 0.4025, 1.1425, 0.47, 1.21, 0.5375, 1.2775, 0.605, 1.345, 0.6725, 1.4125, 0.335, 1.075, 0, 0.74, 0.0675, 0.8075, 0.135, 0.875, 0.2025, 0.9425, 0.27, 1.01, 0.4025, 1.1425, 0.47, 1.21, 0.5375, 1.2775, 0.605, 1.345, 0.6725, 1.4125, 0.335],
  "SoftwareVersions": "syngo MR E11",
  "SpacingBetweenSlices": 2,
  "StationName": "AWP166011",
  "TaskName": "vwfate",
  "TotalReadoutTime": 0.0551515,
  "TxRefAmp": 245.956,
  "dcmmeta_affine": [
    [-1.993622899055481, 0.07902663201093674, 0.1386452317237854, 93.43112182617188],
    [0.053193554282188416, 1.967262864112854, -0.3564368784427643, -63.27562713623047],
    [0.15045981109142303, 0.3516128361225128, 1.9630920886993408, -89.84494018554688],
    [0.0, 0.0, 0.0, 1.0]
],
  "dcmmeta_reorient_transform": [
    [0.0, -1.0, 0.0, 95.0],
    [1.0, 0.0, 0.0, 0.0],
    [0.0, 0.0, 1.0, 0.0],
    [0.0, 0.0, 0.0, 1.0]
],
  "dcmmeta_shape": [96, 96, 66, 164],
  "dcmmeta_slice_dim": 2,
  "dcmmeta_version": 0.6,
  "global": {
    "const": {
      "AcquisitionMatrix": [96, 0, 0, 72],
      "AngioFlag": "N",
      "BitsAllocated": 16,
      "BitsStored": 12,
      "BodyPartExamined": "BRAIN",
      "Columns": 864,
      "EchoNumbers": 1,
      "EchoTime": 30.0,
      "EchoTrainLength": 58,
      "FlipAngle": 62.0,
      "HighBit": 11,
      "ImageOrientationPatient": [0.99681145285889, -0.0265967774638, 0.07522990680506, 0.03951331676275, 0.98363143603161, -0.1758064158351],
      "ImagePositionPatient": [-896.83607228184, -858.61696439649, 20.801035015364],
      "ImageType": [
        "ORIGINAL",
        "PRIMARY",
        "M",
        "ND",
        "MOSAIC"
],
      "ImagedNucleus": "1H",
      "ImagingFrequency": 123.259462,
      "InPlanePhaseEncodingDirection": "COL",
      "MRAcquisitionType": "2D",
      "MagneticFieldStrength": 3.0,
      "Manufacturer": "SIEMENS",
      "ManufacturerModelName": "Prisma",
      "Modality": "MR",
      "NumberOfAverages": 1.0,
      "NumberOfPhaseEncodingSteps": 58,
      "PercentPhaseFieldOfView": 100.0,
      "PercentSampling": 75.0,
      "PerformedProcedureStepStartTime": "144608.581000",
      "PhotometricInterpretation": "MONOCHROME2",
      "PixelBandwidth": 2265.0,
      "PixelRepresentation": 0,
      "PixelSpacing": [2.0, 2.0],
      "ProtocolName": "func_vwfate_run15",
      "RepetitionTime": 1500.0,
      "Rows": 864,
      "SAR": 0.05253873402972,
      "SamplesPerPixel": 1,
      "ScanOptions": [
        "PFP",
        "FS"
],
      "ScanningSequence": "EP",
      "SequenceName": "*epfid2d1_72",
      "SequenceVariant": [
        "SK",
        "OSP"
],
      "SeriesDescription": "func_vwfate_run15",
      "SeriesNumber": 10,
      "SeriesTime": "153143.099000",
      "SliceLocation": -70.433172465681,
      "SliceThickness": 2.0,
      "SmallestImagePixelValue": 0,
      "SoftwareVersions": "syngo MR E11",
      "SpacingBetweenSlices": 2.0000000280681,
      "SpecificCharacterSet": "ISO_IR 100",
      "StudyID": "3",
      "StudyTime": "144608.516000",
      "TransmitCoilName": "Body",
      "VariableFlipAngleFlag": "N",
      "WindowCenterWidthExplanation": "Algo1",
      "dBdt": 0.0},
    "slices": {}
  },
  "time": {
    "samples": {
      "AcquisitionNumber": [1, 2, 3, 4, 5, 6, 7, 8, 9, 10, 11, 12, 13, 14, 15, 16, 17, 18, 19, 20, 21, 22, 23, 24, 25, 26, 27, 28, 29, 30, 31, 32, 33, 34, 35, 36, 37, 38, 39, 40, 41, 42, 43, 44, 45, 46, 47, 48, 49, 50, 51, 52, 53, 54, 55, 56, 57, 58, 59, 60, 61, 62, 63, 64, 65, 66, 67, 68, 69, 70, 71, 72, 73, 74, 75, 76, 77, 78, 79, 80, 81, 82, 83, 84, 85, 86, 87, 88, 89, 90, 91, 92, 93, 94, 95, 96, 97, 98, 99, 100, 101, 102, 103, 104, 105, 106, 107, 108, 109, 110, 111, 112, 113, 114, 115, 116, 117, 118, 119, 120, 121, 122, 123, 124, 125, 126, 127, 128, 129, 130, 131, 132, 133, 134, 135, 136, 137, 138, 139, 140, 141, 142, 143, 144, 145, 146, 147, 148, 149, 150, 151, 152, 153, 154, 155, 156, 157, 158, 159, 160, 161, 162, 163, 164],
      "AcquisitionTime": ["153058.752500", "153100.252500", "153101.752500", "153103.252500", "153104.752500", "153106.252500", "153107.752500", "153109.252500", "153110.752500", "153112.252500", "153113.752500", "153115.252500", "153116.752500", "153118.252500", "153119.752500", "153121.252500", "153122.752500", "153124.252500", "153125.752500", "153127.252500", "153128.752500", "153130.252500", "153131.752500", "153133.252500", "153134.752500", "153136.252500", "153137.752500", "153139.252500", "153140.752500", "153142.252500", "153143.752500", "153145.252500", "153146.752500", "153148.252500", "153149.752500", "153151.252500", "153152.752500", "153154.252500", "153155.752500", "153157.252500", "153158.752500", "153200.252500", "153201.752500", "153203.252500", "153204.752500", "153206.252500", "153207.752500", "153209.252500", "153210.752500", "153212.252500", "153213.752500", "153215.252500", "153216.752500", "153218.252500", "153219.752500", "153221.252500", "153222.752500", "153224.252500", "153225.752500", "153227.252500", "153228.752500", "153230.252500", "153231.752500", "153233.252500", "153234.752500", "153236.252500", "153237.752500", "153239.252500", "153240.752500", "153242.252500", "153243.752500", "153245.252500", "153246.752500", "153248.252500", "153249.752500", "153251.252500", "153252.752500", "153254.252500", "153255.752500", "153257.252500", "153258.752500", "153300.252500", "153301.752500", "153303.252500", "153304.752500", "153306.252500", "153307.752500", "153309.252500", "153310.752500", "153312.252500", "153313.752500", "153315.252500", "153316.752500", "153318.252500", "153319.752500", "153321.252500", "153322.752500", "153324.252500", "153325.752500", "153327.252500", "153328.752500", "153330.252500", "153331.752500", "153333.252500", "153334.752500", "153336.252500", "153337.752500", "153339.252500", "153340.752500", "153342.252500", "153343.752500", "153345.252500", "153346.752500", "153348.252500", "153349.752500", "153351.252500", "153352.752500", "153354.252500", "153355.752500", "153357.252500", "153358.752500", "153400.252500", "153401.752500", "153403.252500", "153404.752500", "153406.252500", "153407.752500", "153409.252500", "153410.752500", "153412.252500", "153413.752500", "153415.252500", "153416.752500", "153418.252500", "153419.752500", "153421.252500", "153422.752500", "153424.252500", "153425.752500", "153427.252500", "153428.752500", "153430.252500", "153431.752500", "153433.252500", "153434.752500", "153436.252500", "153437.752500", "153439.252500", "153440.752500", "153442.252500", "153443.752500", "153445.252500", "153446.752500", "153448.252500", "153449.752500", "153451.252500", "153452.752500", "153454.252500", "153455.752500", "153457.252500", "153458.752500", "153500.252500", "153501.752500", "153503.252500"],
      "ContentTime": ["153143.103000", "153143.107000", "153143.114000", "153143.117000", "153143.120000", "153143.124000", "153143.134000", "153143.136000", "153143.139000", "153143.143000", "153143.146000", "153143.149000", "153143.152000", "153143.155000", "153143.158000", "153143.160000", "153143.163000", "153143.167000", "153143.170000", "153143.173000", "153143.182000", "153143.185000", "153143.188000", "153143.191000", "153143.194000", "153143.197000", "153143.200000", "153143.203000", "153143.206000", "153223.097000", "153223.100000", "153223.103000", "153223.106000", "153223.109000", "153223.112000", "153223.115000", "153223.118000", "153223.121000", "153223.124000", "153223.127000", "153223.130000", "153223.133000", "153223.136000", "153223.139000", "153223.142000", "153223.145000", "153223.155000", "153223.157000", "153223.160000", "153223.163000", "153223.166000", "153223.169000", "153223.172000", "153223.175000", "153223.178000", "153223.181000", "153303.098000", "153303.101000", "153303.104000", "153303.107000", "153303.110000", "153303.113000", "153303.116000", "153303.119000", "153303.122000", "153303.125000", "153303.128000", "153303.130000", "153303.134000", "153303.137000", "153303.139000", "153303.142000", "153303.145000", "153303.148000", "153303.151000", "153303.154000", "153303.157000", "153303.160000", "153303.163000", "153303.166000", "153303.169000", "153303.172000", "153303.175000", "153343.098000", "153343.101000", "153343.104000", "153343.107000", "153343.110000", "153343.113000", "153343.116000", "153343.119000", "153343.122000", "153343.125000", "153343.128000", "153343.131000", "153343.134000", "153343.137000", "153343.140000", "153343.143000", "153343.146000", "153343.149000", "153343.152000", "153343.155000", "153343.158000", "153343.161000", "153343.164000", "153343.167000", "153343.169000", "153343.173000", "153423.097000", "153423.103000", "153423.106000", "153423.109000", "153423.112000", "153423.115000", "153423.118000", "153423.121000", "153423.124000", "153423.127000", "153423.130000", "153423.133000", "153423.136000", "153423.139000", "153423.142000", "153423.145000", "153423.148000", "153423.151000", "153423.154000", "153423.157000", "153423.160000", "153423.163000", "153423.166000", "153423.169000", "153423.172000", "153423.175000", "153423.178000", "153503.098000", "153503.101000", "153503.104000", "153503.107000", "153503.110000", "153503.113000", "153503.116000", "153503.119000", "153503.122000", "153503.125000", "153503.128000", "153503.131000", "153503.134000", "153503.137000", "153503.140000", "153503.143000", "153503.146000", "153503.149000", "153503.152000", "153503.155000", "153503.158000", "153503.161000", "153503.164000", "153503.166000", "153503.169000", "153503.172000", "153503.175000", "153504.551000"],
      "InstanceCreationTime": ["153143.103000", "153143.107000", "153143.114000", "153143.117000", "153143.120000", "153143.124000", "153143.134000", "153143.136000", "153143.139000", "153143.143000", "153143.146000", "153143.149000", "153143.152000", "153143.155000", "153143.158000", "153143.160000", "153143.163000", "153143.167000", "153143.170000", "153143.173000", "153143.182000", "153143.185000", "153143.188000", "153143.191000", "153143.194000", "153143.197000", "153143.200000", "153143.203000", "153143.206000", "153223.097000", "153223.100000", "153223.103000", "153223.106000", "153223.109000", "153223.112000", "153223.115000", "153223.118000", "153223.121000", "153223.124000", "153223.127000", "153223.130000", "153223.133000", "153223.136000", "153223.139000", "153223.142000", "153223.145000", "153223.155000", "153223.157000", "153223.160000", "153223.163000", "153223.166000", "153223.169000", "153223.172000", "153223.175000", "153223.178000", "153223.181000", "153303.098000", "153303.101000", "153303.104000", "153303.107000", "153303.110000", "153303.113000", "153303.116000", "153303.119000", "153303.122000", "153303.125000", "153303.128000", "153303.130000", "153303.134000", "153303.137000", "153303.139000", "153303.142000", "153303.145000", "153303.148000", "153303.151000", "153303.154000", "153303.157000", "153303.160000", "153303.163000", "153303.166000", "153303.169000", "153303.172000", "153303.175000", "153343.098000", "153343.101000", "153343.104000", "153343.107000", "153343.110000", "153343.113000", "153343.116000", "153343.119000", "153343.122000", "153343.125000", "153343.128000", "153343.131000", "153343.134000", "153343.137000", "153343.140000", "153343.143000", "153343.146000", "153343.149000", "153343.152000", "153343.155000", "153343.158000", "153343.161000", "153343.164000", "153343.167000", "153343.169000", "153343.173000", "153423.097000", "153423.103000", "153423.106000", "153423.109000", "153423.112000", "153423.115000", "153423.118000", "153423.121000", "153423.124000", "153423.127000", "153423.130000", "153423.133000", "153423.136000", "153423.139000", "153423.142000", "153423.145000", "153423.148000", "153423.151000", "153423.154000", "153423.157000", "153423.160000", "153423.163000", "153423.166000", "153423.169000", "153423.172000", "153423.175000", "153423.178000", "153503.098000", "153503.101000", "153503.104000", "153503.107000", "153503.110000", "153503.113000", "153503.116000", "153503.119000", "153503.122000", "153503.125000", "153503.128000", "153503.131000", "153503.134000", "153503.137000", "153503.140000", "153503.143000", "153503.146000", "153503.149000", "153503.152000", "153503.155000", "153503.158000", "153503.161000", "153503.164000", "153503.166000", "153503.169000", "153503.172000", "153503.175000", "153504.551000"],
      "InstanceNumber": [1, 2, 3, 4, 5, 6, 7, 8, 9, 10, 11, 12, 13, 14, 15, 16, 17, 18, 19, 20, 21, 22, 23, 24, 25, 26, 27, 28, 29, 30, 31, 32, 33, 34, 35, 36, 37, 38, 39, 40, 41, 42, 43, 44, 45, 46, 47, 48, 49, 50, 51, 52, 53, 54, 55, 56, 57, 58, 59, 60, 61, 62, 63, 64, 65, 66, 67, 68, 69, 70, 71, 72, 73, 74, 75, 76, 77, 78, 79, 80, 81, 82, 83, 84, 85, 86, 87, 88, 89, 90, 91, 92, 93, 94, 95, 96, 97, 98, 99, 100, 101, 102, 103, 104, 105, 106, 107, 108, 109, 110, 111, 112, 113, 114, 115, 116, 117, 118, 119, 120, 121, 122, 123, 124, 125, 126, 127, 128, 129, 130, 131, 132, 133, 134, 135, 136, 137, 138, 139, 140, 141, 142, 143, 144, 145, 146, 147, 148, 149, 150, 151, 152, 153, 154, 155, 156, 157, 158, 159, 160, 161, 162, 163, 164],
      "LargestImagePixelValue": [2981, 2897, 2880, 2871, 2869, 2859, 2852, 2870, 2871, 2844, 2835, 2835, 2836, 2864, 2863, 2850, 2854, 2819, 2860, 2878, 2894, 2873, 2881, 2875, 2887, 2854, 2882, 2984, 2960, 2931, 2873, 2915, 2870, 2906, 2908, 2910, 2889, 2913, 2884, 2899, 2847, 2841, 2845, 2872, 2860, 2900, 2883, 2905, 2865, 2901, 2903, 2922, 2905, 2931, 2902, 2907, 2896, 2912, 2916, 2944, 2932, 2956, 2915, 2934, 2922, 2901, 2931, 2945, 2937, 2925, 2967, 2920, 2942, 2916, 2959, 2951, 2969, 2920, 2905, 2922, 2930, 2898, 2925, 2921, 2956, 2911, 2922, 2907, 2919, 2932, 2920, 2894, 2903, 2912, 2922, 2955, 2968, 2971, 2977, 2953, 2958, 2919, 2946, 2977, 2960, 2994, 2959, 2989, 2962, 3011, 2952, 2978, 2973, 2967, 2951, 2975, 2980, 2972, 2940, 2938, 2942, 2976, 2960, 2975, 2966, 2955, 2951, 2994, 2946, 2970, 2961, 2974, 2991, 3006, 3003, 2967, 2985, 3001, 2978, 2994, 2992, 3006, 2980, 2991, 2961, 2932, 2958, 2961, 2964, 2973, 3003, 2937, 2971, 2946, 2957, 2948, 2949, 2956, 2963, 2946, 2969, 2971, 2982, 2939],
      "WindowCenter": [770.0, 768.0, 767.0, 766.0, 765.0, 765.0, 765.0, 766.0, 765.0, 765.0, 764.0, 764.0, 764.0, 764.0, 764.0, 764.0, 764.0, 764.0, 765.0, 765.0, 765.0, 764.0, 764.0, 764.0, 765.0, 765.0, 766.0, 768.0, 768.0, 767.0, 766.0, 766.0, 765.0, 765.0, 765.0, 766.0, 766.0, 766.0, 765.0, 764.0, 764.0, 764.0, 764.0, 764.0, 764.0, 764.0, 764.0, 764.0, 764.0, 765.0, 765.0, 765.0, 765.0, 765.0, 764.0, 764.0, 764.0, 765.0, 765.0, 766.0, 766.0, 766.0, 765.0, 765.0, 765.0, 765.0, 766.0, 766.0, 767.0, 766.0, 766.0, 765.0, 765.0, 765.0, 766.0, 766.0, 766.0, 765.0, 765.0, 765.0, 765.0, 764.0, 764.0, 764.0, 765.0, 765.0, 766.0, 765.0, 765.0, 764.0, 764.0, 765.0, 765.0, 766.0, 766.0, 766.0, 766.0, 766.0, 767.0, 767.0, 767.0, 767.0, 767.0, 767.0, 767.0, 767.0, 766.0, 766.0, 765.0, 766.0, 766.0, 766.0, 765.0, 765.0, 765.0, 765.0, 765.0, 766.0, 764.0, 764.0, 764.0, 765.0, 765.0, 766.0, 765.0, 765.0, 765.0, 766.0, 765.0, 766.0, 766.0, 766.0, 767.0, 767.0, 767.0, 767.0, 767.0, 767.0, 767.0, 767.0, 767.0, 766.0, 766.0, 766.0, 765.0, 765.0, 766.0, 766.0, 766.0, 766.0, 765.0, 767.0, 768.0, 767.0, 767.0, 766.0, 765.0, 766.0, 767.0, 766.0, 766.0, 766.0, 765.0, 764.0],
      "WindowWidth": [1649.0, 1642.0, 1639.0, 1638.0, 1636.0, 1634.0, 1635.0, 1637.0, 1636.0, 1634.0, 1633.0, 1632.0, 1633.0, 1632.0, 1633.0, 1632.0, 1633.0, 1632.0, 1635.0, 1634.0, 1634.0, 1633.0, 1633.0, 1632.0, 1634.0, 1635.0, 1637.0, 1642.0, 1643.0, 1640.0, 1636.0, 1636.0, 1633.0, 1635.0, 1636.0, 1636.0, 1636.0, 1636.0, 1634.0, 1634.0, 1632.0, 1632.0, 1632.0, 1631.0, 1632.0, 1632.0, 1632.0, 1632.0, 1632.0, 1633.0, 1635.0, 1635.0, 1635.0, 1635.0, 1633.0, 1633.0, 1633.0, 1635.0, 1636.0, 1638.0, 1638.0, 1637.0, 1636.0, 1634.0, 1635.0, 1635.0, 1638.0, 1638.0, 1639.0, 1637.0, 1637.0, 1634.0, 1635.0, 1635.0, 1636.0, 1636.0, 1637.0, 1636.0, 1634.0, 1634.0, 1634.0, 1633.0, 1633.0, 1633.0, 1634.0, 1635.0, 1637.0, 1636.0, 1635.0, 1633.0, 1632.0, 1634.0, 1635.0, 1636.0, 1636.0, 1636.0, 1637.0, 1638.0, 1640.0, 1639.0, 1640.0, 1640.0, 1640.0, 1640.0, 1640.0, 1640.0, 1638.0, 1637.0, 1635.0, 1638.0, 1636.0, 1636.0, 1635.0, 1634.0, 1634.0, 1635.0, 1636.0, 1637.0, 1633.0, 1632.0, 1632.0, 1636.0, 1636.0, 1637.0, 1635.0, 1635.0, 1634.0, 1636.0, 1635.0, 1638.0, 1637.0, 1638.0, 1639.0, 1639.0, 1640.0, 1639.0, 1640.0, 1639.0, 1639.0, 1639.0, 1640.0, 1638.0, 1637.0, 1637.0, 1636.0, 1636.0, 1637.0, 1637.0, 1638.0, 1637.0, 1635.0, 1640.0, 1641.0, 1639.0, 1639.0, 1636.0, 1636.0, 1636.0, 1639.0, 1638.0, 1637.0, 1636.0, 1633.0, 1632.0]
    },
    "slices": {}
  }
}