{
  "AcquisitionMatrixPE": 72,
  "AcquisitionNumber": 1,
  "AcquisitionTime": "17:44:55.382500",
  "BandwidthPerPixelPhaseEncode": 17.943,
  "BaseResolution": 96,
  "BodyPartExamined": "BRAIN",
  "CoilCombinationMethod": "Sum of Squares",
  "ConsistencyInfo": "N4_VE11C_LATEST_20160120",
  "ConversionSoftware": "dcm2niix",
  "ConversionSoftwareVersion": "v1.0.20211006",
  "DerivedVendorReportedEchoSpacing": 0.000552897,
  "DeviceSerialNumber": "166011",
  "EchoTime": 0.03,
  "EchoTrainLength": 58,
  "EffectiveEchoSpacing": 0.000580542,
  "FlipAngle": 62,
  "ImageOrientationPatientDICOM": [0.99622, -0.0268731, -0.0826034, 0.0203461, 0.996678, -0.0788667],
  "ImageType": [
    "ORIGINAL",
    "PRIMARY",
    "M",
    "ND",
    "MOSAIC"
],
  "ImagingFrequency": 123.259,
  "InPlanePhaseEncodingDirectionDICOM": "COL",
  "InstitutionAddress": "West 130th Street 610,NY,NYC,US,10025",
  "InstitutionName": "MBBI",
  "MRAcquisitionType": "2D",
  "MagneticFieldStrength": 3,
  "Manufacturer": "Siemens",
  "ManufacturersModelName": "Prisma",
  "Modality": "MR",
  "MultibandAccelerationFactor": 3,
  "PartialFourier": 0.75,
  "PatientPosition": "HFS",
  "PercentPhaseFOV": 100,
  "PercentSampling": 75,
  "PhaseEncodingDirection": "j-",
  "PhaseEncodingSteps": 58,
  "PhaseOversampling": 0.05,
  "PhaseResolution": 0.75,
  "PixelBandwidth": 2265,
  "ProcedureStepDescription": "White^Word_recognition",
  "ProtocolName": "func_vwfate_run5",
  "PulseSequenceDetails": "%SiemensSeq%\\ep2d_bold",
  "ReceiveCoilActiveElements": "HC1-7",
  "ReceiveCoilName": "HeadNeck_64",
  "ReconMatrixPE": 96,
  "RefLinesPE": 40,
  "RepetitionTime": 1.5,
  "SAR": 0.0480854,
  "ScanOptions": "PFP\\FS",
  "ScanningSequence": "EP",
  "SequenceName": "*epfid2d1_72",
  "SequenceVariant": "SK\\OSP",
  "SeriesDescription": "func_vwfate_run5",
  "SeriesNumber": 18,
  "ShimSetting": [-1159, -1358, 612, 752, -54, -206, 89, 3],
  "SliceThickness": 2,
  "SliceTiming": [1.075, 0, 0.74, 0.0675, 0.8075, 0.135, 0.875, 0.2, 0.94, 0.2675, 1.0075, 0.4025, 1.1425, 0.47, 1.21, 0.5375, 1.2775, 0.605, 1.345, 0.6725, 1.4125, 0.335, 1.075, 0, 0.74, 0.0675, 0.8075, 0.135, 0.875, 0.2, 0.94, 0.2675, 1.0075, 0.4025, 1.1425, 0.47, 1.21, 0.5375, 1.2775, 0.605, 1.345, 0.6725, 1.4125, 0.335, 1.075, 0, 0.74, 0.0675, 0.8075, 0.135, 0.875, 0.2, 0.94, 0.2675, 1.0075, 0.4025, 1.1425, 0.47, 1.21, 0.5375, 1.2775, 0.605, 1.345, 0.6725, 1.4125, 0.335],
  "SoftwareVersions": "syngo MR E11",
  "SpacingBetweenSlices": 2,
  "StationName": "AWP166011",
  "TaskName": "vwfate",
  "TotalReadoutTime": 0.0551515,
  "TxRefAmp": 233.011,
  "dcmmeta_affine": [
    [-1.9924402236938477, 0.040692105889320374, -0.16889673471450806, 98.17353057861328],
    [0.05374618247151375, 1.9933550357818604, -0.15377585589885712, -66.67716979980469],
    [-0.16520683467388153, 0.15773338079452515, 1.9869139194488525, -91.92208099365234],
    [0.0, 0.0, 0.0, 1.0]
],
  "dcmmeta_reorient_transform": [
    [0.0, -1.0, 0.0, 95.0],
    [1.0, 0.0, 0.0, 0.0],
    [0.0, 0.0, 1.0, 0.0],
    [0.0, 0.0, 0.0, 1.0]
],
  "dcmmeta_shape": [96, 96, 66, 164],
  "dcmmeta_slice_dim": 2,
  "dcmmeta_version": 0.6,
  "global": {
    "const": {
      "AcquisitionMatrix": [96, 0, 0, 72],
      "AngioFlag": "N",
      "BitsAllocated": 16,
      "BitsStored": 12,
      "BodyPartExamined": "BRAIN",
      "Columns": 864,
      "EchoNumbers": 1,
      "EchoTime": 30.0,
      "EchoTrainLength": 58,
      "FlipAngle": 62.0,
      "HighBit": 11,
      "ImageOrientationPatient": [0.99622011226394, -0.0268730906549, -0.0826034195386, 0.02034605288947, 0.99667752220958, -0.0788666903958],
      "ImagePositionPatient": [-882.76209695606, -867.50136280183, 47.071637385684],
      "ImageType": [
        "ORIGINAL",
        "PRIMARY",
        "M",
        "ND",
        "MOSAIC"
],
      "ImagedNucleus": "1H",
      "ImagingFrequency": 123.259333,
      "InPlanePhaseEncodingDirection": "COL",
      "MRAcquisitionType": "2D",
      "MagneticFieldStrength": 3.0,
      "Manufacturer": "SIEMENS",
      "ManufacturerModelName": "Prisma",
      "Modality": "MR",
      "NumberOfAverages": 1.0,
      "NumberOfPhaseEncodingSteps": 58,
      "PercentPhaseFieldOfView": 100.0,
      "PercentSampling": 75.0,
      "PerformedProcedureStepStartTime": "163130.571000",
      "PhotometricInterpretation": "MONOCHROME2",
      "PixelBandwidth": 2265.0,
      "PixelRepresentation": 0,
      "PixelSpacing": [2.0, 2.0],
      "ProtocolName": "func_vwfate_run5",
      "RepetitionTime": 1500.0,
      "Rows": 864,
      "SAR": 0.04808541053839,
      "SamplesPerPixel": 1,
      "ScanOptions": [
        "PFP",
        "FS"
],
      "ScanningSequence": "EP",
      "SequenceName": "*epfid2d1_72",
      "SequenceVariant": [
        "SK",
        "OSP"
],
      "SeriesDescription": "func_vwfate_run5",
      "SeriesNumber": 18,
      "SeriesTime": "174536.492000",
      "SliceLocation": -94.484552422175,
      "SliceThickness": 2.0,
      "SmallestImagePixelValue": 0,
      "SoftwareVersions": "syngo MR E11",
      "SpacingBetweenSlices": 2.0000000373477,
      "SpecificCharacterSet": "ISO_IR 100",
      "StudyID": "1",
      "StudyTime": "163130.476000",
      "TransmitCoilName": "Body",
      "VariableFlipAngleFlag": "N",
      "WindowCenterWidthExplanation": "Algo1",
      "dBdt": 0.0},
    "slices": {}
  },
  "time": {
    "samples": {
      "AcquisitionNumber": [1, 2, 3, 4, 5, 6, 7, 8, 9, 10, 11, 12, 13, 14, 15, 16, 17, 18, 19, 20, 21, 22, 23, 24, 25, 26, 27, 28, 29, 30, 31, 32, 33, 34, 35, 36, 37, 38, 39, 40, 41, 42, 43, 44, 45, 46, 47, 48, 49, 50, 51, 52, 53, 54, 55, 56, 57, 58, 59, 60, 61, 62, 63, 64, 65, 66, 67, 68, 69, 70, 71, 72, 73, 74, 75, 76, 77, 78, 79, 80, 81, 82, 83, 84, 85, 86, 87, 88, 89, 90, 91, 92, 93, 94, 95, 96, 97, 98, 99, 100, 101, 102, 103, 104, 105, 106, 107, 108, 109, 110, 111, 112, 113, 114, 115, 116, 117, 118, 119, 120, 121, 122, 123, 124, 125, 126, 127, 128, 129, 130, 131, 132, 133, 134, 135, 136, 137, 138, 139, 140, 141, 142, 143, 144, 145, 146, 147, 148, 149, 150, 151, 152, 153, 154, 155, 156, 157, 158, 159, 160, 161, 162, 163, 164],
      "AcquisitionTime": ["174455.382500", "174456.882500", "174458.382500", "174459.882500", "174501.382500", "174502.882500", "174504.382500", "174505.882500", "174507.382500", "174508.882500", "174510.382500", "174511.882500", "174513.382500", "174514.882500", "174516.382500", "174517.882500", "174519.382500", "174520.882500", "174522.382500", "174523.882500", "174525.382500", "174526.882500", "174528.382500", "174529.882500", "174531.382500", "174532.882500", "174534.382500", "174535.882500", "174537.382500", "174538.882500", "174540.382500", "174541.882500", "174543.382500", "174544.882500", "174546.382500", "174547.882500", "174549.382500", "174550.882500", "174552.382500", "174553.882500", "174555.382500", "174556.882500", "174558.382500", "174559.882500", "174601.382500", "174602.882500", "174604.382500", "174605.882500", "174607.382500", "174608.882500", "174610.382500", "174611.882500", "174613.382500", "174614.882500", "174616.382500", "174617.882500", "174619.382500", "174620.882500", "174622.382500", "174623.882500", "174625.382500", "174626.882500", "174628.382500", "174629.882500", "174631.382500", "174632.882500", "174634.382500", "174635.882500", "174637.382500", "174638.882500", "174640.382500", "174641.882500", "174643.382500", "174644.882500", "174646.382500", "174647.882500", "174649.382500", "174650.882500", "174652.382500", "174653.882500", "174655.382500", "174656.882500", "174658.382500", "174659.882500", "174701.382500", "174702.882500", "174704.382500", "174705.882500", "174707.382500", "174708.882500", "174710.382500", "174711.882500", "174713.382500", "174714.882500", "174716.382500", "174717.882500", "174719.382500", "174720.882500", "174722.382500", "174723.882500", "174725.382500", "174726.882500", "174728.382500", "174729.882500", "174731.382500", "174732.882500", "174734.382500", "174735.882500", "174737.382500", "174738.882500", "174740.382500", "174741.882500", "174743.382500", "174744.882500", "174746.382500", "174747.882500", "174749.382500", "174750.882500", "174752.382500", "174753.882500", "174755.382500", "174756.882500", "174758.382500", "174759.882500", "174801.382500", "174802.882500", "174804.382500", "174805.882500", "174807.382500", "174808.882500", "174810.382500", "174811.882500", "174813.382500", "174814.882500", "174816.382500", "174817.882500", "174819.382500", "174820.882500", "174822.382500", "174823.882500", "174825.382500", "174826.882500", "174828.382500", "174829.882500", "174831.382500", "174832.882500", "174834.382500", "174835.882500", "174837.382500", "174838.882500", "174840.382500", "174841.882500", "174843.382500", "174844.882500", "174846.382500", "174847.882500", "174849.382500", "174850.882500", "174852.382500", "174853.882500", "174855.382500", "174856.882500", "174858.382500", "174859.882500"],
      "ContentTime": ["174536.496000", "174536.500000", "174536.507000", "174536.511000", "174536.514000", "174536.518000", "174536.521000", "174536.524000", "174536.527000", "174536.530000", "174536.533000", "174536.536000", "174536.546000", "174536.549000", "174536.551000", "174536.555000", "174536.558000", "174536.561000", "174536.564000", "174536.567000", "174536.570000", "174536.573000", "174536.576000", "174536.580000", "174536.583000", "174536.586000", "174536.589000", "174616.492000", "174616.495000", "174616.498000", "174616.512000", "174616.515000", "174616.518000", "174616.521000", "174616.524000", "174616.527000", "174616.530000", "174616.533000", "174616.536000", "174616.539000", "174616.542000", "174616.545000", "174616.548000", "174616.553000", "174616.556000", "174616.559000", "174616.562000", "174616.565000", "174616.568000", "174616.571000", "174616.574000", "174616.577000", "174616.580000", "174616.583000", "174656.492000", "174656.495000", "174656.498000", "174656.501000", "174656.504000", "174656.507000", "174656.510000", "174656.513000", "174656.523000", "174656.526000", "174656.528000", "174656.531000", "174656.534000", "174656.537000", "174656.540000", "174656.543000", "174656.546000", "174656.549000", "174656.552000", "174656.555000", "174656.558000", "174656.561000", "174656.564000", "174656.567000", "174656.570000", "174656.573000", "174656.576000", "174736.491000", "174736.494000", "174736.497000", "174736.500000", "174736.503000", "174736.506000", "174736.509000", "174736.512000", "174736.515000", "174736.518000", "174736.521000", "174736.524000", "174736.527000", "174736.530000", "174736.533000", "174736.536000", "174736.539000", "174736.542000", "174736.545000", "174736.548000", "174736.551000", "174736.554000", "174736.557000", "174736.560000", "174736.563000", "174736.566000", "174816.491000", "174816.494000", "174816.497000", "174816.500000", "174816.503000", "174816.506000", "174816.509000", "174816.512000", "174816.515000", "174816.518000", "174816.522000", "174816.524000", "174816.527000", "174816.530000", "174816.534000", "174816.536000", "174816.539000", "174816.561000", "174816.564000", "174816.567000", "174816.570000", "174816.573000", "174816.576000", "174816.579000", "174816.582000", "174816.586000", "174816.589000", "174856.492000", "174856.495000", "174856.498000", "174856.501000", "174856.504000", "174856.507000", "174856.510000", "174856.513000", "174856.516000", "174856.519000", "174856.522000", "174856.525000", "174856.528000", "174856.531000", "174856.534000", "174856.537000", "174856.540000", "174856.543000", "174856.546000", "174856.549000", "174856.552000", "174856.555000", "174856.558000", "174856.561000", "174856.564000", "174856.567000", "174856.570000", "174900.878000", "174900.882000", "174900.885000"],
      "InstanceCreationTime": ["174536.496000", "174536.500000", "174536.507000", "174536.511000", "174536.514000", "174536.518000", "174536.521000", "174536.524000", "174536.527000", "174536.530000", "174536.533000", "174536.536000", "174536.546000", "174536.549000", "174536.551000", "174536.555000", "174536.558000", "174536.561000", "174536.564000", "174536.567000", "174536.570000", "174536.573000", "174536.576000", "174536.580000", "174536.583000", "174536.586000", "174536.589000", "174616.492000", "174616.495000", "174616.498000", "174616.512000", "174616.515000", "174616.518000", "174616.521000", "174616.524000", "174616.527000", "174616.530000", "174616.533000", "174616.536000", "174616.539000", "174616.542000", "174616.545000", "174616.548000", "174616.553000", "174616.556000", "174616.559000", "174616.562000", "174616.565000", "174616.568000", "174616.571000", "174616.574000", "174616.577000", "174616.580000", "174616.583000", "174656.492000", "174656.495000", "174656.498000", "174656.501000", "174656.504000", "174656.507000", "174656.510000", "174656.513000", "174656.523000", "174656.526000", "174656.528000", "174656.531000", "174656.534000", "174656.537000", "174656.540000", "174656.543000", "174656.546000", "174656.549000", "174656.552000", "174656.555000", "174656.558000", "174656.561000", "174656.564000", "174656.567000", "174656.570000", "174656.573000", "174656.576000", "174736.491000", "174736.494000", "174736.497000", "174736.500000", "174736.503000", "174736.506000", "174736.509000", "174736.512000", "174736.515000", "174736.518000", "174736.521000", "174736.524000", "174736.527000", "174736.530000", "174736.533000", "174736.536000", "174736.539000", "174736.542000", "174736.545000", "174736.548000", "174736.551000", "174736.554000", "174736.557000", "174736.560000", "174736.563000", "174736.566000", "174816.491000", "174816.494000", "174816.497000", "174816.500000", "174816.503000", "174816.506000", "174816.509000", "174816.512000", "174816.515000", "174816.518000", "174816.522000", "174816.524000", "174816.527000", "174816.530000", "174816.534000", "174816.536000", "174816.539000", "174816.561000", "174816.564000", "174816.567000", "174816.570000", "174816.573000", "174816.576000", "174816.579000", "174816.582000", "174816.586000", "174816.589000", "174856.492000", "174856.495000", "174856.498000", "174856.501000", "174856.504000", "174856.507000", "174856.510000", "174856.513000", "174856.516000", "174856.519000", "174856.522000", "174856.525000", "174856.528000", "174856.531000", "174856.534000", "174856.537000", "174856.540000", "174856.543000", "174856.546000", "174856.549000", "174856.552000", "174856.555000", "174856.558000", "174856.561000", "174856.564000", "174856.567000", "174856.570000", "174900.878000", "174900.882000", "174900.885000"],
      "InstanceNumber": [1, 2, 3, 4, 5, 6, 7, 8, 9, 10, 11, 12, 13, 14, 15, 16, 17, 18, 19, 20, 21, 22, 23, 24, 25, 26, 27, 28, 29, 30, 31, 32, 33, 34, 35, 36, 37, 38, 39, 40, 41, 42, 43, 44, 45, 46, 47, 48, 49, 50, 51, 52, 53, 54, 55, 56, 57, 58, 59, 60, 61, 62, 63, 64, 65, 66, 67, 68, 69, 70, 71, 72, 73, 74, 75, 76, 77, 78, 79, 80, 81, 82, 83, 84, 85, 86, 87, 88, 89, 90, 91, 92, 93, 94, 95, 96, 97, 98, 99, 100, 101, 102, 103, 104, 105, 106, 107, 108, 109, 110, 111, 112, 113, 114, 115, 116, 117, 118, 119, 120, 121, 122, 123, 124, 125, 126, 127, 128, 129, 130, 131, 132, 133, 134, 135, 136, 137, 138, 139, 140, 141, 142, 143, 144, 145, 146, 147, 148, 149, 150, 151, 152, 153, 154, 155, 156, 157, 158, 159, 160, 161, 162, 163, 164],
      "LargestImagePixelValue": [2492, 2493, 2426, 2463, 2399, 2512, 2421, 2449, 2427, 2455, 2426, 2457, 2428, 2460, 2447, 2463, 2475, 2464, 2465, 2505, 2477, 2476, 2484, 2486, 2485, 2453, 2496, 2467, 2624, 2561, 2513, 2466, 2497, 2476, 2446, 2476, 2483, 2477, 2487, 2450, 2494, 2473, 2495, 2507, 2530, 2487, 2486, 2536, 2497, 2506, 2503, 2523, 2513, 2506, 2520, 2522, 2476, 2498, 2507, 2528, 2516, 2528, 2538, 2559, 2533, 2538, 2558, 2530, 2614, 2514, 2497, 2464, 2482, 2506, 2512, 2495, 2523, 2462, 2728, 2656, 2552, 2518, 2460, 2551, 2509, 2565, 2535, 2529, 2376, 2821, 2528, 2586, 2459, 2499, 2445, 2491, 2491, 2529, 2476, 2516, 2462, 2496, 2516, 2525, 2496, 2514, 2536, 2506, 2528, 2520, 2525, 2497, 2505, 2538, 2449, 2605, 2517, 2556, 2548, 2550, 2544, 2584, 2553, 2553, 2532, 2572, 2503, 2562, 2464, 2539, 2488, 2520, 2470, 2503, 2523, 2527, 2531, 2527, 2519, 2533, 2538, 2545, 2554, 2542, 2553, 2576, 2533, 2557, 2531, 2583, 2526, 2483, 2556, 2538, 2545, 2512, 2570, 2547, 2547, 2558, 2523, 2552, 2544, 2514],
      "WindowCenter": [699.0, 698.0, 697.0, 697.0, 697.0, 697.0, 697.0, 697.0, 697.0, 697.0, 698.0, 698.0, 698.0, 698.0, 697.0, 697.0, 697.0, 697.0, 698.0, 698.0, 697.0, 696.0, 697.0, 697.0, 697.0, 697.0, 698.0, 698.0, 699.0, 699.0, 698.0, 697.0, 697.0, 697.0, 697.0, 697.0, 698.0, 698.0, 698.0, 697.0, 698.0, 698.0, 699.0, 699.0, 700.0, 699.0, 699.0, 699.0, 698.0, 698.0, 697.0, 697.0, 698.0, 698.0, 698.0, 699.0, 698.0, 698.0, 698.0, 698.0, 698.0, 698.0, 699.0, 698.0, 697.0, 698.0, 698.0, 697.0, 694.0, 696.0, 696.0, 695.0, 695.0, 696.0, 697.0, 697.0, 698.0, 694.0, 699.0, 702.0, 702.0, 700.0, 698.0, 697.0, 696.0, 696.0, 697.0, 697.0, 682.0, 694.0, 696.0, 699.0, 698.0, 699.0, 698.0, 698.0, 697.0, 697.0, 696.0, 697.0, 697.0, 698.0, 698.0, 700.0, 699.0, 698.0, 698.0, 697.0, 697.0, 697.0, 698.0, 699.0, 700.0, 700.0, 699.0, 699.0, 698.0, 698.0, 698.0, 699.0, 698.0, 699.0, 699.0, 699.0, 699.0, 699.0, 699.0, 699.0, 699.0, 700.0, 699.0, 700.0, 699.0, 699.0, 699.0, 698.0, 698.0, 699.0, 698.0, 698.0, 698.0, 698.0, 698.0, 698.0, 699.0, 699.0, 700.0, 701.0, 702.0, 702.0, 700.0, 698.0, 699.0, 698.0, 698.0, 698.0, 698.0, 697.0, 698.0, 697.0, 698.0, 699.0, 699.0, 699.0],
      "WindowWidth": [1513.0, 1509.0, 1507.0, 1507.0, 1505.0, 1506.0, 1506.0, 1506.0, 1506.0, 1507.0, 1508.0, 1508.0, 1508.0, 1508.0, 1506.0, 1506.0, 1506.0, 1507.0, 1508.0, 1507.0, 1505.0, 1504.0, 1506.0, 1506.0, 1507.0, 1507.0, 1509.0, 1508.0, 1510.0, 1512.0, 1510.0, 1506.0, 1507.0, 1506.0, 1505.0, 1506.0, 1508.0, 1509.0, 1508.0, 1506.0, 1508.0, 1508.0, 1512.0, 1512.0, 1514.0, 1511.0, 1511.0, 1512.0, 1509.0, 1508.0, 1507.0, 1507.0, 1507.0, 1508.0, 1509.0, 1511.0, 1508.0, 1509.0, 1507.0, 1508.0, 1509.0, 1509.0, 1511.0, 1508.0, 1507.0, 1507.0, 1508.0, 1506.0, 1496.0, 1501.0, 1504.0, 1501.0, 1500.0, 1502.0, 1506.0, 1506.0, 1508.0, 1497.0, 1513.0, 1519.0, 1518.0, 1513.0, 1508.0, 1505.0, 1504.0, 1504.0, 1505.0, 1505.0, 1464.0, 1498.0, 1504.0, 1510.0, 1508.0, 1509.0, 1508.0, 1507.0, 1506.0, 1505.0, 1504.0, 1504.0, 1506.0, 1508.0, 1508.0, 1515.0, 1511.0, 1509.0, 1508.0, 1505.0, 1506.0, 1505.0, 1509.0, 1512.0, 1513.0, 1512.0, 1511.0, 1511.0, 1508.0, 1509.0, 1509.0, 1510.0, 1509.0, 1512.0, 1511.0, 1512.0, 1511.0, 1511.0, 1510.0, 1512.0, 1510.0, 1513.0, 1512.0, 1513.0, 1510.0, 1510.0, 1509.0, 1509.0, 1509.0, 1510.0, 1509.0, 1509.0, 1508.0, 1507.0, 1508.0, 1509.0, 1512.0, 1512.0, 1514.0, 1518.0, 1519.0, 1519.0, 1513.0, 1507.0, 1511.0, 1509.0, 1509.0, 1508.0, 1508.0, 1507.0, 1508.0, 1506.0, 1509.0, 1510.0, 1510.0, 1511.0]
    },
    "slices": {}
  }
}