{
  "AcquisitionMatrixPE": 72,
  "AcquisitionNumber": 1,
  "AcquisitionTime": "17:19:23.457500",
  "BandwidthPerPixelPhaseEncode": 17.943,
  "BaseResolution": 96,
  "BodyPartExamined": "BRAIN",
  "CoilCombinationMethod": "Sum of Squares",
  "ConsistencyInfo": "N4_VE11C_LATEST_20160120",
  "ConversionSoftware": "dcm2niix",
  "ConversionSoftwareVersion": "v1.0.20211006",
  "DerivedVendorReportedEchoSpacing": 0.000552897,
  "DeviceSerialNumber": "166011",
  "EchoTime": 0.03,
  "EchoTrainLength": 58,
  "EffectiveEchoSpacing": 0.000580542,
  "FlipAngle": 62,
  "ImageOrientationPatientDICOM": [0.99622, -0.0268731, -0.0826034, 0.0203461, 0.996678, -0.0788667],
  "ImageType": [
    "ORIGINAL",
    "PRIMARY",
    "M",
    "ND",
    "MOSAIC"
],
  "ImagingFrequency": 123.259,
  "InPlanePhaseEncodingDirectionDICOM": "COL",
  "InstitutionAddress": "West 130th Street 610,NY,NYC,US,10025",
  "InstitutionName": "MBBI",
  "MRAcquisitionType": "2D",
  "MagneticFieldStrength": 3,
  "Manufacturer": "Siemens",
  "ManufacturersModelName": "Prisma",
  "Modality": "MR",
  "MultibandAccelerationFactor": 3,
  "PartialFourier": 0.75,
  "PatientPosition": "HFS",
  "PercentPhaseFOV": 100,
  "PercentSampling": 75,
  "PhaseEncodingDirection": "j-",
  "PhaseEncodingSteps": 58,
  "PhaseOversampling": 0.05,
  "PhaseResolution": 0.75,
  "PixelBandwidth": 2265,
  "ProcedureStepDescription": "White^Word_recognition",
  "ProtocolName": "func_catLoc_run1",
  "PulseSequenceDetails": "%SiemensSeq%\\ep2d_bold",
  "ReceiveCoilActiveElements": "HC1-7",
  "ReceiveCoilName": "HeadNeck_64",
  "ReconMatrixPE": 96,
  "RefLinesPE": 40,
  "RepetitionTime": 1.5,
  "SAR": 0.0482359,
  "ScanOptions": "PFP\\FS",
  "ScanningSequence": "EP",
  "SequenceName": "*epfid2d1_72",
  "SequenceVariant": "SK\\OSP",
  "SeriesDescription": "func_catLoc_run1",
  "SeriesNumber": 14,
  "ShimSetting": [-1159, -1358, 612, 752, -54, -206, 89, 3],
  "SliceThickness": 2,
  "SliceTiming": [1.0775, 0, 0.74, 0.0675, 0.8075, 0.135, 0.875, 0.2025, 0.9425, 0.27, 1.01, 0.405, 1.145, 0.47, 1.21, 0.5375, 1.2775, 0.605, 1.345, 0.6725, 1.4125, 0.3375, 1.0775, 0, 0.74, 0.0675, 0.8075, 0.135, 0.875, 0.2025, 0.9425, 0.27, 1.01, 0.405, 1.145, 0.47, 1.21, 0.5375, 1.2775, 0.605, 1.345, 0.6725, 1.4125, 0.3375, 1.0775, 0, 0.74, 0.0675, 0.8075, 0.135, 0.875, 0.2025, 0.9425, 0.27, 1.01, 0.405, 1.145, 0.47, 1.21, 0.5375, 1.2775, 0.605, 1.345, 0.6725, 1.4125, 0.3375],
  "SoftwareVersions": "syngo MR E11",
  "SpacingBetweenSlices": 2,
  "StationName": "AWP166011",
  "TaskName": "catLoc",
  "TotalReadoutTime": 0.0551515,
  "TxRefAmp": 233.011,
  "dcmmeta_affine": [
    [-1.9924402236938477, 0.040692105889320374, -0.16889673471450806, 98.17353057861328],
    [0.05374618247151375, 1.9933550357818604, -0.15377585589885712, -66.67716979980469],
    [-0.16520683467388153, 0.15773338079452515, 1.9869139194488525, -91.92208099365234],
    [0.0, 0.0, 0.0, 1.0]
],
  "dcmmeta_reorient_transform": [
    [0.0, -1.0, 0.0, 95.0],
    [1.0, 0.0, 0.0, 0.0],
    [0.0, 0.0, 1.0, 0.0],
    [0.0, 0.0, 0.0, 1.0]
],
  "dcmmeta_shape": [96, 96, 66, 214],
  "dcmmeta_slice_dim": 2,
  "dcmmeta_version": 0.6,
  "global": {
    "const": {
      "AcquisitionMatrix": [96, 0, 0, 72],
      "AngioFlag": "N",
      "BitsAllocated": 16,
      "BitsStored": 12,
      "BodyPartExamined": "BRAIN",
      "Columns": 864,
      "EchoNumbers": 1,
      "EchoTime": 30.0,
      "EchoTrainLength": 58,
      "FlipAngle": 62.0,
      "HighBit": 11,
      "ImageOrientationPatient": [0.99622011226394, -0.0268730906549, -0.0826034195386, 0.02034605288947, 0.99667752220958, -0.0788666903958],
      "ImagePositionPatient": [-882.76209695606, -867.50136280183, 47.071637385684],
      "ImageType": [
        "ORIGINAL",
        "PRIMARY",
        "M",
        "ND",
        "MOSAIC"
],
      "ImagedNucleus": "1H",
      "ImagingFrequency": 123.259323,
      "InPlanePhaseEncodingDirection": "COL",
      "MRAcquisitionType": "2D",
      "MagneticFieldStrength": 3.0,
      "Manufacturer": "SIEMENS",
      "ManufacturerModelName": "Prisma",
      "Modality": "MR",
      "NumberOfAverages": 1.0,
      "NumberOfPhaseEncodingSteps": 58,
      "PercentPhaseFieldOfView": 100.0,
      "PercentSampling": 75.0,
      "PerformedProcedureStepStartTime": "163130.571000",
      "PhotometricInterpretation": "MONOCHROME2",
      "PixelBandwidth": 2265.0,
      "PixelRepresentation": 0,
      "PixelSpacing": [2.0, 2.0],
      "ProtocolName": "func_catLoc_run1",
      "RepetitionTime": 1500.0,
      "Rows": 864,
      "SAR": 0.04823589279527,
      "SamplesPerPixel": 1,
      "ScanOptions": [
        "PFP",
        "FS"
],
      "ScanningSequence": "EP",
      "SequenceName": "*epfid2d1_72",
      "SequenceVariant": [
        "SK",
        "OSP"
],
      "SeriesDescription": "func_catLoc_run1",
      "SeriesNumber": 14,
      "SeriesTime": "171959.899000",
      "SliceLocation": -94.484552422175,
      "SliceThickness": 2.0,
      "SmallestImagePixelValue": 0,
      "SoftwareVersions": "syngo MR E11",
      "SpacingBetweenSlices": 2.0000000373477,
      "SpecificCharacterSet": "ISO_IR 100",
      "StudyID": "1",
      "StudyTime": "163130.476000",
      "TransmitCoilName": "Body",
      "VariableFlipAngleFlag": "N",
      "WindowCenterWidthExplanation": "Algo1",
      "dBdt": 0.0},
    "slices": {}
  },
  "time": {
    "samples": {
      "AcquisitionNumber": [1, 2, 3, 4, 5, 6, 7, 8, 9, 10, 11, 12, 13, 14, 15, 16, 17, 18, 19, 20, 21, 22, 23, 24, 25, 26, 27, 28, 29, 30, 31, 32, 33, 34, 35, 36, 37, 38, 39, 40, 41, 42, 43, 44, 45, 46, 47, 48, 49, 50, 51, 52, 53, 54, 55, 56, 57, 58, 59, 60, 61, 62, 63, 64, 65, 66, 67, 68, 69, 70, 71, 72, 73, 74, 75, 76, 77, 78, 79, 80, 81, 82, 83, 84, 85, 86, 87, 88, 89, 90, 91, 92, 93, 94, 95, 96, 97, 98, 99, 100, 101, 102, 103, 104, 105, 106, 107, 108, 109, 110, 111, 112, 113, 114, 115, 116, 117, 118, 119, 120, 121, 122, 123, 124, 125, 126, 127, 128, 129, 130, 131, 132, 133, 134, 135, 136, 137, 138, 139, 140, 141, 142, 143, 144, 145, 146, 147, 148, 149, 150, 151, 152, 153, 154, 155, 156, 157, 158, 159, 160, 161, 162, 163, 164, 165, 166, 167, 168, 169, 170, 171, 172, 173, 174, 175, 176, 177, 178, 179, 180, 181, 182, 183, 184, 185, 186, 187, 188, 189, 190, 191, 192, 193, 194, 195, 196, 197, 198, 199, 200, 201, 202, 203, 204, 205, 206, 207, 208, 209, 210, 211, 212, 213, 214],
      "AcquisitionTime": ["171923.457500", "171924.957500", "171926.457500", "171927.957500", "171929.457500", "171930.957500", "171932.457500", "171933.957500", "171935.457500", "171936.957500", "171938.457500", "171939.957500", "171941.457500", "171942.957500", "171944.457500", "171945.957500", "171947.457500", "171948.957500", "171950.457500", "171951.957500", "171953.457500", "171954.957500", "171956.457500", "171957.957500", "171959.457500", "172000.957500", "172002.457500", "172003.957500", "172005.457500", "172006.957500", "172008.457500", "172009.957500", "172011.457500", "172012.957500", "172014.457500", "172015.957500", "172017.457500", "172018.957500", "172020.457500", "172021.957500", "172023.457500", "172024.957500", "172026.457500", "172027.957500", "172029.457500", "172030.957500", "172032.457500", "172033.957500", "172035.457500", "172036.957500", "172038.457500", "172039.957500", "172041.457500", "172042.957500", "172044.457500", "172045.957500", "172047.457500", "172048.957500", "172050.457500", "172051.957500", "172053.457500", "172054.957500", "172056.457500", "172057.957500", "172059.457500", "172100.957500", "172102.457500", "172103.957500", "172105.457500", "172106.957500", "172108.457500", "172109.957500", "172111.457500", "172112.957500", "172114.457500", "172115.957500", "172117.457500", "172118.957500", "172120.457500", "172121.957500", "172123.457500", "172124.957500", "172126.457500", "172127.957500", "172129.457500", "172130.957500", "172132.457500", "172133.957500", "172135.457500", "172136.957500", "172138.457500", "172139.957500", "172141.457500", "172142.957500", "172144.457500", "172145.957500", "172147.457500", "172148.957500", "172150.457500", "172151.957500", "172153.457500", "172154.957500", "172156.457500", "172157.957500", "172159.457500", "172200.957500", "172202.457500", "172203.957500", "172205.457500", "172206.957500", "172208.457500", "172209.957500", "172211.457500", "172212.957500", "172214.457500", "172215.957500", "172217.457500", "172218.957500", "172220.457500", "172221.957500", "172223.457500", "172224.957500", "172226.457500", "172227.957500", "172229.457500", "172230.957500", "172232.457500", "172233.957500", "172235.457500", "172236.957500", "172238.457500", "172239.957500", "172241.457500", "172242.957500", "172244.457500", "172245.957500", "172247.457500", "172248.957500", "172250.457500", "172251.957500", "172253.457500", "172254.957500", "172256.457500", "172257.957500", "172259.457500", "172300.957500", "172302.457500", "172303.957500", "172305.457500", "172306.957500", "172308.457500", "172309.957500", "172311.457500", "172312.957500", "172314.457500", "172315.957500", "172317.457500", "172318.957500", "172320.457500", "172321.957500", "172323.457500", "172324.957500", "172326.457500", "172327.957500", "172329.457500", "172330.957500", "172332.457500", "172333.957500", "172335.457500", "172336.957500", "172338.457500", "172339.957500", "172341.457500", "172342.957500", "172344.457500", "172345.957500", "172347.457500", "172348.957500", "172350.457500", "172351.957500", "172353.457500", "172354.957500", "172356.457500", "172357.957500", "172359.457500", "172400.957500", "172402.457500", "172403.957500", "172405.457500", "172406.957500", "172408.457500", "172409.957500", "172411.457500", "172412.957500", "172414.457500", "172415.957500", "172417.457500", "172418.957500", "172420.457500", "172421.957500", "172423.457500", "172424.957500", "172426.457500", "172427.957500", "172429.457500", "172430.957500", "172432.457500", "172433.957500", "172435.457500", "172436.957500", "172438.457500", "172439.957500", "172441.457500", "172442.957500"],
      "ContentTime": ["171959.903000", "171959.908000", "171959.911000", "171959.914000", "171959.933000", "171959.954000", "171959.957000", "171959.960000", "171959.979000", "171959.982000", "171959.985000", "171959.998000", "172000.052000", "172000.056000", "172000.059000", "172000.062000", "172000.065000", "172000.079000", "172000.082000", "172000.086000", "172000.089000", "172000.093000", "172000.096000", "172000.099000", "172039.878000", "172039.883000", "172039.897000", "172039.900000", "172039.902000", "172039.906000", "172039.908000", "172039.911000", "172039.914000", "172039.917000", "172039.920000", "172039.923000", "172039.926000", "172039.939000", "172039.941000", "172039.944000", "172039.947000", "172039.958000", "172039.961000", "172039.963000", "172039.966000", "172039.978000", "172039.981000", "172039.984000", "172039.987000", "172039.990000", "172039.993000", "172119.878000", "172119.881000", "172119.884000", "172119.887000", "172119.890000", "172119.893000", "172119.896000", "172119.899000", "172119.902000", "172119.905000", "172119.908000", "172119.911000", "172119.914000", "172119.917000", "172119.920000", "172119.923000", "172119.926000", "172119.929000", "172119.932000", "172119.935000", "172119.938000", "172119.941000", "172119.944000", "172119.947000", "172119.950000", "172119.959000", "172139.877000", "172139.880000", "172139.883000", "172139.886000", "172139.890000", "172139.892000", "172139.895000", "172139.898000", "172139.901000", "172139.905000", "172139.908000", "172139.911000", "172139.914000", "172139.917000", "172219.877000", "172219.880000", "172219.883000", "172219.886000", "172219.889000", "172219.892000", "172219.895000", "172219.898000", "172219.901000", "172219.904000", "172219.907000", "172219.910000", "172219.913000", "172219.915000", "172219.919000", "172219.921000", "172219.924000", "172219.927000", "172219.930000", "172219.933000", "172219.936000", "172219.939000", "172219.942000", "172219.945000", "172219.948000", "172219.951000", "172259.878000", "172259.881000", "172259.884000", "172259.887000", "172259.890000", "172259.893000", "172259.896000", "172259.899000", "172259.902000", "172259.905000", "172259.908000", "172259.911000", "172259.914000", "172259.917000", "172259.920000", "172259.923000", "172259.926000", "172259.929000", "172259.932000", "172259.935000", "172259.938000", "172259.940000", "172259.944000", "172259.946000", "172259.949000", "172259.952000", "172259.955000", "172339.878000", "172339.887000", "172339.890000", "172339.893000", "172339.896000", "172339.899000", "172339.902000", "172339.905000", "172339.908000", "172339.911000", "172339.914000", "172339.917000", "172339.920000", "172339.923000", "172339.926000", "172339.929000", "172339.932000", "172339.935000", "172339.938000", "172339.941000", "172339.944000", "172339.947000", "172339.950000", "172339.953000", "172339.956000", "172339.959000", "172339.962000", "172419.877000", "172419.880000", "172419.883000", "172419.886000", "172419.890000", "172419.892000", "172419.896000", "172419.899000", "172419.902000", "172419.905000", "172419.908000", "172419.911000", "172419.914000", "172419.917000", "172419.920000", "172419.923000", "172419.926000", "172419.929000", "172419.932000", "172419.935000", "172419.938000", "172419.941000", "172419.951000", "172419.954000", "172419.957000", "172419.960000", "172444.316000", "172444.319000", "172444.323000", "172444.326000", "172444.329000", "172444.332000", "172444.336000", "172444.339000", "172444.342000", "172444.345000", "172444.348000", "172444.352000", "172444.355000", "172444.358000", "172444.361000", "172444.364000", "172444.367000"],
      "InstanceCreationTime": ["171959.903000", "171959.908000", "171959.911000", "171959.914000", "171959.933000", "171959.954000", "171959.957000", "171959.960000", "171959.979000", "171959.982000", "171959.985000", "171959.998000", "172000.052000", "172000.056000", "172000.059000", "172000.062000", "172000.065000", "172000.079000", "172000.082000", "172000.086000", "172000.089000", "172000.093000", "172000.096000", "172000.099000", "172039.878000", "172039.883000", "172039.897000", "172039.900000", "172039.902000", "172039.906000", "172039.908000", "172039.911000", "172039.914000", "172039.917000", "172039.920000", "172039.923000", "172039.926000", "172039.939000", "172039.941000", "172039.944000", "172039.947000", "172039.958000", "172039.961000", "172039.963000", "172039.966000", "172039.978000", "172039.981000", "172039.984000", "172039.987000", "172039.990000", "172039.993000", "172119.878000", "172119.881000", "172119.884000", "172119.887000", "172119.890000", "172119.893000", "172119.896000", "172119.899000", "172119.902000", "172119.905000", "172119.908000", "172119.911000", "172119.914000", "172119.917000", "172119.920000", "172119.923000", "172119.926000", "172119.929000", "172119.932000", "172119.935000", "172119.938000", "172119.941000", "172119.944000", "172119.947000", "172119.950000", "172119.959000", "172139.877000", "172139.880000", "172139.883000", "172139.886000", "172139.890000", "172139.892000", "172139.895000", "172139.898000", "172139.901000", "172139.905000", "172139.908000", "172139.911000", "172139.914000", "172139.917000", "172219.877000", "172219.880000", "172219.883000", "172219.886000", "172219.889000", "172219.892000", "172219.895000", "172219.898000", "172219.901000", "172219.904000", "172219.907000", "172219.910000", "172219.913000", "172219.915000", "172219.919000", "172219.921000", "172219.924000", "172219.927000", "172219.930000", "172219.933000", "172219.936000", "172219.939000", "172219.942000", "172219.945000", "172219.948000", "172219.951000", "172259.878000", "172259.881000", "172259.884000", "172259.887000", "172259.890000", "172259.893000", "172259.896000", "172259.899000", "172259.902000", "172259.905000", "172259.908000", "172259.911000", "172259.914000", "172259.917000", "172259.920000", "172259.923000", "172259.926000", "172259.929000", "172259.932000", "172259.935000", "172259.938000", "172259.940000", "172259.944000", "172259.946000", "172259.949000", "172259.952000", "172259.955000", "172339.878000", "172339.887000", "172339.890000", "172339.893000", "172339.896000", "172339.899000", "172339.902000", "172339.905000", "172339.908000", "172339.911000", "172339.914000", "172339.917000", "172339.920000", "172339.923000", "172339.926000", "172339.929000", "172339.932000", "172339.935000", "172339.938000", "172339.941000", "172339.944000", "172339.947000", "172339.950000", "172339.953000", "172339.956000", "172339.959000", "172339.962000", "172419.877000", "172419.880000", "172419.883000", "172419.886000", "172419.890000", "172419.892000", "172419.896000", "172419.899000", "172419.902000", "172419.905000", "172419.908000", "172419.911000", "172419.914000", "172419.917000", "172419.920000", "172419.923000", "172419.926000", "172419.929000", "172419.932000", "172419.935000", "172419.938000", "172419.941000", "172419.951000", "172419.954000", "172419.957000", "172419.960000", "172444.316000", "172444.319000", "172444.323000", "172444.326000", "172444.329000", "172444.332000", "172444.336000", "172444.339000", "172444.342000", "172444.345000", "172444.348000", "172444.352000", "172444.355000", "172444.358000", "172444.361000", "172444.364000", "172444.367000"],
      "InstanceNumber": [1, 2, 3, 4, 5, 6, 7, 8, 9, 10, 11, 12, 13, 14, 15, 16, 17, 18, 19, 20, 21, 22, 23, 24, 25, 26, 27, 28, 29, 30, 31, 32, 33, 34, 35, 36, 37, 38, 39, 40, 41, 42, 43, 44, 45, 46, 47, 48, 49, 50, 51, 52, 53, 54, 55, 56, 57, 58, 59, 60, 61, 62, 63, 64, 65, 66, 67, 68, 69, 70, 71, 72, 73, 74, 75, 76, 77, 78, 79, 80, 81, 82, 83, 84, 85, 86, 87, 88, 89, 90, 91, 92, 93, 94, 95, 96, 97, 98, 99, 100, 101, 102, 103, 104, 105, 106, 107, 108, 109, 110, 111, 112, 113, 114, 115, 116, 117, 118, 119, 120, 121, 122, 123, 124, 125, 126, 127, 128, 129, 130, 131, 132, 133, 134, 135, 136, 137, 138, 139, 140, 141, 142, 143, 144, 145, 146, 147, 148, 149, 150, 151, 152, 153, 154, 155, 156, 157, 158, 159, 160, 161, 162, 163, 164, 165, 166, 167, 168, 169, 170, 171, 172, 173, 174, 175, 176, 177, 178, 179, 180, 181, 182, 183, 184, 185, 186, 187, 188, 189, 190, 191, 192, 193, 194, 195, 196, 197, 198, 199, 200, 201, 202, 203, 204, 205, 206, 207, 208, 209, 210, 211, 212, 213, 214],
      "LargestImagePixelValue": [2718, 2659, 2610, 2599, 2576, 2645, 2604, 2661, 2637, 2645, 2654, 2646, 2656, 2655, 2648, 2632, 2647, 2627, 2642, 2628, 2626, 2621, 2623, 2617, 2606, 2606, 2628, 2625, 2607, 2622, 2621, 2602, 2601, 2604, 2606, 2620, 2635, 2576, 2616, 2591, 2595, 2604, 2599, 2598, 2589, 2587, 2571, 2586, 2613, 2586, 2580, 2563, 2588, 2569, 2563, 2561, 2578, 2563, 2582, 2592, 2576, 2602, 2578, 2566, 2580, 2584, 2584, 2569, 2596, 2613, 2570, 2591, 2588, 2579, 2575, 2555, 2579, 2571, 2574, 2574, 2551, 2589, 2576, 2591, 2590, 2595, 2565, 2580, 2565, 2569, 2585, 2556, 2565, 2570, 2566, 2570, 2578, 2575, 2582, 2571, 2587, 2564, 2573, 2572, 2606, 2601, 2586, 2571, 2587, 2592, 2585, 2576, 2586, 2590, 2587, 2580, 2584, 2589, 2607, 2601, 2608, 2595, 2567, 2593, 2602, 2575, 2574, 2558, 2529, 2554, 2572, 2600, 2517, 2580, 2593, 2567, 2566, 2527, 2576, 2559, 2556, 2560, 2567, 2559, 2566, 2557, 2586, 2549, 2559, 2581, 2598, 2567, 2529, 2539, 2597, 2521, 2538, 2544, 2543, 2568, 2527, 2593, 2524, 2573, 2543, 2591, 2508, 2545, 2506, 2568, 2524, 2542, 2515, 2520, 2535, 2544, 2533, 2538, 2589, 2518, 2562, 2505, 2549, 2532, 2563, 2507, 2599, 2510, 2570, 2513, 2529, 2508, 2557, 2572, 2533, 2590, 2557, 2533, 2602, 2522, 2586, 2526, 2551, 2520, 2532, 2650, 2525, 2611, 2517, 2581, 2512, 2640, 2612, 2545],
      "WindowCenter": [707.0, 706.0, 705.0, 705.0, 705.0, 705.0, 705.0, 706.0, 706.0, 707.0, 708.0, 708.0, 708.0, 707.0, 707.0, 706.0, 706.0, 706.0, 706.0, 706.0, 705.0, 705.0, 705.0, 705.0, 705.0, 705.0, 705.0, 704.0, 704.0, 704.0, 704.0, 704.0, 705.0, 705.0, 705.0, 705.0, 705.0, 705.0, 706.0, 706.0, 706.0, 706.0, 704.0, 704.0, 703.0, 704.0, 704.0, 704.0, 704.0, 704.0, 704.0, 703.0, 703.0, 703.0, 703.0, 703.0, 704.0, 704.0, 705.0, 705.0, 705.0, 705.0, 704.0, 704.0, 704.0, 704.0, 704.0, 705.0, 705.0, 706.0, 705.0, 705.0, 704.0, 703.0, 704.0, 704.0, 705.0, 705.0, 705.0, 705.0, 704.0, 703.0, 703.0, 704.0, 704.0, 704.0, 704.0, 704.0, 705.0, 705.0, 705.0, 705.0, 704.0, 704.0, 704.0, 705.0, 705.0, 705.0, 704.0, 704.0, 704.0, 704.0, 704.0, 704.0, 704.0, 704.0, 705.0, 705.0, 704.0, 704.0, 704.0, 704.0, 703.0, 704.0, 704.0, 704.0, 704.0, 704.0, 704.0, 704.0, 704.0, 703.0, 704.0, 704.0, 704.0, 704.0, 703.0, 702.0, 703.0, 703.0, 703.0, 703.0, 704.0, 705.0, 705.0, 703.0, 703.0, 702.0, 703.0, 703.0, 703.0, 703.0, 703.0, 704.0, 705.0, 706.0, 706.0, 704.0, 704.0, 704.0, 705.0, 704.0, 706.0, 704.0, 706.0, 705.0, 704.0, 704.0, 703.0, 703.0, 703.0, 703.0, 703.0, 704.0, 704.0, 704.0, 704.0, 704.0, 704.0, 704.0, 705.0, 705.0, 705.0, 703.0, 703.0, 703.0, 704.0, 703.0, 704.0, 704.0, 704.0, 703.0, 703.0, 703.0, 703.0, 703.0, 704.0, 704.0, 704.0, 704.0, 704.0, 704.0, 704.0, 704.0, 704.0, 704.0, 703.0, 703.0, 703.0, 703.0, 704.0, 703.0, 704.0, 704.0, 704.0, 704.0, 703.0, 703.0, 702.0, 703.0, 702.0, 703.0, 704.0, 703.0],
      "WindowWidth": [1534.0, 1530.0, 1530.0, 1529.0, 1529.0, 1530.0, 1529.0, 1531.0, 1532.0, 1534.0, 1536.0, 1536.0, 1536.0, 1534.0, 1533.0, 1532.0, 1532.0, 1532.0, 1532.0, 1531.0, 1530.0, 1529.0, 1529.0, 1530.0, 1529.0, 1528.0, 1527.0, 1526.0, 1526.0, 1526.0, 1526.0, 1527.0, 1527.0, 1528.0, 1529.0, 1529.0, 1529.0, 1528.0, 1530.0, 1530.0, 1531.0, 1530.0, 1527.0, 1525.0, 1523.0, 1526.0, 1525.0, 1525.0, 1525.0, 1524.0, 1524.0, 1523.0, 1523.0, 1522.0, 1522.0, 1523.0, 1525.0, 1526.0, 1529.0, 1530.0, 1529.0, 1529.0, 1526.0, 1526.0, 1526.0, 1527.0, 1526.0, 1529.0, 1529.0, 1530.0, 1528.0, 1527.0, 1526.0, 1524.0, 1524.0, 1525.0, 1528.0, 1528.0, 1527.0, 1527.0, 1524.0, 1523.0, 1523.0, 1524.0, 1525.0, 1526.0, 1527.0, 1527.0, 1527.0, 1527.0, 1528.0, 1527.0, 1526.0, 1527.0, 1527.0, 1528.0, 1529.0, 1528.0, 1526.0, 1525.0, 1525.0, 1525.0, 1526.0, 1525.0, 1525.0, 1527.0, 1528.0, 1528.0, 1526.0, 1525.0, 1524.0, 1524.0, 1524.0, 1525.0, 1525.0, 1525.0, 1526.0, 1526.0, 1525.0, 1525.0, 1526.0, 1524.0, 1526.0, 1526.0, 1526.0, 1524.0, 1521.0, 1521.0, 1522.0, 1524.0, 1524.0, 1524.0, 1525.0, 1529.0, 1529.0, 1524.0, 1522.0, 1521.0, 1522.0, 1522.0, 1523.0, 1522.0, 1523.0, 1524.0, 1527.0, 1529.0, 1530.0, 1526.0, 1525.0, 1525.0, 1527.0, 1526.0, 1530.0, 1526.0, 1530.0, 1527.0, 1526.0, 1525.0, 1522.0, 1523.0, 1522.0, 1523.0, 1522.0, 1524.0, 1525.0, 1525.0, 1524.0, 1525.0, 1524.0, 1526.0, 1526.0, 1527.0, 1527.0, 1524.0, 1523.0, 1524.0, 1525.0, 1524.0, 1526.0, 1524.0, 1525.0, 1523.0, 1523.0, 1522.0, 1524.0, 1523.0, 1526.0, 1525.0, 1526.0, 1526.0, 1526.0, 1527.0, 1526.0, 1525.0, 1525.0, 1525.0, 1522.0, 1522.0, 1523.0, 1524.0, 1526.0, 1523.0, 1526.0, 1526.0, 1526.0, 1526.0, 1524.0, 1524.0, 1520.0, 1522.0, 1521.0, 1524.0, 1527.0, 1524.0]
    },
    "slices": {}
  }
}