{
  "AcquisitionMatrixPE": 72,
  "AcquisitionNumber": 1,
  "AcquisitionTime": "17:31:52.295000",
  "BandwidthPerPixelPhaseEncode": 17.943,
  "BaseResolution": 96,
  "BodyPartExamined": "BRAIN",
  "CoilCombinationMethod": "Sum of Squares",
  "ConsistencyInfo": "N4_VE11C_LATEST_20160120",
  "ConversionSoftware": "dcm2niix",
  "ConversionSoftwareVersion": "v1.0.20211006",
  "DerivedVendorReportedEchoSpacing": 0.000552897,
  "DeviceSerialNumber": "166011",
  "EchoTime": 0.03,
  "EchoTrainLength": 58,
  "EffectiveEchoSpacing": 0.000580542,
  "FlipAngle": 62,
  "ImageOrientationPatientDICOM": [0.99622, -0.0268731, -0.0826034, 0.0203461, 0.996678, -0.0788667],
  "ImageType": [
    "ORIGINAL",
    "PRIMARY",
    "M",
    "ND",
    "MOSAIC"
],
  "ImagingFrequency": 123.259,
  "InPlanePhaseEncodingDirectionDICOM": "COL",
  "InstitutionAddress": "West 130th Street 610,NY,NYC,US,10025",
  "InstitutionName": "MBBI",
  "MRAcquisitionType": "2D",
  "MagneticFieldStrength": 3,
  "Manufacturer": "Siemens",
  "ManufacturersModelName": "Prisma",
  "Modality": "MR",
  "MultibandAccelerationFactor": 3,
  "PartialFourier": 0.75,
  "PatientPosition": "HFS",
  "PercentPhaseFOV": 100,
  "PercentSampling": 75,
  "PhaseEncodingDirection": "j-",
  "PhaseEncodingSteps": 58,
  "PhaseOversampling": 0.05,
  "PhaseResolution": 0.75,
  "PixelBandwidth": 2265,
  "ProcedureStepDescription": "White^Word_recognition",
  "ProtocolName": "func_vwfate_run4",
  "PulseSequenceDetails": "%SiemensSeq%\\ep2d_bold",
  "ReceiveCoilActiveElements": "HC1-7",
  "ReceiveCoilName": "HeadNeck_64",
  "ReconMatrixPE": 96,
  "RefLinesPE": 40,
  "RepetitionTime": 1.5,
  "SAR": 0.0480854,
  "ScanOptions": "PFP\\FS",
  "ScanningSequence": "EP",
  "SequenceName": "*epfid2d1_72",
  "SequenceVariant": "SK\\OSP",
  "SeriesDescription": "func_vwfate_run4",
  "SeriesNumber": 16,
  "ShimSetting": [-1159, -1358, 612, 752, -54, -206, 89, 3],
  "SliceThickness": 2,
  "SliceTiming": [1.0775, 0, 0.74, 0.0675, 0.8075, 0.135, 0.875, 0.2025, 0.9425, 0.27, 1.01, 0.405, 1.145, 0.4725, 1.2125, 0.54, 1.28, 0.605, 1.345, 0.6725, 1.4125, 0.3375, 1.0775, 0, 0.74, 0.0675, 0.8075, 0.135, 0.875, 0.2025, 0.9425, 0.27, 1.01, 0.405, 1.145, 0.4725, 1.2125, 0.54, 1.28, 0.605, 1.345, 0.6725, 1.4125, 0.3375, 1.0775, 0, 0.74, 0.0675, 0.8075, 0.135, 0.875, 0.2025, 0.9425, 0.27, 1.01, 0.405, 1.145, 0.4725, 1.2125, 0.54, 1.28, 0.605, 1.345, 0.6725, 1.4125, 0.3375],
  "SoftwareVersions": "syngo MR E11",
  "SpacingBetweenSlices": 2,
  "StationName": "AWP166011",
  "TaskName": "vwfate",
  "TotalReadoutTime": 0.0551515,
  "TxRefAmp": 233.011,
  "dcmmeta_affine": [
    [-1.9924402236938477, 0.040692105889320374, -0.16889673471450806, 98.17353057861328],
    [0.05374618247151375, 1.9933550357818604, -0.15377585589885712, -66.67716979980469],
    [-0.16520683467388153, 0.15773338079452515, 1.9869139194488525, -91.92208099365234],
    [0.0, 0.0, 0.0, 1.0]
],
  "dcmmeta_reorient_transform": [
    [0.0, -1.0, 0.0, 95.0],
    [1.0, 0.0, 0.0, 0.0],
    [0.0, 0.0, 1.0, 0.0],
    [0.0, 0.0, 0.0, 1.0]
],
  "dcmmeta_shape": [96, 96, 66, 164],
  "dcmmeta_slice_dim": 2,
  "dcmmeta_version": 0.6,
  "global": {
    "const": {
      "AcquisitionMatrix": [96, 0, 0, 72],
      "AngioFlag": "N",
      "BitsAllocated": 16,
      "BitsStored": 12,
      "BodyPartExamined": "BRAIN",
      "Columns": 864,
      "EchoNumbers": 1,
      "EchoTime": 30.0,
      "EchoTrainLength": 58,
      "FlipAngle": 62.0,
      "HighBit": 11,
      "ImageOrientationPatient": [0.99622011226394, -0.0268730906549, -0.0826034195386, 0.02034605288947, 0.99667752220958, -0.0788666903958],
      "ImagePositionPatient": [-882.76209695606, -867.50136280183, 47.071637385684],
      "ImageType": [
        "ORIGINAL",
        "PRIMARY",
        "M",
        "ND",
        "MOSAIC"
],
      "ImagedNucleus": "1H",
      "ImagingFrequency": 123.259329,
      "InPlanePhaseEncodingDirection": "COL",
      "MRAcquisitionType": "2D",
      "MagneticFieldStrength": 3.0,
      "Manufacturer": "SIEMENS",
      "ManufacturerModelName": "Prisma",
      "Modality": "MR",
      "NumberOfAverages": 1.0,
      "NumberOfPhaseEncodingSteps": 58,
      "PercentPhaseFieldOfView": 100.0,
      "PercentSampling": 75.0,
      "PerformedProcedureStepStartTime": "163130.571000",
      "PhotometricInterpretation": "MONOCHROME2",
      "PixelBandwidth": 2265.0,
      "PixelRepresentation": 0,
      "PixelSpacing": [2.0, 2.0],
      "ProtocolName": "func_vwfate_run4",
      "RepetitionTime": 1500.0,
      "Rows": 864,
      "SAR": 0.04808541053839,
      "SamplesPerPixel": 1,
      "ScanOptions": [
        "PFP",
        "FS"
],
      "ScanningSequence": "EP",
      "SequenceName": "*epfid2d1_72",
      "SequenceVariant": [
        "SK",
        "OSP"
],
      "SeriesDescription": "func_vwfate_run4",
      "SeriesNumber": 16,
      "SeriesTime": "173159.879000",
      "SliceLocation": -94.484552422175,
      "SliceThickness": 2.0,
      "SmallestImagePixelValue": 0,
      "SoftwareVersions": "syngo MR E11",
      "SpacingBetweenSlices": 2.0000000373477,
      "SpecificCharacterSet": "ISO_IR 100",
      "StudyID": "1",
      "StudyTime": "163130.476000",
      "TransmitCoilName": "Body",
      "VariableFlipAngleFlag": "N",
      "WindowCenterWidthExplanation": "Algo1",
      "dBdt": 0.0},
    "slices": {}
  },
  "time": {
    "samples": {
      "AcquisitionNumber": [1, 2, 3, 4, 5, 6, 7, 8, 9, 10, 11, 12, 13, 14, 15, 16, 17, 18, 19, 20, 21, 22, 23, 24, 25, 26, 27, 28, 29, 30, 31, 32, 33, 34, 35, 36, 37, 38, 39, 40, 41, 42, 43, 44, 45, 46, 47, 48, 49, 50, 51, 52, 53, 54, 55, 56, 57, 58, 59, 60, 61, 62, 63, 64, 65, 66, 67, 68, 69, 70, 71, 72, 73, 74, 75, 76, 77, 78, 79, 80, 81, 82, 83, 84, 85, 86, 87, 88, 89, 90, 91, 92, 93, 94, 95, 96, 97, 98, 99, 100, 101, 102, 103, 104, 105, 106, 107, 108, 109, 110, 111, 112, 113, 114, 115, 116, 117, 118, 119, 120, 121, 122, 123, 124, 125, 126, 127, 128, 129, 130, 131, 132, 133, 134, 135, 136, 137, 138, 139, 140, 141, 142, 143, 144, 145, 146, 147, 148, 149, 150, 151, 152, 153, 154, 155, 156, 157, 158, 159, 160, 161, 162, 163, 164],
      "AcquisitionTime": ["173152.295000", "173153.795000", "173155.295000", "173156.795000", "173158.295000", "173159.795000", "173201.295000", "173202.795000", "173204.295000", "173205.795000", "173207.295000", "173208.795000", "173210.295000", "173211.795000", "173213.295000", "173214.795000", "173216.295000", "173217.795000", "173219.295000", "173220.795000", "173222.295000", "173223.795000", "173225.295000", "173226.795000", "173228.295000", "173229.795000", "173231.295000", "173232.795000", "173234.295000", "173235.795000", "173237.295000", "173238.795000", "173240.295000", "173241.795000", "173243.295000", "173244.795000", "173246.295000", "173247.795000", "173249.295000", "173250.795000", "173252.295000", "173253.795000", "173255.295000", "173256.795000", "173258.295000", "173259.795000", "173301.295000", "173302.795000", "173304.295000", "173305.795000", "173307.295000", "173308.795000", "173310.295000", "173311.795000", "173313.295000", "173314.795000", "173316.295000", "173317.795000", "173319.295000", "173320.795000", "173322.295000", "173323.795000", "173325.295000", "173326.795000", "173328.295000", "173329.795000", "173331.295000", "173332.795000", "173334.295000", "173335.795000", "173337.295000", "173338.795000", "173340.295000", "173341.795000", "173343.295000", "173344.795000", "173346.295000", "173347.795000", "173349.295000", "173350.795000", "173352.295000", "173353.795000", "173355.295000", "173356.795000", "173358.295000", "173359.795000", "173401.295000", "173402.795000", "173404.295000", "173405.795000", "173407.295000", "173408.795000", "173410.295000", "173411.795000", "173413.295000", "173414.795000", "173416.295000", "173417.795000", "173419.295000", "173420.795000", "173422.295000", "173423.795000", "173425.295000", "173426.795000", "173428.295000", "173429.795000", "173431.295000", "173432.795000", "173434.295000", "173435.795000", "173437.295000", "173438.795000", "173440.295000", "173441.795000", "173443.295000", "173444.795000", "173446.295000", "173447.795000", "173449.295000", "173450.795000", "173452.295000", "173453.795000", "173455.295000", "173456.795000", "173458.295000", "173459.795000", "173501.295000", "173502.795000", "173504.295000", "173505.795000", "173507.295000", "173508.795000", "173510.295000", "173511.795000", "173513.295000", "173514.795000", "173516.295000", "173517.795000", "173519.295000", "173520.795000", "173522.295000", "173523.795000", "173525.295000", "173526.795000", "173528.295000", "173529.795000", "173531.295000", "173532.795000", "173534.295000", "173535.795000", "173537.295000", "173538.795000", "173540.295000", "173541.795000", "173543.295000", "173544.795000", "173546.295000", "173547.795000", "173549.295000", "173550.795000", "173552.295000", "173553.795000", "173555.295000", "173556.795000"],
      "ContentTime": ["173159.883000", "173159.887000", "173159.890000", "173159.902000", "173159.905000", "173239.878000", "173239.881000", "173239.884000", "173239.887000", "173239.890000", "173239.893000", "173239.896000", "173239.899000", "173239.906000", "173239.909000", "173239.912000", "173239.915000", "173239.918000", "173239.921000", "173239.924000", "173239.927000", "173239.930000", "173239.933000", "173239.936000", "173239.939000", "173239.942000", "173239.945000", "173239.948000", "173239.951000", "173239.954000", "173239.957000", "173239.960000", "173319.877000", "173319.880000", "173319.883000", "173319.886000", "173319.889000", "173319.892000", "173319.895000", "173319.898000", "173319.901000", "173319.904000", "173319.907000", "173319.915000", "173319.918000", "173319.921000", "173319.924000", "173319.927000", "173319.930000", "173319.933000", "173319.936000", "173319.939000", "173319.942000", "173319.945000", "173319.948000", "173319.950000", "173319.953000", "173319.956000", "173359.877000", "173359.880000", "173359.883000", "173359.886000", "173359.891000", "173359.894000", "173359.897000", "173359.900000", "173359.903000", "173359.906000", "173359.909000", "173359.912000", "173359.915000", "173359.918000", "173359.921000", "173359.924000", "173359.927000", "173359.930000", "173359.933000", "173359.936000", "173359.939000", "173359.942000", "173359.945000", "173359.948000", "173359.951000", "173359.954000", "173359.957000", "173439.878000", "173439.881000", "173439.884000", "173439.887000", "173439.890000", "173439.893000", "173439.896000", "173439.899000", "173439.902000", "173439.905000", "173439.908000", "173439.911000", "173439.914000", "173439.917000", "173439.920000", "173439.923000", "173439.926000", "173439.929000", "173439.932000", "173439.935000", "173439.938000", "173439.941000", "173439.943000", "173439.947000", "173439.949000", "173439.952000", "173439.955000", "173519.878000", "173519.881000", "173519.884000", "173519.887000", "173519.890000", "173519.893000", "173519.896000", "173519.899000", "173519.902000", "173519.905000", "173519.908000", "173519.911000", "173519.914000", "173519.917000", "173519.920000", "173519.923000", "173519.926000", "173519.934000", "173519.937000", "173519.940000", "173519.943000", "173519.946000", "173519.949000", "173519.952000", "173519.955000", "173519.958000", "173557.732000", "173557.736000", "173557.739000", "173557.742000", "173557.745000", "173557.748000", "173557.752000", "173557.755000", "173557.758000", "173557.761000", "173557.764000", "173557.767000", "173557.770000", "173557.774000", "173557.777000", "173557.780000", "173557.783000", "173557.786000", "173557.789000", "173557.792000", "173557.795000", "173557.798000", "173557.811000", "173557.814000", "173557.818000", "173557.821000"],
      "InstanceCreationTime": ["173159.883000", "173159.887000", "173159.890000", "173159.902000", "173159.905000", "173239.878000", "173239.881000", "173239.884000", "173239.887000", "173239.890000", "173239.893000", "173239.896000", "173239.899000", "173239.906000", "173239.909000", "173239.912000", "173239.915000", "173239.918000", "173239.921000", "173239.924000", "173239.927000", "173239.930000", "173239.933000", "173239.936000", "173239.939000", "173239.942000", "173239.945000", "173239.948000", "173239.951000", "173239.954000", "173239.957000", "173239.960000", "173319.877000", "173319.880000", "173319.883000", "173319.886000", "173319.889000", "173319.892000", "173319.895000", "173319.898000", "173319.901000", "173319.904000", "173319.907000", "173319.915000", "173319.918000", "173319.921000", "173319.924000", "173319.927000", "173319.930000", "173319.933000", "173319.936000", "173319.939000", "173319.942000", "173319.945000", "173319.948000", "173319.950000", "173319.953000", "173319.956000", "173359.877000", "173359.880000", "173359.883000", "173359.886000", "173359.891000", "173359.894000", "173359.897000", "173359.900000", "173359.903000", "173359.906000", "173359.909000", "173359.912000", "173359.915000", "173359.918000", "173359.921000", "173359.924000", "173359.927000", "173359.930000", "173359.933000", "173359.936000", "173359.939000", "173359.942000", "173359.945000", "173359.948000", "173359.951000", "173359.954000", "173359.957000", "173439.878000", "173439.881000", "173439.884000", "173439.887000", "173439.890000", "173439.893000", "173439.896000", "173439.899000", "173439.902000", "173439.905000", "173439.908000", "173439.911000", "173439.914000", "173439.917000", "173439.920000", "173439.923000", "173439.926000", "173439.929000", "173439.932000", "173439.935000", "173439.938000", "173439.941000", "173439.943000", "173439.947000", "173439.949000", "173439.952000", "173439.955000", "173519.878000", "173519.881000", "173519.884000", "173519.887000", "173519.890000", "173519.893000", "173519.896000", "173519.899000", "173519.902000", "173519.905000", "173519.908000", "173519.911000", "173519.914000", "173519.917000", "173519.920000", "173519.923000", "173519.926000", "173519.934000", "173519.937000", "173519.940000", "173519.943000", "173519.946000", "173519.949000", "173519.952000", "173519.955000", "173519.958000", "173557.732000", "173557.736000", "173557.739000", "173557.742000", "173557.745000", "173557.748000", "173557.752000", "173557.755000", "173557.758000", "173557.761000", "173557.764000", "173557.767000", "173557.770000", "173557.774000", "173557.777000", "173557.780000", "173557.783000", "173557.786000", "173557.789000", "173557.792000", "173557.795000", "173557.798000", "173557.811000", "173557.814000", "173557.818000", "173557.821000"],
      "InstanceNumber": [1, 2, 3, 4, 5, 6, 7, 8, 9, 10, 11, 12, 13, 14, 15, 16, 17, 18, 19, 20, 21, 22, 23, 24, 25, 26, 27, 28, 29, 30, 31, 32, 33, 34, 35, 36, 37, 38, 39, 40, 41, 42, 43, 44, 45, 46, 47, 48, 49, 50, 51, 52, 53, 54, 55, 56, 57, 58, 59, 60, 61, 62, 63, 64, 65, 66, 67, 68, 69, 70, 71, 72, 73, 74, 75, 76, 77, 78, 79, 80, 81, 82, 83, 84, 85, 86, 87, 88, 89, 90, 91, 92, 93, 94, 95, 96, 97, 98, 99, 100, 101, 102, 103, 104, 105, 106, 107, 108, 109, 110, 111, 112, 113, 114, 115, 116, 117, 118, 119, 120, 121, 122, 123, 124, 125, 126, 127, 128, 129, 130, 131, 132, 133, 134, 135, 136, 137, 138, 139, 140, 141, 142, 143, 144, 145, 146, 147, 148, 149, 150, 151, 152, 153, 154, 155, 156, 157, 158, 159, 160, 161, 162, 163, 164],
      "LargestImagePixelValue": [2599, 2555, 2564, 2544, 2521, 2573, 2523, 2498, 2546, 2519, 2538, 2535, 2548, 2539, 2533, 2538, 2507, 2522, 2505, 2564, 2525, 2559, 2545, 2564, 2559, 2545, 2550, 2553, 2538, 2643, 2574, 2538, 2516, 2495, 2482, 2495, 2547, 2526, 2600, 2536, 2599, 2507, 2565, 2561, 2593, 2537, 2551, 2540, 2546, 2577, 2518, 2600, 2540, 2525, 2512, 2533, 2511, 2562, 2552, 2572, 2577, 2532, 2583, 2508, 2523, 2540, 2521, 2588, 2546, 2629, 2529, 2630, 2560, 2604, 2579, 2645, 2571, 2577, 2598, 2543, 2618, 2581, 2602, 2533, 2607, 2579, 2639, 2619, 2621, 2624, 2631, 2594, 2610, 2596, 2651, 2635, 2664, 2637, 2673, 2629, 2661, 2671, 2657, 2626, 2679, 2641, 2666, 2707, 2639, 2668, 2671, 2677, 2651, 2690, 2630, 2649, 2603, 2611, 2583, 2607, 2594, 2635, 2568, 2620, 2553, 2620, 2604, 2597, 2625, 2557, 2626, 2580, 2612, 2599, 2625, 2619, 2639, 2606, 2639, 2606, 2604, 2602, 2606, 2593, 2637, 2615, 2575, 2528, 2678, 2572, 2607, 2576, 2551, 2645, 2594, 2597, 2580, 2605, 2608, 2637, 2663, 2656, 2661, 2670],
      "WindowCenter": [702.0, 700.0, 699.0, 699.0, 698.0, 699.0, 699.0, 699.0, 699.0, 698.0, 698.0, 698.0, 699.0, 699.0, 700.0, 700.0, 699.0, 699.0, 699.0, 700.0, 699.0, 699.0, 699.0, 701.0, 701.0, 700.0, 700.0, 700.0, 701.0, 702.0, 700.0, 699.0, 697.0, 697.0, 698.0, 699.0, 700.0, 699.0, 700.0, 700.0, 700.0, 700.0, 701.0, 703.0, 702.0, 700.0, 700.0, 699.0, 700.0, 699.0, 698.0, 699.0, 698.0, 697.0, 697.0, 698.0, 698.0, 699.0, 699.0, 699.0, 699.0, 698.0, 698.0, 697.0, 698.0, 699.0, 699.0, 700.0, 698.0, 700.0, 698.0, 697.0, 697.0, 697.0, 698.0, 699.0, 697.0, 701.0, 701.0, 700.0, 699.0, 698.0, 698.0, 697.0, 697.0, 696.0, 697.0, 697.0, 697.0, 697.0, 697.0, 698.0, 699.0, 701.0, 701.0, 700.0, 699.0, 698.0, 701.0, 700.0, 702.0, 700.0, 699.0, 699.0, 700.0, 701.0, 699.0, 701.0, 699.0, 699.0, 699.0, 699.0, 700.0, 700.0, 700.0, 700.0, 700.0, 699.0, 700.0, 700.0, 700.0, 699.0, 699.0, 699.0, 699.0, 700.0, 701.0, 702.0, 702.0, 702.0, 702.0, 701.0, 700.0, 700.0, 700.0, 699.0, 698.0, 698.0, 698.0, 699.0, 699.0, 698.0, 698.0, 699.0, 699.0, 700.0, 698.0, 701.0, 701.0, 699.0, 698.0, 697.0, 697.0, 698.0, 698.0, 698.0, 698.0, 699.0, 699.0, 700.0, 700.0, 700.0, 699.0, 699.0],
      "WindowWidth": [1519.0, 1515.0, 1513.0, 1511.0, 1509.0, 1511.0, 1511.0, 1513.0, 1512.0, 1510.0, 1510.0, 1509.0, 1512.0, 1512.0, 1514.0, 1513.0, 1511.0, 1512.0, 1512.0, 1513.0, 1511.0, 1510.0, 1513.0, 1517.0, 1517.0, 1513.0, 1513.0, 1514.0, 1516.0, 1521.0, 1515.0, 1511.0, 1507.0, 1507.0, 1509.0, 1512.0, 1513.0, 1513.0, 1515.0, 1514.0, 1515.0, 1515.0, 1519.0, 1521.0, 1519.0, 1514.0, 1514.0, 1512.0, 1513.0, 1511.0, 1510.0, 1511.0, 1509.0, 1507.0, 1506.0, 1508.0, 1508.0, 1511.0, 1513.0, 1513.0, 1511.0, 1509.0, 1510.0, 1508.0, 1509.0, 1511.0, 1511.0, 1514.0, 1509.0, 1514.0, 1509.0, 1507.0, 1507.0, 1507.0, 1509.0, 1512.0, 1506.0, 1519.0, 1518.0, 1513.0, 1512.0, 1509.0, 1508.0, 1507.0, 1506.0, 1505.0, 1506.0, 1506.0, 1506.0, 1507.0, 1507.0, 1508.0, 1512.0, 1516.0, 1516.0, 1515.0, 1512.0, 1508.0, 1516.0, 1515.0, 1519.0, 1514.0, 1511.0, 1511.0, 1516.0, 1516.0, 1512.0, 1518.0, 1513.0, 1513.0, 1512.0, 1513.0, 1515.0, 1516.0, 1514.0, 1514.0, 1514.0, 1512.0, 1514.0, 1515.0, 1514.0, 1513.0, 1512.0, 1513.0, 1513.0, 1515.0, 1517.0, 1519.0, 1519.0, 1519.0, 1519.0, 1517.0, 1516.0, 1515.0, 1515.0, 1512.0, 1510.0, 1510.0, 1510.0, 1511.0, 1511.0, 1511.0, 1510.0, 1511.0, 1512.0, 1514.0, 1510.0, 1517.0, 1517.0, 1513.0, 1510.0, 1507.0, 1507.0, 1508.0, 1509.0, 1509.0, 1509.0, 1512.0, 1512.0, 1515.0, 1516.0, 1516.0, 1513.0, 1512.0]
    },
    "slices": {}
  }
}