{
  "AcquisitionMatrixPE": 72,
  "AcquisitionNumber": 1,
  "AcquisitionTime": "10:48:2.472500",
  "BandwidthPerPixelPhaseEncode": 17.943,
  "BaseResolution": 96,
  "BodyPartExamined": "BRAIN",
  "CoilCombinationMethod": "Sum of Squares",
  "ConsistencyInfo": "N4_VE11C_LATEST_20160120",
  "ConversionSoftware": "dcm2niix",
  "ConversionSoftwareVersion": "v1.0.20211006",
  "DerivedVendorReportedEchoSpacing": 0.000552897,
  "DeviceSerialNumber": "166011",
  "DwellTime": 2.3e-06,
  "EchoTime": 0.03,
  "EchoTrainLength": 58,
  "EffectiveEchoSpacing": 0.000580542,
  "FlipAngle": 62,
  "ImageOrientationPatientDICOM": [0.996802, -0.0720543, 0.0345567, 0.0763497, 0.986392, -0.145611],
  "ImageOrientationText": "Tra>Cor(-8.5)>Sag(1.4)",
  "ImageType": [
    "ORIGINAL",
    "PRIMARY",
    "M",
    "ND",
    "MOSAIC"
],
  "ImagingFrequency": 123.26,
  "InPlanePhaseEncodingDirectionDICOM": "COL",
  "InstitutionAddress": "West 130th Street 610,NY,NYC,US,10025",
  "InstitutionName": "MBBI",
  "InstitutionalDepartmentName": "Department",
  "MRAcquisitionType": "2D",
  "MagneticFieldStrength": 3,
  "Manufacturer": "Siemens",
  "ManufacturersModelName": "Prisma",
  "Modality": "MR",
  "MultibandAccelerationFactor": 3,
  "PartialFourier": 0.75,
  "PatientPosition": "HFS",
  "PercentPhaseFOV": 100,
  "PercentSampling": 75,
  "PhaseEncodingDirection": "j-",
  "PhaseEncodingSteps": 58,
  "PhaseOversampling": 0.05,
  "PhaseResolution": 0.75,
  "PixelBandwidth": 2265,
  "ProcedureStepDescription": "White^Word_recognition",
  "ProtocolName": "func_catLoc_run2",
  "PulseSequenceDetails": "%SiemensSeq%\\ep2d_bold",
  "ReceiveCoilActiveElements": "HC1-6",
  "ReceiveCoilName": "HeadNeck_64",
  "ReconMatrixPE": 96,
  "RefLinesPE": 40,
  "RepetitionTime": 1.5,
  "SAR": 0.0504421,
  "ScanOptions": "PFP\\FS",
  "ScanningSequence": "EP",
  "SequenceName": "*epfid2d1_72",
  "SequenceVariant": "SK\\OSP",
  "SeriesDescription": "func_catLoc_run2",
  "SeriesNumber": 13,
  "ShimSetting": [-1131, -1345, 679, 584, -72, 81, -144, -43],
  "SliceThickness": 2,
  "SliceTiming": [1.0775, 0, 0.74, 0.0675, 0.8075, 0.135, 0.875, 0.2025, 0.9425, 0.27, 1.01, 0.405, 1.145, 0.4725, 1.2125, 0.54, 1.28, 0.6075, 1.3475, 0.6725, 1.4125, 0.3375, 1.0775, 0, 0.74, 0.0675, 0.8075, 0.135, 0.875, 0.2025, 0.9425, 0.27, 1.01, 0.405, 1.145, 0.4725, 1.2125, 0.54, 1.28, 0.6075, 1.3475, 0.6725, 1.4125, 0.3375, 1.0775, 0, 0.74, 0.0675, 0.8075, 0.135, 0.875, 0.2025, 0.9425, 0.27, 1.01, 0.405, 1.145, 0.4725, 1.2125, 0.54, 1.28, 0.6075, 1.3475, 0.6725, 1.4125, 0.3375],
  "SoftwareVersions": "syngo MR E11",
  "SpacingBetweenSlices": 2,
  "StationName": "AWP166011",
  "TaskName": "catLoc",
  "TotalReadoutTime": 0.0551515,
  "TxRefAmp": 207.842,
  "dcmmeta_affine": [
    [-1.9936038255691528, 0.15269942581653595, 0.04718918725848198, 92.0904769897461],
    [0.14410851895809174, 1.972783088684082, -0.2955666184425354, -72.71781158447266],
    [0.06911344081163406, 0.2912212014198303, 1.9774765968322754, -63.95372772216797],
    [0.0, 0.0, 0.0, 1.0]
],
  "dcmmeta_reorient_transform": [
    [0.0, -1.0, 0.0, 95.0],
    [1.0, 0.0, 0.0, 0.0],
    [0.0, 0.0, 1.0, 0.0],
    [0.0, 0.0, 0.0, 1.0]
],
  "dcmmeta_shape": [96, 96, 66, 214],
  "dcmmeta_slice_dim": 2,
  "dcmmeta_version": 0.6,
  "global": {
    "const": {
      "AcquisitionMatrix": [96, 0, 0, 72],
      "AngioFlag": "N",
      "BitsAllocated": 16,
      "BitsStored": 12,
      "BodyPartExamined": "BRAIN",
      "Columns": 864,
      "EchoNumbers": 1,
      "EchoTime": 30.0,
      "EchoTrainLength": 58,
      "FlipAngle": 62.0,
      "HighBit": 11,
      "ImageOrientationPatient": [0.99680189436634, -0.0720542599283, 0.03455672168867, 0.07634971191025, 0.98639154282607, -0.1456105962231],
      "ImagePositionPatient": [-930.77735916086, -816.90761277158, 49.001660726363],
      "ImageType": [
        "ORIGINAL",
        "PRIMARY",
        "M",
        "ND",
        "MOSAIC"
],
      "ImagedNucleus": "1H",
      "ImagingFrequency": 123.259527,
      "InPlanePhaseEncodingDirection": "COL",
      "MRAcquisitionType": "2D",
      "MagneticFieldStrength": 3.0,
      "Manufacturer": "SIEMENS",
      "ManufacturerModelName": "Prisma",
      "Modality": "MR",
      "NumberOfAverages": 1.0,
      "NumberOfPhaseEncodingSteps": 58,
      "PercentPhaseFieldOfView": 100.0,
      "PercentSampling": 75.0,
      "PerformedProcedureStepStartTime": "095945.114000",
      "PhotometricInterpretation": "MONOCHROME2",
      "PixelBandwidth": 2265.0,
      "PixelRepresentation": 0,
      "PixelSpacing": [2.0, 2.0],
      "ProtocolName": "func_catLoc_run2",
      "RepetitionTime": 1500.0,
      "Rows": 864,
      "SAR": 0.05044211992452,
      "SamplesPerPixel": 1,
      "ScanOptions": [
        "PFP",
        "FS"
],
      "ScanningSequence": "EP",
      "SequenceName": "*epfid2d1_72",
      "SequenceVariant": [
        "SK",
        "OSP"
],
      "SeriesDescription": "func_catLoc_run2",
      "SeriesNumber": 13,
      "SeriesTime": "104819.003000",
      "SliceLocation": -50.314182251615,
      "SliceThickness": 2.0,
      "SmallestImagePixelValue": 0,
      "SoftwareVersions": "syngo MR E11",
      "SpacingBetweenSlices": 2.000000000869,
      "SpecificCharacterSet": "ISO_IR 100",
      "StudyID": "1",
      "StudyTime": "095945.028000",
      "TransmitCoilName": "Body",
      "VariableFlipAngleFlag": "N",
      "WindowCenterWidthExplanation": "Algo1",
      "dBdt": 0.0},
    "slices": {}
  },
  "time": {
    "samples": {
      "AcquisitionNumber": [1, 2, 3, 4, 5, 6, 7, 8, 9, 10, 11, 12, 13, 14, 15, 16, 17, 18, 19, 20, 21, 22, 23, 24, 25, 26, 27, 28, 29, 30, 31, 32, 33, 34, 35, 36, 37, 38, 39, 40, 41, 42, 43, 44, 45, 46, 47, 48, 49, 50, 51, 52, 53, 54, 55, 56, 57, 58, 59, 60, 61, 62, 63, 64, 65, 66, 67, 68, 69, 70, 71, 72, 73, 74, 75, 76, 77, 78, 79, 80, 81, 82, 83, 84, 85, 86, 87, 88, 89, 90, 91, 92, 93, 94, 95, 96, 97, 98, 99, 100, 101, 102, 103, 104, 105, 106, 107, 108, 109, 110, 111, 112, 113, 114, 115, 116, 117, 118, 119, 120, 121, 122, 123, 124, 125, 126, 127, 128, 129, 130, 131, 132, 133, 134, 135, 136, 137, 138, 139, 140, 141, 142, 143, 144, 145, 146, 147, 148, 149, 150, 151, 152, 153, 154, 155, 156, 157, 158, 159, 160, 161, 162, 163, 164, 165, 166, 167, 168, 169, 170, 171, 172, 173, 174, 175, 176, 177, 178, 179, 180, 181, 182, 183, 184, 185, 186, 187, 188, 189, 190, 191, 192, 193, 194, 195, 196, 197, 198, 199, 200, 201, 202, 203, 204, 205, 206, 207, 208, 209, 210, 211, 212, 213, 214],
      "AcquisitionTime": ["104802.472500", "104803.972500", "104805.472500", "104806.972500", "104808.472500", "104809.972500", "104811.472500", "104812.972500", "104814.472500", "104815.972500", "104817.472500", "104818.972500", "104820.472500", "104821.972500", "104823.472500", "104824.972500", "104826.472500", "104827.972500", "104829.472500", "104830.972500", "104832.472500", "104833.972500", "104835.472500", "104836.972500", "104838.472500", "104839.972500", "104841.472500", "104842.972500", "104844.472500", "104845.972500", "104847.472500", "104848.972500", "104850.472500", "104851.972500", "104853.472500", "104854.972500", "104856.472500", "104857.972500", "104859.472500", "104900.972500", "104902.472500", "104903.972500", "104905.472500", "104906.972500", "104908.472500", "104909.972500", "104911.472500", "104912.972500", "104914.472500", "104915.972500", "104917.472500", "104918.972500", "104920.472500", "104921.972500", "104923.472500", "104924.972500", "104926.472500", "104927.972500", "104929.472500", "104930.972500", "104932.472500", "104933.972500", "104935.472500", "104936.972500", "104938.472500", "104939.972500", "104941.472500", "104942.972500", "104944.472500", "104945.972500", "104947.472500", "104948.972500", "104950.472500", "104951.972500", "104953.472500", "104954.972500", "104956.472500", "104957.972500", "104959.472500", "105000.972500", "105002.472500", "105003.972500", "105005.472500", "105006.972500", "105008.472500", "105009.972500", "105011.472500", "105012.972500", "105014.472500", "105015.972500", "105017.472500", "105018.972500", "105020.472500", "105021.972500", "105023.472500", "105024.972500", "105026.472500", "105027.972500", "105029.472500", "105030.972500", "105032.472500", "105033.972500", "105035.472500", "105036.972500", "105038.472500", "105039.972500", "105041.472500", "105042.972500", "105044.472500", "105045.972500", "105047.472500", "105048.972500", "105050.472500", "105051.972500", "105053.472500", "105054.972500", "105056.472500", "105057.972500", "105059.472500", "105100.972500", "105102.472500", "105103.972500", "105105.472500", "105106.972500", "105108.472500", "105109.972500", "105111.472500", "105112.972500", "105114.472500", "105115.972500", "105117.472500", "105118.972500", "105120.472500", "105121.972500", "105123.472500", "105124.972500", "105126.472500", "105127.972500", "105129.472500", "105130.972500", "105132.472500", "105133.972500", "105135.472500", "105136.972500", "105138.472500", "105139.972500", "105141.472500", "105142.972500", "105144.472500", "105145.972500", "105147.472500", "105148.972500", "105150.472500", "105151.972500", "105153.472500", "105154.972500", "105156.472500", "105157.972500", "105159.472500", "105200.972500", "105202.472500", "105203.972500", "105205.472500", "105206.972500", "105208.472500", "105209.972500", "105211.472500", "105212.972500", "105214.472500", "105215.972500", "105217.472500", "105218.972500", "105220.472500", "105221.972500", "105223.472500", "105224.972500", "105226.472500", "105227.972500", "105229.472500", "105230.972500", "105232.472500", "105233.972500", "105235.472500", "105236.972500", "105238.472500", "105239.972500", "105241.472500", "105242.972500", "105244.472500", "105245.972500", "105247.472500", "105248.972500", "105250.472500", "105251.972500", "105253.472500", "105254.972500", "105256.472500", "105257.972500", "105259.472500", "105300.972500", "105302.472500", "105303.972500", "105305.472500", "105306.972500", "105308.472500", "105309.972500", "105311.472500", "105312.972500", "105314.472500", "105315.972500", "105317.472500", "105318.972500", "105320.472500", "105321.972500"],
      "ContentTime": ["104819.007000", "104819.011000", "104819.014000", "104819.031000", "104819.034000", "104819.037000", "104819.040000", "104819.048000", "104819.051000", "104819.054000", "104819.057000", "104859.002000", "104859.019000", "104859.022000", "104859.025000", "104859.028000", "104859.032000", "104859.040000", "104859.043000", "104859.046000", "104859.049000", "104859.052000", "104859.055000", "104859.059000", "104859.062000", "104859.065000", "104859.068000", "104859.072000", "104859.075000", "104859.078000", "104859.081000", "104859.085000", "104859.089000", "104859.093000", "104859.096000", "104859.099000", "104859.102000", "104939.002000", "104939.005000", "104939.008000", "104939.011000", "104939.018000", "104939.021000", "104939.024000", "104939.027000", "104939.030000", "104939.033000", "104939.037000", "104939.040000", "104939.065000", "104939.068000", "104939.071000", "104939.074000", "104939.078000", "104939.081000", "104939.084000", "104939.087000", "104939.090000", "104939.093000", "104939.096000", "104939.099000", "104939.102000", "104939.105000", "104939.108000", "105019.002000", "105019.005000", "105019.008000", "105019.011000", "105019.014000", "105019.017000", "105019.020000", "105019.024000", "105019.028000", "105019.031000", "105019.034000", "105019.037000", "105019.040000", "105019.043000", "105019.046000", "105019.049000", "105019.052000", "105019.055000", "105019.058000", "105019.061000", "105019.064000", "105019.067000", "105019.070000", "105019.073000", "105019.080000", "105019.083000", "105019.086000", "105059.003000", "105059.006000", "105059.009000", "105059.012000", "105059.015000", "105059.018000", "105059.021000", "105059.024000", "105059.028000", "105059.031000", "105059.034000", "105059.037000", "105059.040000", "105059.043000", "105059.046000", "105059.049000", "105059.061000", "105059.064000", "105059.067000", "105059.071000", "105059.074000", "105059.077000", "105059.080000", "105059.083000", "105059.087000", "105059.090000", "105139.002000", "105139.005000", "105139.008000", "105139.012000", "105139.015000", "105139.018000", "105139.021000", "105139.024000", "105139.027000", "105139.030000", "105139.033000", "105139.036000", "105139.039000", "105139.042000", "105139.045000", "105139.048000", "105139.052000", "105139.055000", "105139.058000", "105139.061000", "105139.075000", "105139.078000", "105139.082000", "105139.085000", "105139.088000", "105139.091000", "105139.094000", "105219.002000", "105219.005000", "105219.008000", "105219.011000", "105219.015000", "105219.018000", "105219.021000", "105219.029000", "105219.032000", "105219.036000", "105219.039000", "105219.043000", "105219.046000", "105219.049000", "105219.052000", "105219.056000", "105219.059000", "105219.062000", "105219.065000", "105219.068000", "105219.071000", "105219.074000", "105219.077000", "105219.080000", "105219.083000", "105219.086000", "105219.089000", "105259.002000", "105259.005000", "105259.008000", "105259.011000", "105259.015000", "105259.018000", "105259.021000", "105259.024000", "105259.027000", "105259.030000", "105259.033000", "105259.036000", "105259.039000", "105259.042000", "105259.046000", "105259.049000", "105259.052000", "105259.055000", "105259.058000", "105259.061000", "105259.064000", "105259.067000", "105259.070000", "105259.073000", "105259.076000", "105259.079000", "105323.103000", "105323.107000", "105323.112000", "105323.116000", "105323.119000", "105323.123000", "105323.126000", "105323.129000", "105323.132000", "105323.136000", "105323.139000", "105323.142000", "105323.146000", "105323.149000", "105323.152000", "105323.155000", "105323.159000"],
      "InstanceCreationTime": ["104819.007000", "104819.011000", "104819.014000", "104819.031000", "104819.034000", "104819.037000", "104819.040000", "104819.048000", "104819.051000", "104819.054000", "104819.057000", "104859.002000", "104859.019000", "104859.022000", "104859.025000", "104859.028000", "104859.032000", "104859.040000", "104859.043000", "104859.046000", "104859.049000", "104859.052000", "104859.055000", "104859.059000", "104859.062000", "104859.065000", "104859.068000", "104859.072000", "104859.075000", "104859.078000", "104859.081000", "104859.085000", "104859.089000", "104859.093000", "104859.096000", "104859.099000", "104859.102000", "104939.002000", "104939.005000", "104939.008000", "104939.011000", "104939.018000", "104939.021000", "104939.024000", "104939.027000", "104939.030000", "104939.033000", "104939.037000", "104939.040000", "104939.065000", "104939.068000", "104939.071000", "104939.074000", "104939.078000", "104939.081000", "104939.084000", "104939.087000", "104939.090000", "104939.093000", "104939.096000", "104939.099000", "104939.102000", "104939.105000", "104939.108000", "105019.002000", "105019.005000", "105019.008000", "105019.011000", "105019.014000", "105019.017000", "105019.020000", "105019.024000", "105019.028000", "105019.031000", "105019.034000", "105019.037000", "105019.040000", "105019.043000", "105019.046000", "105019.049000", "105019.052000", "105019.055000", "105019.058000", "105019.061000", "105019.064000", "105019.067000", "105019.070000", "105019.073000", "105019.080000", "105019.083000", "105019.086000", "105059.003000", "105059.006000", "105059.009000", "105059.012000", "105059.015000", "105059.018000", "105059.021000", "105059.024000", "105059.028000", "105059.031000", "105059.034000", "105059.037000", "105059.040000", "105059.043000", "105059.046000", "105059.049000", "105059.061000", "105059.064000", "105059.067000", "105059.071000", "105059.074000", "105059.077000", "105059.080000", "105059.083000", "105059.087000", "105059.090000", "105139.002000", "105139.005000", "105139.008000", "105139.012000", "105139.015000", "105139.018000", "105139.021000", "105139.024000", "105139.027000", "105139.030000", "105139.033000", "105139.036000", "105139.039000", "105139.042000", "105139.045000", "105139.048000", "105139.052000", "105139.055000", "105139.058000", "105139.061000", "105139.075000", "105139.078000", "105139.082000", "105139.085000", "105139.088000", "105139.091000", "105139.094000", "105219.002000", "105219.005000", "105219.008000", "105219.011000", "105219.015000", "105219.018000", "105219.021000", "105219.029000", "105219.032000", "105219.036000", "105219.039000", "105219.043000", "105219.046000", "105219.049000", "105219.052000", "105219.056000", "105219.059000", "105219.062000", "105219.065000", "105219.068000", "105219.071000", "105219.074000", "105219.077000", "105219.080000", "105219.083000", "105219.086000", "105219.089000", "105259.002000", "105259.005000", "105259.008000", "105259.011000", "105259.015000", "105259.018000", "105259.021000", "105259.024000", "105259.027000", "105259.030000", "105259.033000", "105259.036000", "105259.039000", "105259.042000", "105259.046000", "105259.049000", "105259.052000", "105259.055000", "105259.058000", "105259.061000", "105259.064000", "105259.067000", "105259.070000", "105259.073000", "105259.076000", "105259.079000", "105323.103000", "105323.107000", "105323.112000", "105323.116000", "105323.119000", "105323.123000", "105323.126000", "105323.129000", "105323.132000", "105323.136000", "105323.139000", "105323.142000", "105323.146000", "105323.149000", "105323.152000", "105323.155000", "105323.159000"],
      "InstanceNumber": [1, 2, 3, 4, 5, 6, 7, 8, 9, 10, 11, 12, 13, 14, 15, 16, 17, 18, 19, 20, 21, 22, 23, 24, 25, 26, 27, 28, 29, 30, 31, 32, 33, 34, 35, 36, 37, 38, 39, 40, 41, 42, 43, 44, 45, 46, 47, 48, 49, 50, 51, 52, 53, 54, 55, 56, 57, 58, 59, 60, 61, 62, 63, 64, 65, 66, 67, 68, 69, 70, 71, 72, 73, 74, 75, 76, 77, 78, 79, 80, 81, 82, 83, 84, 85, 86, 87, 88, 89, 90, 91, 92, 93, 94, 95, 96, 97, 98, 99, 100, 101, 102, 103, 104, 105, 106, 107, 108, 109, 110, 111, 112, 113, 114, 115, 116, 117, 118, 119, 120, 121, 122, 123, 124, 125, 126, 127, 128, 129, 130, 131, 132, 133, 134, 135, 136, 137, 138, 139, 140, 141, 142, 143, 144, 145, 146, 147, 148, 149, 150, 151, 152, 153, 154, 155, 156, 157, 158, 159, 160, 161, 162, 163, 164, 165, 166, 167, 168, 169, 170, 171, 172, 173, 174, 175, 176, 177, 178, 179, 180, 181, 182, 183, 184, 185, 186, 187, 188, 189, 190, 191, 192, 193, 194, 195, 196, 197, 198, 199, 200, 201, 202, 203, 204, 205, 206, 207, 208, 209, 210, 211, 212, 213, 214],
      "LargestImagePixelValue": [2727, 2626, 2640, 2639, 2667, 2611, 2662, 2596, 2645, 2635, 2636, 2577, 2611, 2592, 2588, 2595, 2650, 2605, 2655, 2555, 2588, 2656, 2597, 2572, 2602, 2599, 2579, 2588, 2562, 2581, 2580, 2603, 2574, 2558, 2610, 2592, 2590, 2595, 2589, 2594, 2589, 2608, 2603, 2621, 2574, 2581, 2600, 2613, 2596, 2628, 2593, 2631, 2601, 2656, 2622, 2613, 2605, 2584, 2628, 2626, 2616, 2598, 2612, 2633, 2719, 2655, 2620, 2632, 2611, 2620, 2595, 2639, 2606, 2623, 2636, 2627, 2605, 2672, 2618, 2641, 2627, 2646, 2610, 2651, 2645, 2604, 2635, 2622, 2527, 2528, 2557, 2530, 2560, 2544, 2617, 2603, 2604, 2534, 2558, 2609, 2613, 2597, 2592, 2557, 2531, 2606, 2563, 2598, 2574, 2564, 2558, 2570, 2562, 2551, 2559, 2552, 2559, 2627, 2551, 2607, 2578, 2608, 2606, 2586, 2581, 2581, 2590, 2562, 2574, 2601, 2571, 2572, 2568, 2581, 2599, 2576, 2586, 2552, 2529, 2524, 2559, 2564, 2543, 2541, 2505, 2498, 2542, 2556, 2563, 2532, 2544, 2524, 2560, 2530, 2538, 2550, 2544, 2541, 2544, 2533, 2554, 2544, 2525, 2534, 2543, 2531, 2554, 2526, 2542, 2563, 2569, 2543, 2546, 2561, 2531, 2531, 2525, 2554, 2544, 2535, 2539, 2525, 2573, 2527, 2523, 2526, 2536, 2538, 2499, 2540, 2545, 2558, 2562, 2524, 2539, 2534, 2551, 2537, 2538, 2515, 2536, 2525, 2536, 2526, 2530, 2525, 2525, 2504, 2518, 2520, 2525, 2515, 2538, 2523],
      "WindowCenter": [752.0, 751.0, 751.0, 751.0, 751.0, 751.0, 751.0, 751.0, 751.0, 751.0, 751.0, 751.0, 750.0, 751.0, 751.0, 751.0, 751.0, 751.0, 752.0, 751.0, 751.0, 752.0, 751.0, 751.0, 750.0, 749.0, 748.0, 747.0, 747.0, 747.0, 748.0, 748.0, 749.0, 749.0, 750.0, 750.0, 751.0, 751.0, 751.0, 751.0, 751.0, 751.0, 750.0, 751.0, 751.0, 751.0, 751.0, 751.0, 751.0, 752.0, 752.0, 752.0, 752.0, 753.0, 752.0, 752.0, 752.0, 752.0, 751.0, 751.0, 751.0, 752.0, 752.0, 748.0, 752.0, 751.0, 750.0, 750.0, 749.0, 748.0, 747.0, 747.0, 747.0, 746.0, 745.0, 744.0, 745.0, 746.0, 747.0, 748.0, 748.0, 748.0, 749.0, 749.0, 749.0, 749.0, 748.0, 749.0, 751.0, 751.0, 751.0, 750.0, 749.0, 749.0, 750.0, 751.0, 750.0, 750.0, 750.0, 750.0, 750.0, 750.0, 751.0, 751.0, 751.0, 751.0, 751.0, 750.0, 750.0, 749.0, 748.0, 748.0, 747.0, 748.0, 748.0, 748.0, 748.0, 748.0, 748.0, 749.0, 750.0, 750.0, 751.0, 751.0, 751.0, 751.0, 751.0, 751.0, 751.0, 751.0, 750.0, 750.0, 749.0, 749.0, 749.0, 749.0, 750.0, 748.0, 750.0, 750.0, 751.0, 750.0, 748.0, 747.0, 747.0, 748.0, 748.0, 749.0, 749.0, 749.0, 748.0, 747.0, 747.0, 746.0, 747.0, 747.0, 747.0, 747.0, 748.0, 748.0, 749.0, 749.0, 748.0, 749.0, 750.0, 750.0, 750.0, 748.0, 746.0, 746.0, 746.0, 746.0, 747.0, 748.0, 748.0, 749.0, 749.0, 750.0, 751.0, 751.0, 751.0, 751.0, 751.0, 750.0, 750.0, 751.0, 751.0, 750.0, 749.0, 749.0, 749.0, 748.0, 748.0, 747.0, 747.0, 747.0, 747.0, 747.0, 748.0, 749.0, 751.0, 751.0, 750.0, 749.0, 748.0, 748.0, 748.0, 748.0, 748.0, 748.0, 748.0, 748.0, 748.0, 747.0],
      "WindowWidth": [1655.0, 1654.0, 1652.0, 1654.0, 1654.0, 1652.0, 1653.0, 1652.0, 1653.0, 1652.0, 1653.0, 1652.0, 1652.0, 1653.0, 1652.0, 1652.0, 1654.0, 1654.0, 1656.0, 1652.0, 1651.0, 1655.0, 1654.0, 1651.0, 1649.0, 1646.0, 1644.0, 1641.0, 1641.0, 1642.0, 1643.0, 1644.0, 1646.0, 1647.0, 1650.0, 1652.0, 1653.0, 1653.0, 1652.0, 1654.0, 1652.0, 1653.0, 1652.0, 1653.0, 1652.0, 1653.0, 1653.0, 1654.0, 1654.0, 1657.0, 1656.0, 1657.0, 1657.0, 1659.0, 1658.0, 1657.0, 1657.0, 1655.0, 1653.0, 1653.0, 1654.0, 1655.0, 1654.0, 1646.0, 1657.0, 1652.0, 1651.0, 1648.0, 1647.0, 1644.0, 1640.0, 1642.0, 1640.0, 1637.0, 1634.0, 1633.0, 1634.0, 1638.0, 1641.0, 1643.0, 1644.0, 1645.0, 1647.0, 1647.0, 1647.0, 1646.0, 1645.0, 1647.0, 1653.0, 1652.0, 1652.0, 1648.0, 1646.0, 1647.0, 1650.0, 1652.0, 1650.0, 1649.0, 1649.0, 1651.0, 1650.0, 1650.0, 1652.0, 1652.0, 1652.0, 1653.0, 1651.0, 1650.0, 1649.0, 1647.0, 1644.0, 1644.0, 1642.0, 1644.0, 1645.0, 1645.0, 1644.0, 1645.0, 1645.0, 1647.0, 1648.0, 1649.0, 1651.0, 1652.0, 1653.0, 1652.0, 1652.0, 1652.0, 1652.0, 1652.0, 1650.0, 1648.0, 1647.0, 1647.0, 1647.0, 1648.0, 1649.0, 1645.0, 1649.0, 1649.0, 1651.0, 1648.0, 1644.0, 1641.0, 1640.0, 1642.0, 1643.0, 1647.0, 1647.0, 1645.0, 1643.0, 1640.0, 1639.0, 1638.0, 1639.0, 1640.0, 1641.0, 1641.0, 1642.0, 1643.0, 1646.0, 1647.0, 1643.0, 1647.0, 1649.0, 1649.0, 1648.0, 1641.0, 1637.0, 1636.0, 1637.0, 1639.0, 1640.0, 1642.0, 1644.0, 1647.0, 1647.0, 1650.0, 1651.0, 1651.0, 1651.0, 1651.0, 1651.0, 1649.0, 1649.0, 1652.0, 1653.0, 1649.0, 1647.0, 1647.0, 1645.0, 1643.0, 1642.0, 1640.0, 1641.0, 1640.0, 1640.0, 1642.0, 1643.0, 1646.0, 1652.0, 1652.0, 1649.0, 1646.0, 1643.0, 1644.0, 1644.0, 1644.0, 1644.0, 1643.0, 1643.0, 1643.0, 1643.0, 1642.0]
    },
    "slices": {}
  }
}