{
  "AcquisitionMatrixPE": 72,
  "AcquisitionNumber": 1,
  "AcquisitionTime": "10:16:35.642500",
  "BandwidthPerPixelPhaseEncode": 17.943,
  "BaseResolution": 96,
  "BodyPartExamined": "BRAIN",
  "CoilCombinationMethod": "Sum of Squares",
  "ConsistencyInfo": "N4_VE11C_LATEST_20160120",
  "ConversionSoftware": "dcm2niix",
  "ConversionSoftwareVersion": "v1.0.20211006",
  "DerivedVendorReportedEchoSpacing": 0.000552897,
  "DeviceSerialNumber": "166011",
  "DwellTime": 2.3e-06,
  "EchoTime": 0.03,
  "EchoTrainLength": 58,
  "EffectiveEchoSpacing": 0.000580542,
  "FlipAngle": 62,
  "ImageOrientationPatientDICOM": [0.996802, -0.0720543, 0.0345567, 0.0763497, 0.986392, -0.145611],
  "ImageOrientationText": "Tra>Cor(-8.5)>Sag(1.4)",
  "ImageType": [
    "ORIGINAL",
    "PRIMARY",
    "M",
    "ND",
    "MOSAIC"
],
  "ImagingFrequency": 123.26,
  "InPlanePhaseEncodingDirectionDICOM": "COL",
  "InstitutionAddress": "West 130th Street 610,NY,NYC,US,10025",
  "InstitutionName": "MBBI",
  "InstitutionalDepartmentName": "Department",
  "MRAcquisitionType": "2D",
  "MagneticFieldStrength": 3,
  "Manufacturer": "Siemens",
  "ManufacturersModelName": "Prisma",
  "Modality": "MR",
  "MultibandAccelerationFactor": 3,
  "PartialFourier": 0.75,
  "PatientPosition": "HFS",
  "PercentPhaseFOV": 100,
  "PercentSampling": 75,
  "PhaseEncodingDirection": "j-",
  "PhaseEncodingSteps": 58,
  "PhaseOversampling": 0.05,
  "PhaseResolution": 0.75,
  "PixelBandwidth": 2265,
  "ProcedureStepDescription": "White^Word_recognition",
  "ProtocolName": "func_vwfate_run1",
  "PulseSequenceDetails": "%SiemensSeq%\\ep2d_bold",
  "ReceiveCoilActiveElements": "HC1-6",
  "ReceiveCoilName": "HeadNeck_64",
  "ReconMatrixPE": 96,
  "RefLinesPE": 40,
  "RepetitionTime": 1.5,
  "SAR": 0.0502848,
  "ScanOptions": "PFP\\FS",
  "ScanningSequence": "EP",
  "SequenceName": "*epfid2d1_72",
  "SequenceVariant": "SK\\OSP",
  "SeriesDescription": "func_vwfate_run1",
  "SeriesNumber": 8,
  "ShimSetting": [-1131, -1345, 679, 584, -72, 81, -144, -43],
  "SliceThickness": 2,
  "SliceTiming": [1.0775, 0, 0.74, 0.0675, 0.8075, 0.135, 0.875, 0.2025, 0.9425, 0.27, 1.01, 0.405, 1.145, 0.4725, 1.2125, 0.54, 1.28, 0.605, 1.345, 0.6725, 1.4125, 0.3375, 1.0775, 0, 0.74, 0.0675, 0.8075, 0.135, 0.875, 0.2025, 0.9425, 0.27, 1.01, 0.405, 1.145, 0.4725, 1.2125, 0.54, 1.28, 0.605, 1.345, 0.6725, 1.4125, 0.3375, 1.0775, 0, 0.74, 0.0675, 0.8075, 0.135, 0.875, 0.2025, 0.9425, 0.27, 1.01, 0.405, 1.145, 0.4725, 1.2125, 0.54, 1.28, 0.605, 1.345, 0.6725, 1.4125, 0.3375],
  "SoftwareVersions": "syngo MR E11",
  "SpacingBetweenSlices": 2,
  "StationName": "AWP166011",
  "TaskName": "vwfate",
  "TotalReadoutTime": 0.0551515,
  "TxRefAmp": 207.842,
  "dcmmeta_affine": [
    [-1.9936038255691528, 0.15269942581653595, 0.04718918725848198, 92.0904769897461],
    [0.14410851895809174, 1.972783088684082, -0.2955666184425354, -72.71781158447266],
    [0.06911344081163406, 0.2912212014198303, 1.9774765968322754, -63.95372772216797],
    [0.0, 0.0, 0.0, 1.0]
],
  "dcmmeta_reorient_transform": [
    [0.0, -1.0, 0.0, 95.0],
    [1.0, 0.0, 0.0, 0.0],
    [0.0, 0.0, 1.0, 0.0],
    [0.0, 0.0, 0.0, 1.0]
],
  "dcmmeta_shape": [96, 96, 66, 164],
  "dcmmeta_slice_dim": 2,
  "dcmmeta_version": 0.6,
  "global": {
    "const": {
      "AcquisitionMatrix": [96, 0, 0, 72],
      "AngioFlag": "N",
      "BitsAllocated": 16,
      "BitsStored": 12,
      "BodyPartExamined": "BRAIN",
      "Columns": 864,
      "EchoNumbers": 1,
      "EchoTime": 30.0,
      "EchoTrainLength": 58,
      "FlipAngle": 62.0,
      "HighBit": 11,
      "ImageOrientationPatient": [0.99680189436634, -0.0720542599283, 0.03455672168867, 0.07634971191025, 0.98639154282607, -0.1456105962231],
      "ImagePositionPatient": [-930.77735916086, -816.90761277158, 49.001660726363],
      "ImageType": [
        "ORIGINAL",
        "PRIMARY",
        "M",
        "ND",
        "MOSAIC"
],
      "ImagedNucleus": "1H",
      "ImagingFrequency": 123.259509,
      "InPlanePhaseEncodingDirection": "COL",
      "MRAcquisitionType": "2D",
      "MagneticFieldStrength": 3.0,
      "Manufacturer": "SIEMENS",
      "ManufacturerModelName": "Prisma",
      "Modality": "MR",
      "NumberOfAverages": 1.0,
      "NumberOfPhaseEncodingSteps": 58,
      "PercentPhaseFieldOfView": 100.0,
      "PercentSampling": 75.0,
      "PerformedProcedureStepStartTime": "095945.114000",
      "PhotometricInterpretation": "MONOCHROME2",
      "PixelBandwidth": 2265.0,
      "PixelRepresentation": 0,
      "PixelSpacing": [2.0, 2.0],
      "ProtocolName": "func_vwfate_run1",
      "RepetitionTime": 1500.0,
      "Rows": 864,
      "SAR": 0.05028475820587,
      "SamplesPerPixel": 1,
      "ScanOptions": [
        "PFP",
        "FS"
],
      "ScanningSequence": "EP",
      "SequenceName": "*epfid2d1_72",
      "SequenceVariant": [
        "SK",
        "OSP"
],
      "SeriesDescription": "func_vwfate_run1",
      "SeriesNumber": 8,
      "SeriesTime": "101642.616000",
      "SliceLocation": -50.314182251615,
      "SliceThickness": 2.0,
      "SmallestImagePixelValue": 0,
      "SoftwareVersions": "syngo MR E11",
      "SpacingBetweenSlices": 2.000000000869,
      "SpecificCharacterSet": "ISO_IR 100",
      "StudyID": "1",
      "StudyTime": "095945.028000",
      "TransmitCoilName": "Body",
      "VariableFlipAngleFlag": "N",
      "WindowCenterWidthExplanation": "Algo1",
      "dBdt": 0.0},
    "slices": {}
  },
  "time": {
    "samples": {
      "AcquisitionNumber": [1, 2, 3, 4, 5, 6, 7, 8, 9, 10, 11, 12, 13, 14, 15, 16, 17, 18, 19, 20, 21, 22, 23, 24, 25, 26, 27, 28, 29, 30, 31, 32, 33, 34, 35, 36, 37, 38, 39, 40, 41, 42, 43, 44, 45, 46, 47, 48, 49, 50, 51, 52, 53, 54, 55, 56, 57, 58, 59, 60, 61, 62, 63, 64, 65, 66, 67, 68, 69, 70, 71, 72, 73, 74, 75, 76, 77, 78, 79, 80, 81, 82, 83, 84, 85, 86, 87, 88, 89, 90, 91, 92, 93, 94, 95, 96, 97, 98, 99, 100, 101, 102, 103, 104, 105, 106, 107, 108, 109, 110, 111, 112, 113, 114, 115, 116, 117, 118, 119, 120, 121, 122, 123, 124, 125, 126, 127, 128, 129, 130, 131, 132, 133, 134, 135, 136, 137, 138, 139, 140, 141, 142, 143, 144, 145, 146, 147, 148, 149, 150, 151, 152, 153, 154, 155, 156, 157, 158, 159, 160, 161, 162, 163, 164],
      "AcquisitionTime": ["101635.642500", "101637.142500", "101638.642500", "101640.142500", "101641.642500", "101643.142500", "101644.642500", "101646.142500", "101647.642500", "101649.142500", "101650.642500", "101652.142500", "101653.642500", "101655.142500", "101656.642500", "101658.142500", "101659.642500", "101701.142500", "101702.642500", "101704.142500", "101705.642500", "101707.142500", "101708.642500", "101710.142500", "101711.642500", "101713.142500", "101714.642500", "101716.142500", "101717.642500", "101719.142500", "101720.642500", "101722.142500", "101723.642500", "101725.142500", "101726.642500", "101728.142500", "101729.642500", "101731.142500", "101732.642500", "101734.142500", "101735.642500", "101737.142500", "101738.642500", "101740.142500", "101741.642500", "101743.142500", "101744.642500", "101746.142500", "101747.642500", "101749.142500", "101750.642500", "101752.142500", "101753.642500", "101755.142500", "101756.642500", "101758.142500", "101759.642500", "101801.142500", "101802.642500", "101804.142500", "101805.642500", "101807.142500", "101808.642500", "101810.142500", "101811.642500", "101813.142500", "101814.642500", "101816.142500", "101817.642500", "101819.142500", "101820.642500", "101822.142500", "101823.642500", "101825.142500", "101826.642500", "101828.142500", "101829.642500", "101831.142500", "101832.642500", "101834.142500", "101835.642500", "101837.142500", "101838.642500", "101840.142500", "101841.642500", "101843.142500", "101844.642500", "101846.142500", "101847.642500", "101849.142500", "101850.642500", "101852.142500", "101853.642500", "101855.142500", "101856.642500", "101858.142500", "101859.642500", "101901.142500", "101902.642500", "101904.142500", "101905.642500", "101907.142500", "101908.642500", "101910.142500", "101911.642500", "101913.142500", "101914.642500", "101916.142500", "101917.642500", "101919.142500", "101920.642500", "101922.142500", "101923.642500", "101925.142500", "101926.642500", "101928.142500", "101929.642500", "101931.142500", "101932.642500", "101934.142500", "101935.642500", "101937.142500", "101938.642500", "101940.142500", "101941.642500", "101943.142500", "101944.642500", "101946.142500", "101947.642500", "101949.142500", "101950.642500", "101952.142500", "101953.642500", "101955.142500", "101956.642500", "101958.142500", "101959.642500", "102001.142500", "102002.642500", "102004.142500", "102005.642500", "102007.142500", "102008.642500", "102010.142500", "102011.642500", "102013.142500", "102014.642500", "102016.142500", "102017.642500", "102019.142500", "102020.642500", "102022.142500", "102023.642500", "102025.142500", "102026.642500", "102028.142500", "102029.642500", "102031.142500", "102032.642500", "102034.142500", "102035.642500", "102037.142500", "102038.642500", "102040.142500"],
      "ContentTime": ["101642.620000", "101642.624000", "101642.627000", "101642.630000", "101722.615000", "101722.618000", "101722.622000", "101722.625000", "101722.628000", "101722.631000", "101722.634000", "101722.637000", "101722.640000", "101722.644000", "101722.647000", "101722.650000", "101722.653000", "101722.656000", "101722.659000", "101722.662000", "101722.665000", "101722.668000", "101722.671000", "101722.674000", "101722.677000", "101722.681000", "101722.690000", "101722.693000", "101722.697000", "101722.700000", "101722.703000", "101802.615000", "101802.618000", "101802.621000", "101802.624000", "101802.628000", "101802.631000", "101802.634000", "101802.637000", "101802.640000", "101802.643000", "101802.646000", "101802.649000", "101802.652000", "101802.655000", "101802.658000", "101802.661000", "101802.668000", "101802.671000", "101802.674000", "101802.677000", "101802.685000", "101802.688000", "101802.691000", "101802.694000", "101802.698000", "101802.701000", "101802.704000", "101842.615000", "101842.618000", "101842.622000", "101842.625000", "101842.628000", "101842.631000", "101842.634000", "101842.638000", "101842.641000", "101842.644000", "101842.647000", "101842.650000", "101842.653000", "101842.657000", "101842.660000", "101842.663000", "101842.666000", "101842.669000", "101842.672000", "101842.675000", "101842.678000", "101842.681000", "101842.684000", "101842.687000", "101842.691000", "101842.694000", "101922.615000", "101922.619000", "101922.622000", "101922.625000", "101922.628000", "101922.631000", "101922.634000", "101922.637000", "101922.640000", "101922.643000", "101922.646000", "101922.649000", "101922.652000", "101922.656000", "101922.659000", "101922.662000", "101922.665000", "101922.668000", "101922.671000", "101922.675000", "101922.678000", "101922.681000", "101922.684000", "101922.688000", "101922.691000", "101922.695000", "101922.698000", "102002.615000", "102002.618000", "102002.622000", "102002.625000", "102002.628000", "102002.631000", "102002.634000", "102002.637000", "102002.640000", "102002.643000", "102002.646000", "102002.649000", "102002.653000", "102002.656000", "102002.659000", "102002.662000", "102002.668000", "102002.671000", "102002.674000", "102002.677000", "102002.680000", "102002.683000", "102002.686000", "102002.689000", "102002.693000", "102002.696000", "102002.699000", "102041.376000", "102041.380000", "102041.384000", "102041.387000", "102041.390000", "102041.393000", "102041.396000", "102041.400000", "102041.403000", "102041.407000", "102041.410000", "102041.414000", "102041.417000", "102041.421000", "102041.424000", "102041.427000", "102041.430000", "102041.434000", "102041.437000", "102041.440000", "102041.458000", "102041.461000", "102041.465000", "102041.468000", "102041.471000", "102041.478000"],
      "InstanceCreationTime": ["101642.620000", "101642.624000", "101642.627000", "101642.630000", "101722.615000", "101722.618000", "101722.622000", "101722.625000", "101722.628000", "101722.631000", "101722.634000", "101722.637000", "101722.640000", "101722.644000", "101722.647000", "101722.650000", "101722.653000", "101722.656000", "101722.659000", "101722.662000", "101722.665000", "101722.668000", "101722.671000", "101722.674000", "101722.677000", "101722.681000", "101722.690000", "101722.693000", "101722.697000", "101722.700000", "101722.703000", "101802.615000", "101802.618000", "101802.621000", "101802.624000", "101802.628000", "101802.631000", "101802.634000", "101802.637000", "101802.640000", "101802.643000", "101802.646000", "101802.649000", "101802.652000", "101802.655000", "101802.658000", "101802.661000", "101802.668000", "101802.671000", "101802.674000", "101802.677000", "101802.685000", "101802.688000", "101802.691000", "101802.694000", "101802.698000", "101802.701000", "101802.704000", "101842.615000", "101842.618000", "101842.622000", "101842.625000", "101842.628000", "101842.631000", "101842.634000", "101842.638000", "101842.641000", "101842.644000", "101842.647000", "101842.650000", "101842.653000", "101842.657000", "101842.660000", "101842.663000", "101842.666000", "101842.669000", "101842.672000", "101842.675000", "101842.678000", "101842.681000", "101842.684000", "101842.687000", "101842.691000", "101842.694000", "101922.615000", "101922.619000", "101922.622000", "101922.625000", "101922.628000", "101922.631000", "101922.634000", "101922.637000", "101922.640000", "101922.643000", "101922.646000", "101922.649000", "101922.652000", "101922.656000", "101922.659000", "101922.662000", "101922.665000", "101922.668000", "101922.671000", "101922.675000", "101922.678000", "101922.681000", "101922.684000", "101922.688000", "101922.691000", "101922.695000", "101922.698000", "102002.615000", "102002.618000", "102002.622000", "102002.625000", "102002.628000", "102002.631000", "102002.634000", "102002.637000", "102002.640000", "102002.643000", "102002.646000", "102002.649000", "102002.653000", "102002.656000", "102002.659000", "102002.662000", "102002.668000", "102002.671000", "102002.674000", "102002.677000", "102002.680000", "102002.683000", "102002.686000", "102002.689000", "102002.693000", "102002.696000", "102002.699000", "102041.376000", "102041.380000", "102041.384000", "102041.387000", "102041.390000", "102041.393000", "102041.396000", "102041.400000", "102041.403000", "102041.407000", "102041.410000", "102041.414000", "102041.417000", "102041.421000", "102041.424000", "102041.427000", "102041.430000", "102041.434000", "102041.437000", "102041.440000", "102041.458000", "102041.461000", "102041.465000", "102041.468000", "102041.471000", "102041.478000"],
      "InstanceNumber": [1, 2, 3, 4, 5, 6, 7, 8, 9, 10, 11, 12, 13, 14, 15, 16, 17, 18, 19, 20, 21, 22, 23, 24, 25, 26, 27, 28, 29, 30, 31, 32, 33, 34, 35, 36, 37, 38, 39, 40, 41, 42, 43, 44, 45, 46, 47, 48, 49, 50, 51, 52, 53, 54, 55, 56, 57, 58, 59, 60, 61, 62, 63, 64, 65, 66, 67, 68, 69, 70, 71, 72, 73, 74, 75, 76, 77, 78, 79, 80, 81, 82, 83, 84, 85, 86, 87, 88, 89, 90, 91, 92, 93, 94, 95, 96, 97, 98, 99, 100, 101, 102, 103, 104, 105, 106, 107, 108, 109, 110, 111, 112, 113, 114, 115, 116, 117, 118, 119, 120, 121, 122, 123, 124, 125, 126, 127, 128, 129, 130, 131, 132, 133, 134, 135, 136, 137, 138, 139, 140, 141, 142, 143, 144, 145, 146, 147, 148, 149, 150, 151, 152, 153, 154, 155, 156, 157, 158, 159, 160, 161, 162, 163, 164],
      "LargestImagePixelValue": [2748, 2716, 2685, 2716, 2671, 2717, 2655, 2662, 2654, 2731, 2676, 2704, 2682, 2725, 2682, 2766, 2754, 2777, 2735, 2802, 2788, 2828, 2840, 2805, 2820, 2825, 2832, 2816, 2867, 2758, 2787, 2798, 2826, 2794, 2752, 2719, 2775, 2729, 2784, 2698, 2743, 2718, 2816, 2773, 2744, 2784, 2787, 2709, 2722, 2719, 2642, 2731, 2775, 2710, 2752, 2797, 2772, 2824, 2826, 2810, 2779, 2806, 2745, 2772, 2829, 2801, 2822, 2778, 2815, 2829, 2800, 2818, 2774, 2787, 2775, 2719, 2704, 2760, 2812, 2762, 2801, 2817, 2793, 2870, 2916, 2857, 2897, 2883, 2857, 2830, 2865, 2820, 2769, 2789, 2791, 2749, 2792, 2767, 2797, 2758, 2694, 2733, 2725, 2721, 2730, 2803, 2761, 2831, 2846, 2756, 2734, 2720, 2744, 2733, 2725, 2832, 2807, 2796, 2749, 2813, 2810, 2738, 2817, 2805, 2826, 2879, 2924, 2899, 2943, 2836, 2772, 2832, 2779, 2795, 2856, 2776, 2823, 2829, 2712, 2732, 2791, 2763, 2803, 2799, 2844, 2823, 2849, 2789, 2778, 2794, 2990, 2840, 2907, 2864, 2812, 2879, 2816, 2808, 2835, 2699, 2775, 2771, 2741, 2799],
      "WindowCenter": [762.0, 764.0, 765.0, 765.0, 764.0, 763.0, 761.0, 762.0, 763.0, 763.0, 761.0, 762.0, 763.0, 763.0, 762.0, 763.0, 763.0, 764.0, 765.0, 765.0, 766.0, 766.0, 766.0, 766.0, 766.0, 766.0, 766.0, 766.0, 766.0, 764.0, 764.0, 766.0, 766.0, 765.0, 764.0, 764.0, 763.0, 763.0, 762.0, 762.0, 765.0, 766.0, 767.0, 764.0, 763.0, 763.0, 762.0, 761.0, 761.0, 761.0, 761.0, 762.0, 763.0, 763.0, 763.0, 764.0, 764.0, 764.0, 765.0, 764.0, 764.0, 765.0, 765.0, 766.0, 767.0, 766.0, 766.0, 765.0, 766.0, 766.0, 766.0, 765.0, 765.0, 765.0, 765.0, 764.0, 765.0, 766.0, 766.0, 766.0, 766.0, 767.0, 767.0, 767.0, 767.0, 767.0, 767.0, 767.0, 767.0, 767.0, 767.0, 767.0, 767.0, 767.0, 766.0, 766.0, 766.0, 766.0, 766.0, 765.0, 765.0, 765.0, 765.0, 765.0, 765.0, 766.0, 767.0, 767.0, 767.0, 767.0, 766.0, 766.0, 766.0, 767.0, 767.0, 768.0, 767.0, 768.0, 768.0, 767.0, 767.0, 767.0, 767.0, 767.0, 767.0, 768.0, 768.0, 768.0, 768.0, 768.0, 767.0, 768.0, 767.0, 767.0, 767.0, 767.0, 767.0, 768.0, 767.0, 768.0, 768.0, 768.0, 768.0, 768.0, 768.0, 767.0, 768.0, 768.0, 768.0, 765.0, 768.0, 768.0, 768.0, 767.0, 767.0, 768.0, 768.0, 768.0, 767.0, 767.0, 767.0, 767.0, 766.0, 767.0],
      "WindowWidth": [1688.0, 1693.0, 1697.0, 1696.0, 1693.0, 1689.0, 1682.0, 1687.0, 1688.0, 1688.0, 1685.0, 1686.0, 1689.0, 1689.0, 1688.0, 1691.0, 1691.0, 1693.0, 1696.0, 1698.0, 1698.0, 1699.0, 1698.0, 1699.0, 1700.0, 1700.0, 1698.0, 1698.0, 1699.0, 1693.0, 1694.0, 1699.0, 1700.0, 1696.0, 1693.0, 1691.0, 1691.0, 1689.0, 1688.0, 1686.0, 1695.0, 1699.0, 1702.0, 1694.0, 1688.0, 1689.0, 1688.0, 1685.0, 1683.0, 1683.0, 1683.0, 1687.0, 1691.0, 1690.0, 1691.0, 1694.0, 1694.0, 1695.0, 1695.0, 1695.0, 1694.0, 1696.0, 1695.0, 1699.0, 1702.0, 1700.0, 1700.0, 1695.0, 1698.0, 1701.0, 1698.0, 1697.0, 1696.0, 1696.0, 1695.0, 1694.0, 1695.0, 1698.0, 1700.0, 1700.0, 1701.0, 1701.0, 1701.0, 1703.0, 1704.0, 1702.0, 1703.0, 1702.0, 1702.0, 1702.0, 1703.0, 1703.0, 1702.0, 1701.0, 1700.0, 1699.0, 1700.0, 1698.0, 1698.0, 1696.0, 1695.0, 1696.0, 1695.0, 1695.0, 1697.0, 1700.0, 1701.0, 1702.0, 1703.0, 1701.0, 1699.0, 1699.0, 1700.0, 1701.0, 1702.0, 1704.0, 1704.0, 1706.0, 1704.0, 1702.0, 1702.0, 1701.0, 1701.0, 1702.0, 1703.0, 1705.0, 1707.0, 1706.0, 1706.0, 1705.0, 1703.0, 1707.0, 1702.0, 1701.0, 1703.0, 1702.0, 1703.0, 1705.0, 1703.0, 1704.0, 1704.0, 1704.0, 1705.0, 1705.0, 1705.0, 1703.0, 1704.0, 1704.0, 1704.0, 1696.0, 1705.0, 1705.0, 1705.0, 1702.0, 1702.0, 1704.0, 1704.0, 1704.0, 1703.0, 1700.0, 1701.0, 1700.0, 1700.0, 1701.0]
    },
    "slices": {}
  }
}