{
  "AcquisitionMatrixPE": 72,
  "AcquisitionNumber": 1,
  "AcquisitionTime": "17:11:36.942500",
  "BandwidthPerPixelPhaseEncode": 17.943,
  "BaseResolution": 96,
  "BodyPartExamined": "BRAIN",
  "CoilCombinationMethod": "Sum of Squares",
  "ConsistencyInfo": "N4_VE11C_LATEST_20160120",
  "ConversionSoftware": "dcm2niix",
  "ConversionSoftwareVersion": "v1.0.20211006",
  "DerivedVendorReportedEchoSpacing": 0.000552897,
  "DeviceSerialNumber": "166011",
  "EchoTime": 0.03,
  "EchoTrainLength": 58,
  "EffectiveEchoSpacing": 0.000580542,
  "FlipAngle": 62,
  "ImageOrientationPatientDICOM": [0.999865, -0.00616565, -0.0152, 0.00331569, 0.983507, -0.180837],
  "ImageType": [
    "ORIGINAL",
    "PRIMARY",
    "M",
    "ND",
    "MOSAIC"
],
  "ImagingFrequency": 123.259,
  "InPlanePhaseEncodingDirectionDICOM": "COL",
  "InstitutionAddress": "West 130th Street 610,NY,NYC,US,10025",
  "InstitutionName": "MBBI",
  "MRAcquisitionType": "2D",
  "MagneticFieldStrength": 3,
  "Manufacturer": "Siemens",
  "ManufacturersModelName": "Prisma",
  "Modality": "MR",
  "MultibandAccelerationFactor": 3,
  "PartialFourier": 0.75,
  "PatientPosition": "HFS",
  "PercentPhaseFOV": 100,
  "PercentSampling": 75,
  "PhaseEncodingDirection": "j-",
  "PhaseEncodingSteps": 58,
  "PhaseOversampling": 0.05,
  "PhaseResolution": 0.75,
  "PixelBandwidth": 2265,
  "ProcedureStepDescription": "White^Word_recognition",
  "ProtocolName": "func_vwfate_run13",
  "PulseSequenceDetails": "%SiemensSeq%\\ep2d_bold",
  "ReceiveCoilActiveElements": "HC1-7",
  "ReceiveCoilName": "HeadNeck_64",
  "ReconMatrixPE": 96,
  "RefLinesPE": 40,
  "RepetitionTime": 1.5,
  "SAR": 0.0494775,
  "ScanOptions": "PFP\\FS",
  "ScanningSequence": "EP",
  "SequenceName": "*epfid2d1_72",
  "SequenceVariant": "SK\\OSP",
  "SeriesDescription": "func_vwfate_run13",
  "SeriesNumber": 8,
  "ShimSetting": [-1149, -1328, 629, 675, -75, -93, 97, 42],
  "SliceThickness": 2,
  "SliceTiming": [1.075, 0, 0.74, 0.0675, 0.8075, 0.135, 0.875, 0.2025, 0.9425, 0.27, 1.01, 0.4025, 1.1425, 0.47, 1.21, 0.5375, 1.2775, 0.605, 1.345, 0.6725, 1.4125, 0.335, 1.075, 0, 0.74, 0.0675, 0.8075, 0.135, 0.875, 0.2025, 0.9425, 0.27, 1.01, 0.4025, 1.1425, 0.47, 1.21, 0.5375, 1.2775, 0.605, 1.345, 0.6725, 1.4125, 0.335, 1.075, 0, 0.74, 0.0675, 0.8075, 0.135, 0.875, 0.2025, 0.9425, 0.27, 1.01, 0.4025, 1.1425, 0.47, 1.21, 0.5375, 1.2775, 0.605, 1.345, 0.6725, 1.4125, 0.335],
  "SoftwareVersions": "syngo MR E11",
  "SpacingBetweenSlices": 2,
  "StationName": "AWP166011",
  "TaskName": "vwfate",
  "TotalReadoutTime": 0.0551515,
  "TxRefAmp": 228.524,
  "dcmmeta_affine": [
    [-1.9997309446334839, 0.006631380878388882, -0.03212849795818329, 96.48507690429688],
    [0.012331300415098667, 1.9670149087905884, -0.3615250587463379, -54.946258544921875],
    [-0.03039991296827793, 0.3616745173931122, 1.9667911529541016, -87.13145446777344],
    [0.0, 0.0, 0.0, 1.0]
],
  "dcmmeta_reorient_transform": [
    [0.0, -1.0, 0.0, 95.0],
    [1.0, 0.0, 0.0, 0.0],
    [0.0, 0.0, 1.0, 0.0],
    [0.0, 0.0, 0.0, 1.0]
],
  "dcmmeta_shape": [96, 96, 66, 164],
  "dcmmeta_slice_dim": 2,
  "dcmmeta_version": 0.6,
  "global": {
    "const": {
      "AcquisitionMatrix": [96, 0, 0, 72],
      "AngioFlag": "N",
      "BitsAllocated": 16,
      "BitsStored": 12,
      "BodyPartExamined": "BRAIN",
      "Columns": 864,
      "EchoNumbers": 1,
      "EchoTime": 30.0,
      "EchoTrainLength": 58,
      "FlipAngle": 62.0,
      "HighBit": 11,
      "ImageOrientationPatient": [0.99986546398525, -0.0061656501989, -0.0151999568156, 0.00331569048546, 0.98350744452399, -0.1808372549076],
      "ImagePositionPatient": [-867.55818737456, -882.51865484035, 97.784201465923],
      "ImageType": [
        "ORIGINAL",
        "PRIMARY",
        "M",
        "ND",
        "MOSAIC"
],
      "ImagedNucleus": "1H",
      "ImagingFrequency": 123.259487,
      "InPlanePhaseEncodingDirection": "COL",
      "MRAcquisitionType": "2D",
      "MagneticFieldStrength": 3.0,
      "Manufacturer": "SIEMENS",
      "ManufacturerModelName": "Prisma",
      "Modality": "MR",
      "NumberOfAverages": 1.0,
      "NumberOfPhaseEncodingSteps": 58,
      "PercentPhaseFieldOfView": 100.0,
      "PercentSampling": 75.0,
      "PerformedProcedureStepStartTime": "164451.895000",
      "PhotometricInterpretation": "MONOCHROME2",
      "PixelBandwidth": 2265.0,
      "PixelRepresentation": 0,
      "PixelSpacing": [2.0, 2.0],
      "ProtocolName": "func_vwfate_run13",
      "RepetitionTime": 1500.0,
      "Rows": 864,
      "SAR": 0.04947752061568,
      "SamplesPerPixel": 1,
      "ScanOptions": [
        "PFP",
        "FS"
],
      "ScanningSequence": "EP",
      "SequenceName": "*epfid2d1_72",
      "SequenceVariant": [
        "SK",
        "OSP"
],
      "SeriesDescription": "func_vwfate_run13",
      "SeriesNumber": 8,
      "SeriesTime": "171213.217000",
      "SliceLocation": -77.302423505315,
      "SliceThickness": 2.0,
      "SmallestImagePixelValue": 0,
      "SoftwareVersions": "syngo MR E11",
      "SpacingBetweenSlices": 1.9999999898506,
      "SpecificCharacterSet": "ISO_IR 100",
      "StudyID": "1",
      "StudyTime": "164451.814000",
      "TransmitCoilName": "Body",
      "VariableFlipAngleFlag": "N",
      "WindowCenterWidthExplanation": "Algo1",
      "dBdt": 0.0},
    "slices": {}
  },
  "time": {
    "samples": {
      "AcquisitionNumber": [1, 2, 3, 4, 5, 6, 7, 8, 9, 10, 11, 12, 13, 14, 15, 16, 17, 18, 19, 20, 21, 22, 23, 24, 25, 26, 27, 28, 29, 30, 31, 32, 33, 34, 35, 36, 37, 38, 39, 40, 41, 42, 43, 44, 45, 46, 47, 48, 49, 50, 51, 52, 53, 54, 55, 56, 57, 58, 59, 60, 61, 62, 63, 64, 65, 66, 67, 68, 69, 70, 71, 72, 73, 74, 75, 76, 77, 78, 79, 80, 81, 82, 83, 84, 85, 86, 87, 88, 89, 90, 91, 92, 93, 94, 95, 96, 97, 98, 99, 100, 101, 102, 103, 104, 105, 106, 107, 108, 109, 110, 111, 112, 113, 114, 115, 116, 117, 118, 119, 120, 121, 122, 123, 124, 125, 126, 127, 128, 129, 130, 131, 132, 133, 134, 135, 136, 137, 138, 139, 140, 141, 142, 143, 144, 145, 146, 147, 148, 149, 150, 151, 152, 153, 154, 155, 156, 157, 158, 159, 160, 161, 162, 163, 164],
      "AcquisitionTime": ["171136.942500", "171138.442500", "171139.942500", "171141.442500", "171142.942500", "171144.442500", "171145.942500", "171147.442500", "171148.942500", "171150.442500", "171151.942500", "171153.442500", "171154.942500", "171156.442500", "171157.942500", "171159.442500", "171200.942500", "171202.442500", "171203.942500", "171205.442500", "171206.942500", "171208.442500", "171209.942500", "171211.442500", "171212.942500", "171214.442500", "171215.942500", "171217.442500", "171218.942500", "171220.442500", "171221.942500", "171223.442500", "171224.942500", "171226.442500", "171227.942500", "171229.442500", "171230.942500", "171232.442500", "171233.942500", "171235.442500", "171236.942500", "171238.442500", "171239.942500", "171241.442500", "171242.942500", "171244.442500", "171245.942500", "171247.442500", "171248.942500", "171250.442500", "171251.942500", "171253.442500", "171254.942500", "171256.442500", "171257.942500", "171259.442500", "171300.942500", "171302.442500", "171303.942500", "171305.442500", "171306.942500", "171308.442500", "171309.942500", "171311.442500", "171312.942500", "171314.442500", "171315.942500", "171317.442500", "171318.942500", "171320.442500", "171321.942500", "171323.442500", "171324.942500", "171326.442500", "171327.942500", "171329.442500", "171330.942500", "171332.442500", "171333.942500", "171335.442500", "171336.942500", "171338.442500", "171339.942500", "171341.442500", "171342.942500", "171344.442500", "171345.942500", "171347.442500", "171348.942500", "171350.442500", "171351.942500", "171353.442500", "171354.942500", "171356.442500", "171357.942500", "171359.442500", "171400.942500", "171402.442500", "171403.942500", "171405.442500", "171406.942500", "171408.442500", "171409.942500", "171411.442500", "171412.942500", "171414.442500", "171415.942500", "171417.442500", "171418.942500", "171420.442500", "171421.942500", "171423.442500", "171424.942500", "171426.442500", "171427.942500", "171429.442500", "171430.942500", "171432.442500", "171433.942500", "171435.442500", "171436.942500", "171438.442500", "171439.942500", "171441.442500", "171442.942500", "171444.442500", "171445.942500", "171447.442500", "171448.942500", "171450.442500", "171451.942500", "171453.442500", "171454.942500", "171456.442500", "171457.942500", "171459.442500", "171500.942500", "171502.442500", "171503.942500", "171505.442500", "171506.942500", "171508.442500", "171509.942500", "171511.442500", "171512.942500", "171514.442500", "171515.942500", "171517.442500", "171518.942500", "171520.442500", "171521.942500", "171523.442500", "171524.942500", "171526.442500", "171527.942500", "171529.442500", "171530.942500", "171532.442500", "171533.942500", "171535.442500", "171536.942500", "171538.442500", "171539.942500", "171541.442500"],
      "ContentTime": ["171213.221000", "171213.226000", "171213.236000", "171213.239000", "171213.242000", "171213.245000", "171213.248000", "171213.252000", "171213.255000", "171213.258000", "171213.261000", "171213.264000", "171213.267000", "171213.270000", "171213.273000", "171213.276000", "171213.281000", "171213.284000", "171213.287000", "171213.298000", "171213.301000", "171213.304000", "171213.307000", "171213.310000", "171253.217000", "171253.220000", "171253.224000", "171253.227000", "171253.230000", "171253.233000", "171253.236000", "171253.239000", "171253.242000", "171253.245000", "171253.248000", "171253.251000", "171253.254000", "171253.257000", "171253.261000", "171253.264000", "171253.267000", "171253.270000", "171253.273000", "171253.276000", "171253.279000", "171253.282000", "171253.293000", "171253.296000", "171253.299000", "171253.302000", "171253.305000", "171333.217000", "171333.220000", "171333.223000", "171333.227000", "171333.230000", "171333.233000", "171333.236000", "171333.239000", "171333.242000", "171333.245000", "171333.248000", "171333.252000", "171333.255000", "171333.258000", "171333.261000", "171333.264000", "171333.267000", "171333.270000", "171333.273000", "171333.276000", "171333.279000", "171333.282000", "171333.292000", "171333.295000", "171333.298000", "171333.301000", "171413.216000", "171413.219000", "171413.222000", "171413.226000", "171413.229000", "171413.232000", "171413.235000", "171413.238000", "171413.241000", "171413.244000", "171413.247000", "171413.250000", "171413.254000", "171413.257000", "171413.260000", "171413.263000", "171413.266000", "171413.269000", "171413.272000", "171413.276000", "171413.279000", "171413.282000", "171413.285000", "171413.288000", "171413.291000", "171413.294000", "171413.297000", "171453.216000", "171453.219000", "171453.222000", "171453.226000", "171453.229000", "171453.232000", "171453.235000", "171453.238000", "171453.241000", "171453.244000", "171453.248000", "171453.251000", "171453.254000", "171453.257000", "171453.260000", "171453.263000", "171453.266000", "171453.269000", "171453.272000", "171453.275000", "171453.278000", "171453.281000", "171453.285000", "171453.288000", "171453.291000", "171453.294000", "171453.297000", "171533.217000", "171533.220000", "171533.224000", "171533.227000", "171533.230000", "171533.233000", "171533.236000", "171533.239000", "171533.242000", "171533.245000", "171533.248000", "171533.252000", "171533.255000", "171533.258000", "171533.261000", "171533.264000", "171533.267000", "171533.270000", "171533.273000", "171533.277000", "171533.280000", "171533.283000", "171533.286000", "171533.289000", "171533.292000", "171533.295000", "171542.338000", "171542.342000", "171542.345000", "171542.348000", "171542.351000", "171542.354000", "171542.357000"],
      "InstanceCreationTime": ["171213.221000", "171213.226000", "171213.236000", "171213.239000", "171213.242000", "171213.245000", "171213.248000", "171213.252000", "171213.255000", "171213.258000", "171213.261000", "171213.264000", "171213.267000", "171213.270000", "171213.273000", "171213.276000", "171213.281000", "171213.284000", "171213.287000", "171213.298000", "171213.301000", "171213.304000", "171213.307000", "171213.310000", "171253.217000", "171253.220000", "171253.224000", "171253.227000", "171253.230000", "171253.233000", "171253.236000", "171253.239000", "171253.242000", "171253.245000", "171253.248000", "171253.251000", "171253.254000", "171253.257000", "171253.261000", "171253.264000", "171253.267000", "171253.270000", "171253.273000", "171253.276000", "171253.279000", "171253.282000", "171253.293000", "171253.296000", "171253.299000", "171253.302000", "171253.305000", "171333.217000", "171333.220000", "171333.223000", "171333.227000", "171333.230000", "171333.233000", "171333.236000", "171333.239000", "171333.242000", "171333.245000", "171333.248000", "171333.252000", "171333.255000", "171333.258000", "171333.261000", "171333.264000", "171333.267000", "171333.270000", "171333.273000", "171333.276000", "171333.279000", "171333.282000", "171333.292000", "171333.295000", "171333.298000", "171333.301000", "171413.216000", "171413.219000", "171413.222000", "171413.226000", "171413.229000", "171413.232000", "171413.235000", "171413.238000", "171413.241000", "171413.244000", "171413.247000", "171413.250000", "171413.254000", "171413.257000", "171413.260000", "171413.263000", "171413.266000", "171413.269000", "171413.272000", "171413.276000", "171413.279000", "171413.282000", "171413.285000", "171413.288000", "171413.291000", "171413.294000", "171413.297000", "171453.216000", "171453.219000", "171453.222000", "171453.226000", "171453.229000", "171453.232000", "171453.235000", "171453.238000", "171453.241000", "171453.244000", "171453.248000", "171453.251000", "171453.254000", "171453.257000", "171453.260000", "171453.263000", "171453.266000", "171453.269000", "171453.272000", "171453.275000", "171453.278000", "171453.281000", "171453.285000", "171453.288000", "171453.291000", "171453.294000", "171453.297000", "171533.217000", "171533.220000", "171533.224000", "171533.227000", "171533.230000", "171533.233000", "171533.236000", "171533.239000", "171533.242000", "171533.245000", "171533.248000", "171533.252000", "171533.255000", "171533.258000", "171533.261000", "171533.264000", "171533.267000", "171533.270000", "171533.273000", "171533.277000", "171533.280000", "171533.283000", "171533.286000", "171533.289000", "171533.292000", "171533.295000", "171542.338000", "171542.342000", "171542.345000", "171542.348000", "171542.351000", "171542.354000", "171542.357000"],
      "InstanceNumber": [1, 2, 3, 4, 5, 6, 7, 8, 9, 10, 11, 12, 13, 14, 15, 16, 17, 18, 19, 20, 21, 22, 23, 24, 25, 26, 27, 28, 29, 30, 31, 32, 33, 34, 35, 36, 37, 38, 39, 40, 41, 42, 43, 44, 45, 46, 47, 48, 49, 50, 51, 52, 53, 54, 55, 56, 57, 58, 59, 60, 61, 62, 63, 64, 65, 66, 67, 68, 69, 70, 71, 72, 73, 74, 75, 76, 77, 78, 79, 80, 81, 82, 83, 84, 85, 86, 87, 88, 89, 90, 91, 92, 93, 94, 95, 96, 97, 98, 99, 100, 101, 102, 103, 104, 105, 106, 107, 108, 109, 110, 111, 112, 113, 114, 115, 116, 117, 118, 119, 120, 121, 122, 123, 124, 125, 126, 127, 128, 129, 130, 131, 132, 133, 134, 135, 136, 137, 138, 139, 140, 141, 142, 143, 144, 145, 146, 147, 148, 149, 150, 151, 152, 153, 154, 155, 156, 157, 158, 159, 160, 161, 162, 163, 164],
      "LargestImagePixelValue": [3684, 3657, 3632, 3615, 3635, 3563, 3544, 3605, 3626, 3610, 3691, 3742, 3689, 3608, 3584, 3727, 3629, 3724, 3727, 3775, 3774, 3749, 3715, 3713, 3642, 3670, 3744, 3742, 3774, 3789, 3773, 3717, 3724, 3818, 3782, 3770, 3735, 3735, 3739, 3769, 3737, 3771, 3736, 3765, 3708, 3719, 3842, 3723, 3806, 3776, 3744, 3782, 3761, 3747, 3783, 3775, 3704, 3764, 3794, 3791, 3793, 3763, 3771, 3775, 3781, 3811, 3817, 3766, 3791, 3507, 3754, 3772, 3733, 3707, 3729, 3627, 3737, 3648, 3663, 3622, 3682, 3632, 3647, 3605, 3634, 3597, 3613, 3599, 3670, 3626, 3668, 3636, 3620, 3597, 3629, 3590, 3653, 3596, 3723, 3666, 3611, 3659, 3580, 3605, 3615, 3605, 3614, 3638, 3688, 3725, 3648, 3670, 3636, 3734, 3625, 3671, 3623, 3594, 3585, 3438, 3747, 3639, 3589, 3595, 3693, 3625, 3745, 3643, 3709, 3621, 3671, 3751, 3705, 3749, 3746, 3770, 3530, 3910, 3796, 3929, 3888, 3818, 3962, 3822, 3902, 3749, 3772, 3822, 3832, 3903, 3869, 3918, 3939, 3917, 3895, 3971, 3915, 3929, 3981, 3965, 3993, 3963, 3960, 3883],
      "WindowCenter": [699.0, 698.0, 698.0, 697.0, 698.0, 698.0, 697.0, 695.0, 696.0, 698.0, 700.0, 701.0, 701.0, 698.0, 696.0, 698.0, 701.0, 701.0, 698.0, 697.0, 697.0, 697.0, 698.0, 700.0, 699.0, 700.0, 701.0, 702.0, 702.0, 699.0, 699.0, 700.0, 702.0, 702.0, 699.0, 699.0, 698.0, 699.0, 698.0, 698.0, 698.0, 698.0, 697.0, 698.0, 698.0, 698.0, 699.0, 697.0, 697.0, 695.0, 695.0, 697.0, 699.0, 699.0, 699.0, 698.0, 699.0, 698.0, 699.0, 699.0, 697.0, 698.0, 698.0, 698.0, 699.0, 700.0, 700.0, 698.0, 697.0, 696.0, 699.0, 698.0, 696.0, 696.0, 697.0, 697.0, 698.0, 698.0, 699.0, 699.0, 698.0, 697.0, 698.0, 699.0, 699.0, 698.0, 695.0, 695.0, 696.0, 697.0, 697.0, 696.0, 697.0, 697.0, 698.0, 697.0, 697.0, 697.0, 698.0, 698.0, 698.0, 696.0, 696.0, 698.0, 699.0, 699.0, 698.0, 695.0, 696.0, 698.0, 699.0, 697.0, 697.0, 698.0, 698.0, 699.0, 698.0, 696.0, 695.0, 694.0, 700.0, 698.0, 696.0, 696.0, 696.0, 696.0, 695.0, 696.0, 698.0, 698.0, 698.0, 699.0, 697.0, 697.0, 699.0, 699.0, 696.0, 697.0, 697.0, 698.0, 696.0, 697.0, 698.0, 698.0, 698.0, 698.0, 698.0, 699.0, 698.0, 699.0, 697.0, 697.0, 698.0, 697.0, 698.0, 699.0, 699.0, 698.0, 697.0, 697.0, 697.0, 698.0, 699.0, 699.0],
      "WindowWidth": [1536.0, 1531.0, 1531.0, 1530.0, 1532.0, 1530.0, 1529.0, 1523.0, 1525.0, 1530.0, 1536.0, 1541.0, 1540.0, 1531.0, 1526.0, 1532.0, 1539.0, 1539.0, 1532.0, 1528.0, 1528.0, 1529.0, 1531.0, 1537.0, 1535.0, 1537.0, 1541.0, 1542.0, 1542.0, 1535.0, 1535.0, 1537.0, 1544.0, 1542.0, 1534.0, 1533.0, 1530.0, 1533.0, 1530.0, 1530.0, 1531.0, 1530.0, 1529.0, 1532.0, 1530.0, 1531.0, 1534.0, 1529.0, 1528.0, 1523.0, 1523.0, 1529.0, 1533.0, 1533.0, 1534.0, 1532.0, 1533.0, 1531.0, 1535.0, 1533.0, 1528.0, 1531.0, 1531.0, 1531.0, 1533.0, 1537.0, 1536.0, 1531.0, 1529.0, 1527.0, 1533.0, 1531.0, 1526.0, 1526.0, 1528.0, 1529.0, 1531.0, 1532.0, 1533.0, 1534.0, 1530.0, 1529.0, 1531.0, 1534.0, 1533.0, 1530.0, 1523.0, 1524.0, 1527.0, 1530.0, 1528.0, 1527.0, 1527.0, 1528.0, 1531.0, 1529.0, 1529.0, 1528.0, 1531.0, 1532.0, 1531.0, 1527.0, 1527.0, 1531.0, 1533.0, 1534.0, 1531.0, 1524.0, 1526.0, 1531.0, 1534.0, 1528.0, 1529.0, 1531.0, 1532.0, 1535.0, 1532.0, 1524.0, 1524.0, 1520.0, 1536.0, 1532.0, 1525.0, 1526.0, 1527.0, 1526.0, 1523.0, 1526.0, 1531.0, 1532.0, 1531.0, 1532.0, 1528.0, 1528.0, 1533.0, 1533.0, 1527.0, 1527.0, 1530.0, 1530.0, 1526.0, 1528.0, 1532.0, 1531.0, 1531.0, 1532.0, 1532.0, 1534.0, 1533.0, 1533.0, 1529.0, 1530.0, 1533.0, 1527.0, 1532.0, 1535.0, 1535.0, 1530.0, 1528.0, 1527.0, 1530.0, 1531.0, 1534.0, 1534.0]
    },
    "slices": {}
  }
}