{
  "AcquisitionMatrixPE": 72,
  "AcquisitionNumber": 1,
  "AcquisitionTime": "17:44:38.145000",
  "BandwidthPerPixelPhaseEncode": 17.943,
  "BaseResolution": 96,
  "BodyPartExamined": "BRAIN",
  "CoilCombinationMethod": "Sum of Squares",
  "ConsistencyInfo": "N4_VE11C_LATEST_20160120",
  "ConversionSoftware": "dcm2niix",
  "ConversionSoftwareVersion": "v1.0.20211006",
  "DerivedVendorReportedEchoSpacing": 0.000552897,
  "DeviceSerialNumber": "166011",
  "EchoTime": 0.03,
  "EchoTrainLength": 58,
  "EffectiveEchoSpacing": 0.000580542,
  "FlipAngle": 62,
  "ImageOrientationPatientDICOM": [0.999865, -0.00616565, -0.0152, 0.00331569, 0.983507, -0.180837],
  "ImageType": [
    "ORIGINAL",
    "PRIMARY",
    "M",
    "ND",
    "MOSAIC"
],
  "ImagingFrequency": 123.259,
  "InPlanePhaseEncodingDirectionDICOM": "COL",
  "InstitutionAddress": "West 130th Street 610,NY,NYC,US,10025",
  "InstitutionName": "MBBI",
  "MRAcquisitionType": "2D",
  "MagneticFieldStrength": 3,
  "Manufacturer": "Siemens",
  "ManufacturersModelName": "Prisma",
  "Modality": "MR",
  "MultibandAccelerationFactor": 3,
  "PartialFourier": 0.75,
  "PatientPosition": "HFS",
  "PercentPhaseFOV": 100,
  "PercentSampling": 75,
  "PhaseEncodingDirection": "j-",
  "PhaseEncodingSteps": 58,
  "PhaseOversampling": 0.05,
  "PhaseResolution": 0.75,
  "PixelBandwidth": 2265,
  "ProcedureStepDescription": "White^Word_recognition",
  "ProtocolName": "func_language_run3",
  "PulseSequenceDetails": "%SiemensSeq%\\ep2d_bold",
  "ReceiveCoilActiveElements": "HC1-7",
  "ReceiveCoilName": "HeadNeck_64",
  "ReconMatrixPE": 96,
  "RefLinesPE": 40,
  "RepetitionTime": 1.5,
  "SAR": 0.0496862,
  "ScanOptions": "PFP\\FS",
  "ScanningSequence": "EP",
  "SequenceName": "*epfid2d1_72",
  "SequenceVariant": "SK\\OSP",
  "SeriesDescription": "func_language_run3",
  "SeriesNumber": 13,
  "ShimSetting": [-1149, -1328, 629, 675, -75, -93, 97, 42],
  "SliceThickness": 2,
  "SliceTiming": [1.075, 0, 0.74, 0.0675, 0.8075, 0.135, 0.875, 0.2025, 0.9425, 0.27, 1.01, 0.4025, 1.1425, 0.47, 1.21, 0.5375, 1.2775, 0.605, 1.345, 0.6725, 1.4125, 0.335, 1.075, 0, 0.74, 0.0675, 0.8075, 0.135, 0.875, 0.2025, 0.9425, 0.27, 1.01, 0.4025, 1.1425, 0.47, 1.21, 0.5375, 1.2775, 0.605, 1.345, 0.6725, 1.4125, 0.335, 1.075, 0, 0.74, 0.0675, 0.8075, 0.135, 0.875, 0.2025, 0.9425, 0.27, 1.01, 0.4025, 1.1425, 0.47, 1.21, 0.5375, 1.2775, 0.605, 1.345, 0.6725, 1.4125, 0.335],
  "SoftwareVersions": "syngo MR E11",
  "SpacingBetweenSlices": 2,
  "StationName": "AWP166011",
  "TaskName": "langLoc",
  "TotalReadoutTime": 0.0551515,
  "TxRefAmp": 228.524,
  "dcmmeta_affine": [
    [-1.9997309446334839, 0.006631380878388882, -0.03212849795818329, 96.48507690429688],
    [0.012331300415098667, 1.9670149087905884, -0.3615250587463379, -54.946258544921875],
    [-0.03039991296827793, 0.3616745173931122, 1.9667911529541016, -87.13145446777344],
    [0.0, 0.0, 0.0, 1.0]
],
  "dcmmeta_reorient_transform": [
    [0.0, -1.0, 0.0, 95.0],
    [1.0, 0.0, 0.0, 0.0],
    [0.0, 0.0, 1.0, 0.0],
    [0.0, 0.0, 0.0, 1.0]
],
  "dcmmeta_shape": [96, 96, 66, 239],
  "dcmmeta_slice_dim": 2,
  "dcmmeta_version": 0.6,
  "global": {
    "const": {
      "AcquisitionMatrix": [96, 0, 0, 72],
      "AngioFlag": "N",
      "BitsAllocated": 16,
      "BitsStored": 12,
      "BodyPartExamined": "BRAIN",
      "Columns": 864,
      "EchoNumbers": 1,
      "EchoTime": 30.0,
      "EchoTrainLength": 58,
      "FlipAngle": 62.0,
      "HighBit": 11,
      "ImageOrientationPatient": [0.99986546398525, -0.0061656501989, -0.0151999568156, 0.00331569048546, 0.98350744452399, -0.1808372549076],
      "ImagePositionPatient": [-867.55818737456, -882.51865484035, 97.784201465923],
      "ImageType": [
        "ORIGINAL",
        "PRIMARY",
        "M",
        "ND",
        "MOSAIC"
],
      "ImagedNucleus": "1H",
      "ImagingFrequency": 123.259499,
      "InPlanePhaseEncodingDirection": "COL",
      "MRAcquisitionType": "2D",
      "MagneticFieldStrength": 3.0,
      "Manufacturer": "SIEMENS",
      "ManufacturerModelName": "Prisma",
      "Modality": "MR",
      "NumberOfAverages": 1.0,
      "NumberOfPhaseEncodingSteps": 58,
      "PercentPhaseFieldOfView": 100.0,
      "PercentSampling": 75.0,
      "PerformedProcedureStepStartTime": "164451.895000",
      "PhotometricInterpretation": "MONOCHROME2",
      "PixelBandwidth": 2265.0,
      "PixelRepresentation": 0,
      "PixelSpacing": [2.0, 2.0],
      "ProtocolName": "func_language_run3",
      "RepetitionTime": 1500.0,
      "Rows": 864,
      "SAR": 0.04968616938691,
      "SamplesPerPixel": 1,
      "ScanOptions": [
        "PFP",
        "FS"
],
      "ScanningSequence": "EP",
      "SequenceName": "*epfid2d1_72",
      "SequenceVariant": [
        "SK",
        "OSP"
],
      "SeriesDescription": "func_language_run3",
      "SeriesNumber": 13,
      "SeriesTime": "174513.143000",
      "SliceLocation": -77.302423505315,
      "SliceThickness": 2.0,
      "SmallestImagePixelValue": 0,
      "SoftwareVersions": "syngo MR E11",
      "SpacingBetweenSlices": 1.9999999898506,
      "SpecificCharacterSet": "ISO_IR 100",
      "StudyID": "1",
      "StudyTime": "164451.814000",
      "TransmitCoilName": "Body",
      "VariableFlipAngleFlag": "N",
      "WindowCenterWidthExplanation": "Algo1",
      "dBdt": 0.0},
    "slices": {}
  },
  "time": {
    "samples": {
      "AcquisitionNumber": [1, 2, 3, 4, 5, 6, 7, 8, 9, 10, 11, 12, 13, 14, 15, 16, 17, 18, 19, 20, 21, 22, 23, 24, 25, 26, 27, 28, 29, 30, 31, 32, 33, 34, 35, 36, 37, 38, 39, 40, 41, 42, 43, 44, 45, 46, 47, 48, 49, 50, 51, 52, 53, 54, 55, 56, 57, 58, 59, 60, 61, 62, 63, 64, 65, 66, 67, 68, 69, 70, 71, 72, 73, 74, 75, 76, 77, 78, 79, 80, 81, 82, 83, 84, 85, 86, 87, 88, 89, 90, 91, 92, 93, 94, 95, 96, 97, 98, 99, 100, 101, 102, 103, 104, 105, 106, 107, 108, 109, 110, 111, 112, 113, 114, 115, 116, 117, 118, 119, 120, 121, 122, 123, 124, 125, 126, 127, 128, 129, 130, 131, 132, 133, 134, 135, 136, 137, 138, 139, 140, 141, 142, 143, 144, 145, 146, 147, 148, 149, 150, 151, 152, 153, 154, 155, 156, 157, 158, 159, 160, 161, 162, 163, 164, 165, 166, 167, 168, 169, 170, 171, 172, 173, 174, 175, 176, 177, 178, 179, 180, 181, 182, 183, 184, 185, 186, 187, 188, 189, 190, 191, 192, 193, 194, 195, 196, 197, 198, 199, 200, 201, 202, 203, 204, 205, 206, 207, 208, 209, 210, 211, 212, 213, 214, 215, 216, 217, 218, 219, 220, 221, 222, 223, 224, 225, 226, 227, 228, 229, 230, 231, 232, 233, 234, 235, 236, 237, 238, 239],
      "AcquisitionTime": ["174438.145000", "174439.645000", "174441.145000", "174442.645000", "174444.145000", "174445.645000", "174447.145000", "174448.645000", "174450.145000", "174451.645000", "174453.145000", "174454.645000", "174456.145000", "174457.645000", "174459.145000", "174500.645000", "174502.145000", "174503.645000", "174505.145000", "174506.645000", "174508.145000", "174509.645000", "174511.145000", "174512.645000", "174514.145000", "174515.645000", "174517.145000", "174518.645000", "174520.145000", "174521.645000", "174523.145000", "174524.645000", "174526.145000", "174527.645000", "174529.145000", "174530.645000", "174532.145000", "174533.645000", "174535.145000", "174536.645000", "174538.145000", "174539.645000", "174541.145000", "174542.645000", "174544.145000", "174545.645000", "174547.145000", "174548.645000", "174550.145000", "174551.645000", "174553.145000", "174554.645000", "174556.145000", "174557.645000", "174559.145000", "174600.645000", "174602.145000", "174603.645000", "174605.145000", "174606.645000", "174608.145000", "174609.645000", "174611.145000", "174612.645000", "174614.145000", "174615.645000", "174617.145000", "174618.645000", "174620.145000", "174621.645000", "174623.145000", "174624.645000", "174626.145000", "174627.645000", "174629.145000", "174630.645000", "174632.145000", "174633.645000", "174635.145000", "174636.645000", "174638.145000", "174639.645000", "174641.145000", "174642.645000", "174644.145000", "174645.645000", "174647.145000", "174648.645000", "174650.145000", "174651.645000", "174653.145000", "174654.645000", "174656.145000", "174657.645000", "174659.145000", "174700.645000", "174702.145000", "174703.645000", "174705.145000", "174706.645000", "174708.145000", "174709.645000", "174711.145000", "174712.645000", "174714.145000", "174715.645000", "174717.145000", "174718.645000", "174720.145000", "174721.645000", "174723.145000", "174724.645000", "174726.145000", "174727.645000", "174729.145000", "174730.645000", "174732.145000", "174733.645000", "174735.145000", "174736.645000", "174738.145000", "174739.645000", "174741.145000", "174742.645000", "174744.145000", "174745.645000", "174747.145000", "174748.645000", "174750.145000", "174751.645000", "174753.145000", "174754.645000", "174756.145000", "174757.645000", "174759.145000", "174800.645000", "174802.145000", "174803.645000", "174805.145000", "174806.645000", "174808.145000", "174809.645000", "174811.145000", "174812.645000", "174814.145000", "174815.645000", "174817.145000", "174818.645000", "174820.145000", "174821.645000", "174823.145000", "174824.645000", "174826.145000", "174827.645000", "174829.145000", "174830.645000", "174832.145000", "174833.645000", "174835.145000", "174836.645000", "174838.145000", "174839.645000", "174841.145000", "174842.645000", "174844.145000", "174845.645000", "174847.145000", "174848.645000", "174850.145000", "174851.645000", "174853.145000", "174854.645000", "174856.145000", "174857.645000", "174859.145000", "174900.645000", "174902.145000", "174903.645000", "174905.145000", "174906.645000", "174908.145000", "174909.645000", "174911.145000", "174912.645000", "174914.145000", "174915.645000", "174917.145000", "174918.645000", "174920.145000", "174921.645000", "174923.145000", "174924.645000", "174926.145000", "174927.645000", "174929.145000", "174930.645000", "174932.145000", "174933.645000", "174935.145000", "174936.645000", "174938.145000", "174939.645000", "174941.145000", "174942.645000", "174944.145000", "174945.645000", "174947.145000", "174948.645000", "174950.145000", "174951.645000", "174953.145000", "174954.645000", "174956.145000", "174957.645000", "174959.145000", "175000.645000", "175002.145000", "175003.645000", "175005.145000", "175006.645000", "175008.145000", "175009.645000", "175011.145000", "175012.645000", "175014.145000", "175015.645000", "175017.145000", "175018.645000", "175020.145000", "175021.645000", "175023.145000", "175024.645000", "175026.145000", "175027.645000", "175029.145000", "175030.645000", "175032.145000", "175033.645000", "175035.145000"],
      "ContentTime": ["174513.147000", "174513.151000", "174513.154000", "174513.157000", "174513.161000", "174513.164000", "174513.167000", "174513.170000", "174513.173000", "174513.176000", "174513.179000", "174513.182000", "174513.185000", "174513.189000", "174513.192000", "174513.195000", "174513.207000", "174513.210000", "174513.213000", "174513.216000", "174513.219000", "174513.222000", "174513.225000", "174553.142000", "174553.145000", "174553.149000", "174553.152000", "174553.155000", "174553.158000", "174553.161000", "174553.164000", "174553.167000", "174553.170000", "174553.173000", "174553.176000", "174553.180000", "174553.183000", "174553.186000", "174553.189000", "174553.192000", "174553.195000", "174553.198000", "174553.201000", "174553.204000", "174553.207000", "174553.210000", "174553.213000", "174553.216000", "174553.219000", "174633.155000", "174633.158000", "174633.161000", "174633.164000", "174633.167000", "174633.171000", "174633.174000", "174633.177000", "174633.184000", "174633.187000", "174633.190000", "174633.194000", "174633.196000", "174633.200000", "174633.203000", "174633.206000", "174633.209000", "174633.212000", "174633.215000", "174633.223000", "174633.226000", "174633.229000", "174633.232000", "174633.235000", "174633.238000", "174633.242000", "174633.245000", "174713.141000", "174713.144000", "174713.147000", "174713.150000", "174713.153000", "174713.157000", "174713.160000", "174713.163000", "174713.166000", "174713.169000", "174713.172000", "174713.175000", "174713.178000", "174713.181000", "174713.184000", "174713.187000", "174713.190000", "174713.193000", "174713.196000", "174713.199000", "174713.202000", "174713.205000", "174713.208000", "174713.211000", "174713.214000", "174713.217000", "174713.220000", "174753.142000", "174753.146000", "174753.150000", "174753.153000", "174753.156000", "174753.159000", "174753.163000", "174753.166000", "174753.169000", "174753.172000", "174753.175000", "174753.178000", "174753.181000", "174753.184000", "174753.187000", "174753.191000", "174753.194000", "174753.197000", "174753.200000", "174753.203000", "174753.206000", "174753.209000", "174753.212000", "174753.215000", "174753.221000", "174753.224000", "174833.142000", "174833.146000", "174833.149000", "174833.152000", "174833.155000", "174833.158000", "174833.161000", "174833.164000", "174833.167000", "174833.170000", "174833.173000", "174833.176000", "174833.179000", "174833.183000", "174833.186000", "174833.189000", "174833.192000", "174833.195000", "174833.198000", "174833.201000", "174833.204000", "174833.207000", "174833.210000", "174833.213000", "174833.216000", "174833.220000", "174833.223000", "174913.141000", "174913.144000", "174913.147000", "174913.150000", "174913.154000", "174913.157000", "174913.160000", "174913.163000", "174913.166000", "174913.169000", "174913.172000", "174913.175000", "174913.179000", "174913.182000", "174913.185000", "174913.188000", "174913.191000", "174913.194000", "174913.197000", "174913.200000", "174913.203000", "174913.206000", "174913.209000", "174913.212000", "174913.216000", "174913.219000", "174913.222000", "174953.142000", "174953.146000", "174953.149000", "174953.152000", "174953.155000", "174953.158000", "174953.161000", "174953.164000", "174953.168000", "174953.171000", "174953.174000", "174953.177000", "174953.180000", "174953.183000", "174953.186000", "174953.189000", "174953.192000", "174953.195000", "174953.198000", "174953.202000", "174953.205000", "174953.208000", "174953.211000", "174953.214000", "174953.217000", "174953.220000", "175033.142000", "175033.146000", "175033.149000", "175033.152000", "175033.155000", "175033.158000", "175033.161000", "175033.164000", "175033.167000", "175033.170000", "175033.173000", "175033.176000", "175033.179000", "175033.183000", "175033.186000", "175033.189000", "175033.192000", "175033.195000", "175033.198000", "175033.201000", "175033.204000", "175033.207000", "175033.210000", "175033.213000", "175033.216000", "175033.220000", "175033.223000", "175036.643000", "175036.647000", "175036.650000"],
      "InstanceCreationTime": ["174513.147000", "174513.151000", "174513.154000", "174513.157000", "174513.161000", "174513.164000", "174513.167000", "174513.170000", "174513.173000", "174513.176000", "174513.179000", "174513.182000", "174513.185000", "174513.189000", "174513.192000", "174513.195000", "174513.207000", "174513.210000", "174513.213000", "174513.216000", "174513.219000", "174513.222000", "174513.225000", "174553.142000", "174553.145000", "174553.149000", "174553.152000", "174553.155000", "174553.158000", "174553.161000", "174553.164000", "174553.167000", "174553.170000", "174553.173000", "174553.176000", "174553.180000", "174553.183000", "174553.186000", "174553.189000", "174553.192000", "174553.195000", "174553.198000", "174553.201000", "174553.204000", "174553.207000", "174553.210000", "174553.213000", "174553.216000", "174553.219000", "174633.155000", "174633.158000", "174633.161000", "174633.164000", "174633.167000", "174633.171000", "174633.174000", "174633.177000", "174633.184000", "174633.187000", "174633.190000", "174633.194000", "174633.196000", "174633.200000", "174633.203000", "174633.206000", "174633.209000", "174633.212000", "174633.215000", "174633.223000", "174633.226000", "174633.229000", "174633.232000", "174633.235000", "174633.238000", "174633.242000", "174633.245000", "174713.141000", "174713.144000", "174713.147000", "174713.150000", "174713.153000", "174713.157000", "174713.160000", "174713.163000", "174713.166000", "174713.169000", "174713.172000", "174713.175000", "174713.178000", "174713.181000", "174713.184000", "174713.187000", "174713.190000", "174713.193000", "174713.196000", "174713.199000", "174713.202000", "174713.205000", "174713.208000", "174713.211000", "174713.214000", "174713.217000", "174713.220000", "174753.142000", "174753.146000", "174753.150000", "174753.153000", "174753.156000", "174753.159000", "174753.163000", "174753.166000", "174753.169000", "174753.172000", "174753.175000", "174753.178000", "174753.181000", "174753.184000", "174753.187000", "174753.191000", "174753.194000", "174753.197000", "174753.200000", "174753.203000", "174753.206000", "174753.209000", "174753.212000", "174753.215000", "174753.221000", "174753.224000", "174833.142000", "174833.146000", "174833.149000", "174833.152000", "174833.155000", "174833.158000", "174833.161000", "174833.164000", "174833.167000", "174833.170000", "174833.173000", "174833.176000", "174833.179000", "174833.183000", "174833.186000", "174833.189000", "174833.192000", "174833.195000", "174833.198000", "174833.201000", "174833.204000", "174833.207000", "174833.210000", "174833.213000", "174833.216000", "174833.220000", "174833.223000", "174913.141000", "174913.144000", "174913.147000", "174913.150000", "174913.154000", "174913.157000", "174913.160000", "174913.163000", "174913.166000", "174913.169000", "174913.172000", "174913.175000", "174913.179000", "174913.182000", "174913.185000", "174913.188000", "174913.191000", "174913.194000", "174913.197000", "174913.200000", "174913.203000", "174913.206000", "174913.209000", "174913.212000", "174913.216000", "174913.219000", "174913.222000", "174953.142000", "174953.146000", "174953.149000", "174953.152000", "174953.155000", "174953.158000", "174953.161000", "174953.164000", "174953.168000", "174953.171000", "174953.174000", "174953.177000", "174953.180000", "174953.183000", "174953.186000", "174953.189000", "174953.192000", "174953.195000", "174953.198000", "174953.202000", "174953.205000", "174953.208000", "174953.211000", "174953.214000", "174953.217000", "174953.220000", "175033.142000", "175033.146000", "175033.149000", "175033.152000", "175033.155000", "175033.158000", "175033.161000", "175033.164000", "175033.167000", "175033.170000", "175033.173000", "175033.176000", "175033.179000", "175033.183000", "175033.186000", "175033.189000", "175033.192000", "175033.195000", "175033.198000", "175033.201000", "175033.204000", "175033.207000", "175033.210000", "175033.213000", "175033.216000", "175033.220000", "175033.223000", "175036.643000", "175036.647000", "175036.650000"],
      "InstanceNumber": [1, 2, 3, 4, 5, 6, 7, 8, 9, 10, 11, 12, 13, 14, 15, 16, 17, 18, 19, 20, 21, 22, 23, 24, 25, 26, 27, 28, 29, 30, 31, 32, 33, 34, 35, 36, 37, 38, 39, 40, 41, 42, 43, 44, 45, 46, 47, 48, 49, 50, 51, 52, 53, 54, 55, 56, 57, 58, 59, 60, 61, 62, 63, 64, 65, 66, 67, 68, 69, 70, 71, 72, 73, 74, 75, 76, 77, 78, 79, 80, 81, 82, 83, 84, 85, 86, 87, 88, 89, 90, 91, 92, 93, 94, 95, 96, 97, 98, 99, 100, 101, 102, 103, 104, 105, 106, 107, 108, 109, 110, 111, 112, 113, 114, 115, 116, 117, 118, 119, 120, 121, 122, 123, 124, 125, 126, 127, 128, 129, 130, 131, 132, 133, 134, 135, 136, 137, 138, 139, 140, 141, 142, 143, 144, 145, 146, 147, 148, 149, 150, 151, 152, 153, 154, 155, 156, 157, 158, 159, 160, 161, 162, 163, 164, 165, 166, 167, 168, 169, 170, 171, 172, 173, 174, 175, 176, 177, 178, 179, 180, 181, 182, 183, 184, 185, 186, 187, 188, 189, 190, 191, 192, 193, 194, 195, 196, 197, 198, 199, 200, 201, 202, 203, 204, 205, 206, 207, 208, 209, 210, 211, 212, 213, 214, 215, 216, 217, 218, 219, 220, 221, 222, 223, 224, 225, 226, 227, 228, 229, 230, 231, 232, 233, 234, 235, 236, 237, 238, 239],
      "LargestImagePixelValue": [3827, 3696, 3688, 3692, 3672, 3687, 3721, 3667, 3620, 3639, 3659, 3721, 3644, 3705, 3682, 3701, 3690, 3701, 3667, 3732, 3691, 3682, 3664, 3672, 3699, 3684, 3652, 3699, 3692, 3771, 3696, 3730, 3735, 3726, 3766, 3739, 3728, 3711, 3745, 3727, 3803, 3797, 3804, 3760, 3758, 3730, 3716, 3695, 3757, 3789, 3800, 3587, 3913, 3789, 3759, 3740, 3739, 3768, 3786, 3771, 3801, 3777, 3803, 3821, 3849, 3803, 3881, 3783, 3815, 3849, 3816, 3823, 3825, 3818, 3770, 3787, 3797, 3805, 3799, 3788, 3744, 3737, 3774, 3773, 3801, 3781, 3811, 3809, 3803, 3846, 3833, 3873, 3879, 3899, 3874, 3847, 3849, 3831, 3830, 3874, 3871, 3858, 3872, 3818, 3836, 3532, 3671, 3613, 3650, 3680, 3743, 3718, 3731, 3634, 3809, 3709, 3792, 3613, 3815, 3734, 3791, 3814, 3785, 3811, 3815, 3803, 3647, 3681, 3586, 3678, 3551, 3692, 3607, 3722, 3746, 3669, 3516, 3543, 3536, 3554, 3602, 3454, 2979, 4095, 3858, 3745, 3678, 3621, 3649, 3576, 3594, 3592, 3599, 3549, 3573, 3534, 3570, 3543, 3588, 3535, 3868, 3771, 3518, 3320, 3735, 3727, 3583, 3546, 3570, 3521, 3597, 3478, 3621, 3419, 3518, 3424, 3547, 3560, 3524, 3402, 3438, 3411, 3425, 3414, 3434, 3464, 3495, 3615, 3509, 3616, 3623, 3507, 3578, 3556, 3554, 3577, 3503, 3581, 3557, 3638, 3639, 3642, 3506, 3550, 3530, 3503, 3438, 3423, 3530, 3403, 3529, 3397, 3559, 3406, 3595, 3361, 3512, 3373, 3759, 3819, 3441, 3545, 3608, 3624, 3566, 3569, 3620, 3509, 3605, 3512, 3582, 3542, 3618, 3526, 3713, 3589, 3465, 3541, 3583],
      "WindowCenter": [697.0, 693.0, 694.0, 694.0, 695.0, 694.0, 694.0, 692.0, 691.0, 692.0, 692.0, 693.0, 694.0, 694.0, 692.0, 692.0, 692.0, 692.0, 693.0, 694.0, 693.0, 692.0, 692.0, 693.0, 693.0, 692.0, 690.0, 692.0, 693.0, 692.0, 692.0, 694.0, 693.0, 691.0, 692.0, 693.0, 692.0, 691.0, 690.0, 692.0, 692.0, 692.0, 691.0, 690.0, 688.0, 688.0, 690.0, 690.0, 691.0, 690.0, 690.0, 686.0, 692.0, 691.0, 691.0, 691.0, 690.0, 689.0, 690.0, 689.0, 690.0, 691.0, 690.0, 691.0, 691.0, 693.0, 695.0, 695.0, 695.0, 694.0, 693.0, 692.0, 692.0, 693.0, 692.0, 692.0, 693.0, 692.0, 691.0, 690.0, 690.0, 691.0, 692.0, 690.0, 690.0, 690.0, 689.0, 690.0, 690.0, 690.0, 690.0, 689.0, 690.0, 692.0, 692.0, 691.0, 689.0, 687.0, 689.0, 690.0, 689.0, 688.0, 689.0, 688.0, 691.0, 690.0, 690.0, 689.0, 689.0, 690.0, 692.0, 692.0, 689.0, 687.0, 690.0, 689.0, 689.0, 687.0, 687.0, 687.0, 690.0, 691.0, 690.0, 689.0, 689.0, 689.0, 687.0, 688.0, 687.0, 688.0, 687.0, 688.0, 687.0, 688.0, 687.0, 684.0, 689.0, 689.0, 687.0, 686.0, 686.0, 676.0, 661.0, 691.0, 686.0, 684.0, 683.0, 682.0, 682.0, 682.0, 683.0, 684.0, 685.0, 685.0, 685.0, 684.0, 683.0, 684.0, 686.0, 679.0, 685.0, 683.0, 680.0, 676.0, 691.0, 688.0, 685.0, 684.0, 684.0, 684.0, 686.0, 685.0, 686.0, 686.0, 688.0, 687.0, 688.0, 687.0, 687.0, 686.0, 686.0, 686.0, 684.0, 685.0, 686.0, 687.0, 686.0, 687.0, 686.0, 686.0, 683.0, 685.0, 685.0, 684.0, 682.0, 683.0, 684.0, 685.0, 683.0, 684.0, 685.0, 685.0, 684.0, 684.0, 683.0, 682.0, 682.0, 683.0, 684.0, 681.0, 681.0, 683.0, 685.0, 683.0, 684.0, 682.0, 684.0, 683.0, 686.0, 683.0, 680.0, 682.0, 682.0, 682.0, 681.0, 680.0, 681.0, 682.0, 684.0, 685.0, 683.0, 681.0, 681.0, 679.0, 678.0, 692.0, 691.0, 691.0, 690.0],
      "WindowWidth": [1529.0, 1519.0, 1519.0, 1520.0, 1521.0, 1520.0, 1517.0, 1514.0, 1511.0, 1512.0, 1513.0, 1516.0, 1519.0, 1520.0, 1515.0, 1515.0, 1514.0, 1515.0, 1515.0, 1518.0, 1517.0, 1513.0, 1514.0, 1516.0, 1516.0, 1512.0, 1509.0, 1515.0, 1515.0, 1515.0, 1514.0, 1519.0, 1515.0, 1512.0, 1512.0, 1518.0, 1514.0, 1512.0, 1508.0, 1513.0, 1513.0, 1513.0, 1511.0, 1508.0, 1504.0, 1504.0, 1507.0, 1509.0, 1510.0, 1508.0, 1507.0, 1498.0, 1513.0, 1510.0, 1509.0, 1510.0, 1508.0, 1504.0, 1506.0, 1505.0, 1508.0, 1510.0, 1509.0, 1510.0, 1512.0, 1516.0, 1522.0, 1521.0, 1523.0, 1520.0, 1516.0, 1512.0, 1513.0, 1516.0, 1514.0, 1513.0, 1517.0, 1514.0, 1512.0, 1508.0, 1509.0, 1512.0, 1515.0, 1509.0, 1509.0, 1507.0, 1505.0, 1507.0, 1507.0, 1508.0, 1508.0, 1505.0, 1508.0, 1515.0, 1514.0, 1509.0, 1504.0, 1501.0, 1506.0, 1508.0, 1505.0, 1503.0, 1504.0, 1504.0, 1509.0, 1507.0, 1508.0, 1504.0, 1506.0, 1510.0, 1513.0, 1513.0, 1506.0, 1501.0, 1508.0, 1506.0, 1505.0, 1499.0, 1499.0, 1500.0, 1507.0, 1509.0, 1507.0, 1505.0, 1505.0, 1504.0, 1500.0, 1503.0, 1500.0, 1501.0, 1500.0, 1501.0, 1501.0, 1503.0, 1501.0, 1493.0, 1504.0, 1503.0, 1500.0, 1496.0, 1496.0, 1470.0, 1431.0, 1514.0, 1496.0, 1492.0, 1488.0, 1486.0, 1485.0, 1485.0, 1488.0, 1491.0, 1493.0, 1494.0, 1494.0, 1491.0, 1489.0, 1492.0, 1497.0, 1481.0, 1493.0, 1489.0, 1481.0, 1472.0, 1510.0, 1500.0, 1493.0, 1489.0, 1489.0, 1489.0, 1495.0, 1494.0, 1495.0, 1495.0, 1500.0, 1500.0, 1503.0, 1500.0, 1498.0, 1496.0, 1497.0, 1497.0, 1490.0, 1493.0, 1496.0, 1498.0, 1498.0, 1498.0, 1496.0, 1497.0, 1488.0, 1496.0, 1494.0, 1490.0, 1486.0, 1488.0, 1491.0, 1493.0, 1489.0, 1490.0, 1492.0, 1493.0, 1490.0, 1490.0, 1488.0, 1486.0, 1486.0, 1489.0, 1490.0, 1483.0, 1484.0, 1489.0, 1493.0, 1490.0, 1490.0, 1487.0, 1491.0, 1490.0, 1496.0, 1487.0, 1481.0, 1487.0, 1486.0, 1487.0, 1484.0, 1480.0, 1482.0, 1487.0, 1491.0, 1493.0, 1489.0, 1484.0, 1484.0, 1480.0, 1475.0, 1513.0, 1509.0, 1510.0, 1507.0]
    },
    "slices": {}
  }
}