{
  "AcquisitionMatrixPE": 72,
  "AcquisitionNumber": 1,
  "AcquisitionTime": "13:08:53.102500",
  "BandwidthPerPixelPhaseEncode": 17.943,
  "BaseResolution": 96,
  "BodyPartExamined": "BRAIN",
  "CoilCombinationMethod": "Sum of Squares",
  "ConsistencyInfo": "N4_VE11C_LATEST_20160120",
  "ConversionSoftware": "dcm2niix",
  "ConversionSoftwareVersion": "v1.0.20211006",
  "DerivedVendorReportedEchoSpacing": 0.000552897,
  "DeviceSerialNumber": "166011",
  "EchoTime": 0.03,
  "EchoTrainLength": 58,
  "EffectiveEchoSpacing": 0.000580542,
  "FlipAngle": 62,
  "ImageOrientationPatientDICOM": [0.994749, 0.0986865, 0.0271215, -0.0936811, 0.984692, -0.146991],
  "ImageType": [
    "ORIGINAL",
    "PRIMARY",
    "M",
    "ND",
    "MOSAIC"
],
  "ImagingFrequency": 123.26,
  "InPlanePhaseEncodingDirectionDICOM": "COL",
  "InstitutionAddress": "West 130th Street 610,NY,NYC,US,10025",
  "InstitutionName": "MBBI",
  "MRAcquisitionType": "2D",
  "MagneticFieldStrength": 3,
  "Manufacturer": "Siemens",
  "ManufacturersModelName": "Prisma",
  "Modality": "MR",
  "MultibandAccelerationFactor": 3,
  "PartialFourier": 0.75,
  "PatientPosition": "HFS",
  "PercentPhaseFOV": 100,
  "PercentSampling": 75,
  "PhaseEncodingDirection": "j-",
  "PhaseEncodingSteps": 58,
  "PhaseOversampling": 0.05,
  "PhaseResolution": 0.75,
  "PixelBandwidth": 2265,
  "ProcedureStepDescription": "White^Word_recognition",
  "ProtocolName": "func_vwfate_run2",
  "PulseSequenceDetails": "%SiemensSeq%\\ep2d_bold",
  "ReceiveCoilActiveElements": "HC1-6",
  "ReceiveCoilName": "HeadNeck_64",
  "ReconMatrixPE": 96,
  "RefLinesPE": 40,
  "RepetitionTime": 1.5,
  "SAR": 0.0498996,
  "ScanOptions": "PFP\\FS",
  "ScanningSequence": "EP",
  "SequenceName": "*epfid2d1_72",
  "SequenceVariant": "SK\\OSP",
  "SeriesDescription": "func_vwfate_run2",
  "SeriesNumber": 9,
  "ShimSetting": [-1135, -1347, 688, 504, -52, -22, -41, 24],
  "SliceThickness": 2,
  "SliceTiming": [1.0775, 0, 0.74, 0.0675, 0.8075, 0.135, 0.875, 0.2025, 0.9425, 0.27, 1.01, 0.4025, 1.1425, 0.47, 1.21, 0.5375, 1.2775, 0.605, 1.345, 0.6725, 1.4125, 0.3375, 1.0775, 0, 0.74, 0.0675, 0.8075, 0.135, 0.875, 0.2025, 0.9425, 0.27, 1.01, 0.4025, 1.1425, 0.47, 1.21, 0.5375, 1.2775, 0.605, 1.345, 0.6725, 1.4125, 0.3375, 1.0775, 0, 0.74, 0.0675, 0.8075, 0.135, 0.875, 0.2025, 0.9425, 0.27, 1.01, 0.4025, 1.1425, 0.47, 1.21, 0.5375, 1.2775, 0.605, 1.345, 0.6725, 1.4125, 0.3375],
  "SoftwareVersions": "syngo MR E11",
  "SpacingBetweenSlices": 2,
  "StationName": "AWP166011",
  "TaskName": "vwfate",
  "TotalReadoutTime": 0.0551515,
  "TxRefAmp": 229.498,
  "dcmmeta_affine": [
    [-1.9894977807998657, -0.18736223876476288, 0.0824245885014534, 104.39629364013672],
    [-0.19737307727336884, 1.9693831205368042, -0.2873566746711731, -53.30393600463867],
    [0.054242901504039764, 0.2939819097518921, 1.977531909942627, -83.53926849365234],
    [0.0, 0.0, 0.0, 1.0]
],
  "dcmmeta_reorient_transform": [
    [0.0, -1.0, 0.0, 95.0],
    [1.0, 0.0, 0.0, 0.0],
    [0.0, 0.0, 1.0, 0.0],
    [0.0, 0.0, 0.0, 1.0]
],
  "dcmmeta_shape": [96, 96, 66, 164],
  "dcmmeta_slice_dim": 2,
  "dcmmeta_version": 0.6,
  "global": {
    "const": {
      "AcquisitionMatrix": [96, 0, 0, 72],
      "AngioFlag": "N",
      "BitsAllocated": 16,
      "BitsStored": 12,
      "BodyPartExamined": "BRAIN",
      "Columns": 864,
      "EchoNumbers": 1,
      "EchoTime": 30.0,
      "EchoTrainLength": 58,
      "FlipAngle": 62.0,
      "HighBit": 11,
      "ImageOrientationPatient": [0.99474891008466, 0.09868653785456, 0.02712145150366, -0.0936811227491, 0.98469157928622, -0.1469909552431],
      "ImagePositionPatient": [-778.61694121585, -965.82185818766, 36.448789621998],
      "ImageType": [
        "ORIGINAL",
        "PRIMARY",
        "M",
        "ND",
        "MOSAIC"
],
      "ImagedNucleus": "1H",
      "ImagingFrequency": 123.259527,
      "InPlanePhaseEncodingDirection": "COL",
      "MRAcquisitionType": "2D",
      "MagneticFieldStrength": 3.0,
      "Manufacturer": "SIEMENS",
      "ManufacturerModelName": "Prisma",
      "Modality": "MR",
      "NumberOfAverages": 1.0,
      "NumberOfPhaseEncodingSteps": 58,
      "PercentPhaseFieldOfView": 100.0,
      "PercentSampling": 75.0,
      "PerformedProcedureStepStartTime": "123537.862000",
      "PhotometricInterpretation": "MONOCHROME2",
      "PixelBandwidth": 2265.0,
      "PixelRepresentation": 0,
      "PixelSpacing": [2.0, 2.0],
      "ProtocolName": "func_vwfate_run2",
      "RepetitionTime": 1500.0,
      "Rows": 864,
      "SAR": 0.049899584756,
      "SamplesPerPixel": 1,
      "ScanOptions": [
        "PFP",
        "FS"
],
      "ScanningSequence": "EP",
      "SequenceName": "*epfid2d1_72",
      "SequenceVariant": [
        "SK",
        "OSP"
],
      "SeriesDescription": "func_vwfate_run2",
      "SeriesNumber": 9,
      "SeriesTime": "130924.802000",
      "SliceLocation": -70.639754762658,
      "SliceThickness": 2.0,
      "SmallestImagePixelValue": 0,
      "SoftwareVersions": "syngo MR E11",
      "SpacingBetweenSlices": 2.0000000791337,
      "SpecificCharacterSet": "ISO_IR 100",
      "StudyID": "1",
      "StudyTime": "123537.780000",
      "TransmitCoilName": "Body",
      "VariableFlipAngleFlag": "N",
      "WindowCenterWidthExplanation": "Algo1",
      "dBdt": 0.0},
    "slices": {}
  },
  "time": {
    "samples": {
      "AcquisitionNumber": [1, 2, 3, 4, 5, 6, 7, 8, 9, 10, 11, 12, 13, 14, 15, 16, 17, 18, 19, 20, 21, 22, 23, 24, 25, 26, 27, 28, 29, 30, 31, 32, 33, 34, 35, 36, 37, 38, 39, 40, 41, 42, 43, 44, 45, 46, 47, 48, 49, 50, 51, 52, 53, 54, 55, 56, 57, 58, 59, 60, 61, 62, 63, 64, 65, 66, 67, 68, 69, 70, 71, 72, 73, 74, 75, 76, 77, 78, 79, 80, 81, 82, 83, 84, 85, 86, 87, 88, 89, 90, 91, 92, 93, 94, 95, 96, 97, 98, 99, 100, 101, 102, 103, 104, 105, 106, 107, 108, 109, 110, 111, 112, 113, 114, 115, 116, 117, 118, 119, 120, 121, 122, 123, 124, 125, 126, 127, 128, 129, 130, 131, 132, 133, 134, 135, 136, 137, 138, 139, 140, 141, 142, 143, 144, 145, 146, 147, 148, 149, 150, 151, 152, 153, 154, 155, 156, 157, 158, 159, 160, 161, 162, 163, 164],
      "AcquisitionTime": ["130853.102500", "130854.602500", "130856.102500", "130857.602500", "130859.102500", "130900.602500", "130902.102500", "130903.602500", "130905.102500", "130906.602500", "130908.102500", "130909.602500", "130911.102500", "130912.602500", "130914.102500", "130915.602500", "130917.102500", "130918.602500", "130920.102500", "130921.602500", "130923.102500", "130924.602500", "130926.102500", "130927.602500", "130929.102500", "130930.602500", "130932.102500", "130933.602500", "130935.102500", "130936.602500", "130938.102500", "130939.602500", "130941.102500", "130942.602500", "130944.102500", "130945.602500", "130947.102500", "130948.602500", "130950.102500", "130951.602500", "130953.102500", "130954.602500", "130956.102500", "130957.602500", "130959.102500", "131000.602500", "131002.102500", "131003.602500", "131005.102500", "131006.602500", "131008.102500", "131009.602500", "131011.102500", "131012.602500", "131014.102500", "131015.602500", "131017.102500", "131018.602500", "131020.102500", "131021.602500", "131023.102500", "131024.602500", "131026.102500", "131027.602500", "131029.102500", "131030.602500", "131032.102500", "131033.602500", "131035.102500", "131036.602500", "131038.102500", "131039.602500", "131041.102500", "131042.602500", "131044.102500", "131045.602500", "131047.102500", "131048.602500", "131050.102500", "131051.602500", "131053.102500", "131054.602500", "131056.102500", "131057.602500", "131059.102500", "131100.602500", "131102.102500", "131103.602500", "131105.102500", "131106.602500", "131108.102500", "131109.602500", "131111.102500", "131112.602500", "131114.102500", "131115.602500", "131117.102500", "131118.602500", "131120.102500", "131121.602500", "131123.102500", "131124.602500", "131126.102500", "131127.602500", "131129.102500", "131130.602500", "131132.102500", "131133.602500", "131135.102500", "131136.602500", "131138.102500", "131139.602500", "131141.102500", "131142.602500", "131144.102500", "131145.602500", "131147.102500", "131148.602500", "131150.102500", "131151.602500", "131153.102500", "131154.602500", "131156.102500", "131157.602500", "131159.102500", "131200.602500", "131202.102500", "131203.602500", "131205.102500", "131206.602500", "131208.102500", "131209.602500", "131211.102500", "131212.602500", "131214.102500", "131215.602500", "131217.102500", "131218.602500", "131220.102500", "131221.602500", "131223.102500", "131224.602500", "131226.102500", "131227.602500", "131229.102500", "131230.602500", "131232.102500", "131233.602500", "131235.102500", "131236.602500", "131238.102500", "131239.602500", "131241.102500", "131242.602500", "131244.102500", "131245.602500", "131247.102500", "131248.602500", "131250.102500", "131251.602500", "131253.102500", "131254.602500", "131256.102500", "131257.602500"],
      "ContentTime": ["130924.806000", "130924.810000", "130924.813000", "130924.816000", "130924.819000", "130924.822000", "130924.824000", "130924.827000", "130924.830000", "130924.833000", "130924.836000", "130924.844000", "130924.865000", "130924.868000", "130924.870000", "130924.873000", "130924.883000", "130924.886000", "130924.888000", "130924.891000", "130924.894000", "131004.802000", "131004.814000", "131004.817000", "131004.820000", "131004.823000", "131004.825000", "131004.828000", "131004.831000", "131004.834000", "131004.837000", "131004.840000", "131004.843000", "131004.846000", "131004.849000", "131004.852000", "131004.855000", "131004.858000", "131004.861000", "131004.864000", "131004.867000", "131004.870000", "131004.873000", "131004.876000", "131004.879000", "131004.882000", "131004.885000", "131044.802000", "131044.805000", "131044.808000", "131044.811000", "131044.814000", "131044.817000", "131044.820000", "131044.823000", "131044.826000", "131044.829000", "131044.831000", "131044.834000", "131044.837000", "131044.840000", "131044.843000", "131044.846000", "131044.849000", "131044.852000", "131044.855000", "131044.858000", "131044.861000", "131044.864000", "131044.878000", "131044.881000", "131044.893000", "131044.896000", "131044.899000", "131124.801000", "131124.804000", "131124.807000", "131124.810000", "131124.813000", "131124.816000", "131124.819000", "131124.822000", "131124.825000", "131124.828000", "131124.831000", "131124.834000", "131124.837000", "131124.840000", "131124.842000", "131124.845000", "131124.848000", "131124.851000", "131124.854000", "131124.857000", "131124.860000", "131124.863000", "131124.866000", "131124.869000", "131124.871000", "131124.874000", "131124.877000", "131204.801000", "131204.804000", "131204.807000", "131204.810000", "131204.813000", "131204.816000", "131204.819000", "131204.821000", "131204.824000", "131204.827000", "131204.830000", "131204.833000", "131204.836000", "131204.839000", "131204.842000", "131204.845000", "131204.848000", "131204.851000", "131204.854000", "131204.857000", "131204.860000", "131204.863000", "131204.866000", "131204.869000", "131204.872000", "131204.875000", "131204.877000", "131244.802000", "131244.805000", "131244.808000", "131244.811000", "131244.814000", "131244.817000", "131244.820000", "131244.823000", "131244.826000", "131244.839000", "131244.842000", "131244.845000", "131244.848000", "131244.851000", "131244.854000", "131244.857000", "131244.860000", "131244.863000", "131244.866000", "131244.869000", "131244.872000", "131244.875000", "131244.878000", "131244.881000", "131244.884000", "131244.887000", "131258.785000", "131258.788000", "131258.791000", "131258.794000", "131258.797000", "131258.800000", "131258.803000", "131258.807000", "131258.810000", "131258.813000"],
      "InstanceCreationTime": ["130924.806000", "130924.810000", "130924.813000", "130924.816000", "130924.819000", "130924.822000", "130924.824000", "130924.827000", "130924.830000", "130924.833000", "130924.836000", "130924.844000", "130924.865000", "130924.868000", "130924.870000", "130924.873000", "130924.883000", "130924.886000", "130924.888000", "130924.891000", "130924.894000", "131004.802000", "131004.814000", "131004.817000", "131004.820000", "131004.823000", "131004.825000", "131004.828000", "131004.831000", "131004.834000", "131004.837000", "131004.840000", "131004.843000", "131004.846000", "131004.849000", "131004.852000", "131004.855000", "131004.858000", "131004.861000", "131004.864000", "131004.867000", "131004.870000", "131004.873000", "131004.876000", "131004.879000", "131004.882000", "131004.885000", "131044.802000", "131044.805000", "131044.808000", "131044.811000", "131044.814000", "131044.817000", "131044.820000", "131044.823000", "131044.826000", "131044.829000", "131044.831000", "131044.834000", "131044.837000", "131044.840000", "131044.843000", "131044.846000", "131044.849000", "131044.852000", "131044.855000", "131044.858000", "131044.861000", "131044.864000", "131044.878000", "131044.881000", "131044.893000", "131044.896000", "131044.899000", "131124.801000", "131124.804000", "131124.807000", "131124.810000", "131124.813000", "131124.816000", "131124.819000", "131124.822000", "131124.825000", "131124.828000", "131124.831000", "131124.834000", "131124.837000", "131124.840000", "131124.842000", "131124.845000", "131124.848000", "131124.851000", "131124.854000", "131124.857000", "131124.860000", "131124.863000", "131124.866000", "131124.869000", "131124.871000", "131124.874000", "131124.877000", "131204.801000", "131204.804000", "131204.807000", "131204.810000", "131204.813000", "131204.816000", "131204.819000", "131204.821000", "131204.824000", "131204.827000", "131204.830000", "131204.833000", "131204.836000", "131204.839000", "131204.842000", "131204.845000", "131204.848000", "131204.851000", "131204.854000", "131204.857000", "131204.860000", "131204.863000", "131204.866000", "131204.869000", "131204.872000", "131204.875000", "131204.877000", "131244.802000", "131244.805000", "131244.808000", "131244.811000", "131244.814000", "131244.817000", "131244.820000", "131244.823000", "131244.826000", "131244.839000", "131244.842000", "131244.845000", "131244.848000", "131244.851000", "131244.854000", "131244.857000", "131244.860000", "131244.863000", "131244.866000", "131244.869000", "131244.872000", "131244.875000", "131244.878000", "131244.881000", "131244.884000", "131244.887000", "131258.785000", "131258.788000", "131258.791000", "131258.794000", "131258.797000", "131258.800000", "131258.803000", "131258.807000", "131258.810000", "131258.813000"],
      "InstanceNumber": [1, 2, 3, 4, 5, 6, 7, 8, 9, 10, 11, 12, 13, 14, 15, 16, 17, 18, 19, 20, 21, 22, 23, 24, 25, 26, 27, 28, 29, 30, 31, 32, 33, 34, 35, 36, 37, 38, 39, 40, 41, 42, 43, 44, 45, 46, 47, 48, 49, 50, 51, 52, 53, 54, 55, 56, 57, 58, 59, 60, 61, 62, 63, 64, 65, 66, 67, 68, 69, 70, 71, 72, 73, 74, 75, 76, 77, 78, 79, 80, 81, 82, 83, 84, 85, 86, 87, 88, 89, 90, 91, 92, 93, 94, 95, 96, 97, 98, 99, 100, 101, 102, 103, 104, 105, 106, 107, 108, 109, 110, 111, 112, 113, 114, 115, 116, 117, 118, 119, 120, 121, 122, 123, 124, 125, 126, 127, 128, 129, 130, 131, 132, 133, 134, 135, 136, 137, 138, 139, 140, 141, 142, 143, 144, 145, 146, 147, 148, 149, 150, 151, 152, 153, 154, 155, 156, 157, 158, 159, 160, 161, 162, 163, 164],
      "LargestImagePixelValue": [2606, 2542, 2508, 2510, 2536, 2535, 2539, 2526, 2531, 2534, 2539, 2552, 2545, 2556, 2548, 2590, 2586, 2574, 2551, 2601, 2619, 2615, 2605, 2591, 2598, 2628, 2625, 2607, 2623, 2609, 2624, 2601, 2607, 2640, 2621, 2579, 2563, 2551, 2607, 2602, 2586, 2587, 2603, 2620, 2613, 2594, 2636, 2606, 2588, 2590, 2630, 2672, 2602, 2587, 2621, 2613, 2610, 2599, 2565, 2572, 2592, 2585, 2595, 2613, 2565, 2577, 2563, 2576, 2564, 2586, 2555, 2568, 2600, 2572, 2621, 2580, 2625, 2572, 2557, 2568, 2588, 2551, 2549, 2544, 2568, 2561, 2532, 2566, 2539, 2557, 2580, 2574, 2577, 2570, 2552, 2508, 2526, 2537, 2536, 2520, 2578, 2549, 2529, 2523, 2577, 2550, 2536, 2546, 2544, 2555, 2524, 2516, 2602, 2547, 2548, 2534, 2530, 2542, 2551, 2543, 2516, 2575, 2536, 2538, 2538, 2555, 2498, 2521, 2487, 2521, 2505, 2533, 2515, 2497, 2554, 2504, 2507, 2536, 2541, 2501, 2570, 2506, 2527, 2527, 2555, 2517, 2545, 2560, 2521, 2551, 2530, 2550, 2559, 2563, 2562, 2543, 2548, 2545, 2587, 2577, 2614, 2556, 2601, 2579],
      "WindowCenter": [752.0, 751.0, 751.0, 752.0, 751.0, 750.0, 750.0, 749.0, 749.0, 749.0, 749.0, 749.0, 749.0, 750.0, 750.0, 751.0, 750.0, 750.0, 750.0, 751.0, 751.0, 751.0, 752.0, 752.0, 751.0, 751.0, 750.0, 750.0, 750.0, 750.0, 750.0, 750.0, 749.0, 750.0, 750.0, 750.0, 751.0, 750.0, 750.0, 749.0, 750.0, 751.0, 752.0, 751.0, 751.0, 750.0, 750.0, 749.0, 749.0, 751.0, 752.0, 753.0, 753.0, 751.0, 751.0, 750.0, 750.0, 751.0, 750.0, 750.0, 750.0, 751.0, 752.0, 752.0, 750.0, 750.0, 750.0, 749.0, 749.0, 749.0, 749.0, 750.0, 750.0, 750.0, 750.0, 750.0, 751.0, 751.0, 751.0, 751.0, 750.0, 750.0, 750.0, 751.0, 752.0, 752.0, 752.0, 751.0, 749.0, 748.0, 748.0, 749.0, 751.0, 751.0, 751.0, 750.0, 749.0, 749.0, 750.0, 750.0, 751.0, 750.0, 750.0, 750.0, 750.0, 749.0, 749.0, 750.0, 750.0, 751.0, 751.0, 750.0, 750.0, 749.0, 750.0, 750.0, 751.0, 751.0, 750.0, 749.0, 748.0, 748.0, 748.0, 749.0, 750.0, 749.0, 750.0, 752.0, 751.0, 750.0, 749.0, 748.0, 748.0, 748.0, 749.0, 748.0, 748.0, 749.0, 749.0, 748.0, 749.0, 748.0, 749.0, 749.0, 750.0, 750.0, 750.0, 749.0, 749.0, 749.0, 749.0, 750.0, 750.0, 750.0, 749.0, 748.0, 748.0, 749.0, 750.0, 750.0, 750.0, 749.0, 749.0, 748.0],
      "WindowWidth": [1646.0, 1642.0, 1642.0, 1645.0, 1642.0, 1638.0, 1638.0, 1637.0, 1635.0, 1636.0, 1637.0, 1638.0, 1637.0, 1638.0, 1639.0, 1641.0, 1639.0, 1640.0, 1640.0, 1641.0, 1641.0, 1641.0, 1644.0, 1645.0, 1642.0, 1642.0, 1640.0, 1640.0, 1640.0, 1639.0, 1640.0, 1639.0, 1637.0, 1638.0, 1639.0, 1640.0, 1640.0, 1640.0, 1640.0, 1637.0, 1638.0, 1642.0, 1643.0, 1643.0, 1641.0, 1638.0, 1638.0, 1636.0, 1636.0, 1641.0, 1646.0, 1649.0, 1646.0, 1642.0, 1641.0, 1639.0, 1639.0, 1641.0, 1639.0, 1638.0, 1638.0, 1641.0, 1643.0, 1643.0, 1640.0, 1639.0, 1637.0, 1637.0, 1636.0, 1636.0, 1635.0, 1637.0, 1639.0, 1639.0, 1640.0, 1640.0, 1643.0, 1642.0, 1640.0, 1640.0, 1638.0, 1638.0, 1637.0, 1640.0, 1644.0, 1644.0, 1644.0, 1640.0, 1636.0, 1634.0, 1633.0, 1637.0, 1641.0, 1641.0, 1640.0, 1638.0, 1637.0, 1637.0, 1638.0, 1639.0, 1642.0, 1639.0, 1639.0, 1638.0, 1638.0, 1637.0, 1637.0, 1638.0, 1639.0, 1642.0, 1640.0, 1638.0, 1639.0, 1637.0, 1638.0, 1640.0, 1642.0, 1641.0, 1639.0, 1635.0, 1634.0, 1634.0, 1634.0, 1636.0, 1637.0, 1637.0, 1638.0, 1643.0, 1640.0, 1638.0, 1634.0, 1633.0, 1632.0, 1633.0, 1634.0, 1634.0, 1634.0, 1636.0, 1636.0, 1633.0, 1634.0, 1633.0, 1635.0, 1636.0, 1637.0, 1639.0, 1639.0, 1637.0, 1636.0, 1635.0, 1635.0, 1638.0, 1638.0, 1638.0, 1636.0, 1633.0, 1634.0, 1636.0, 1637.0, 1638.0, 1638.0, 1636.0, 1635.0, 1634.0]
    },
    "slices": {}
  }
}