{
  "AcquisitionMatrixPE": 72,
  "AcquisitionNumber": 1,
  "AcquisitionTime": "13:21:29.705000",
  "BandwidthPerPixelPhaseEncode": 17.943,
  "BaseResolution": 96,
  "BodyPartExamined": "BRAIN",
  "CoilCombinationMethod": "Sum of Squares",
  "ConsistencyInfo": "N4_VE11C_LATEST_20160120",
  "ConversionSoftware": "dcm2niix",
  "ConversionSoftwareVersion": "v1.0.20211006",
  "DerivedVendorReportedEchoSpacing": 0.000552897,
  "DeviceSerialNumber": "166011",
  "EchoTime": 0.03,
  "EchoTrainLength": 58,
  "EffectiveEchoSpacing": 0.000580542,
  "FlipAngle": 62,
  "ImageOrientationPatientDICOM": [0.994749, 0.0986865, 0.0271215, -0.0936811, 0.984692, -0.146991],
  "ImageType": [
    "ORIGINAL",
    "PRIMARY",
    "M",
    "ND",
    "MOSAIC"
],
  "ImagingFrequency": 123.26,
  "InPlanePhaseEncodingDirectionDICOM": "COL",
  "InstitutionAddress": "West 130th Street 610,NY,NYC,US,10025",
  "InstitutionName": "MBBI",
  "MRAcquisitionType": "2D",
  "MagneticFieldStrength": 3,
  "Manufacturer": "Siemens",
  "ManufacturersModelName": "Prisma",
  "Modality": "MR",
  "MultibandAccelerationFactor": 3,
  "PartialFourier": 0.75,
  "PatientPosition": "HFS",
  "PercentPhaseFOV": 100,
  "PercentSampling": 75,
  "PhaseEncodingDirection": "j-",
  "PhaseEncodingSteps": 58,
  "PhaseOversampling": 0.05,
  "PhaseResolution": 0.75,
  "PixelBandwidth": 2265,
  "ProcedureStepDescription": "White^Word_recognition",
  "ProtocolName": "func_vwfate_run3",
  "PulseSequenceDetails": "%SiemensSeq%\\ep2d_bold",
  "ReceiveCoilActiveElements": "HC1-6",
  "ReceiveCoilName": "HeadNeck_64",
  "ReconMatrixPE": 96,
  "RefLinesPE": 40,
  "RepetitionTime": 1.5,
  "SAR": 0.0498996,
  "ScanOptions": "PFP\\FS",
  "ScanningSequence": "EP",
  "SequenceName": "*epfid2d1_72",
  "SequenceVariant": "SK\\OSP",
  "SeriesDescription": "func_vwfate_run3",
  "SeriesNumber": 11,
  "ShimSetting": [-1135, -1347, 688, 504, -52, -22, -41, 24],
  "SliceThickness": 2,
  "SliceTiming": [1.0775, 0, 0.74, 0.0675, 0.8075, 0.135, 0.875, 0.2025, 0.9425, 0.27, 1.01, 0.4025, 1.1425, 0.47, 1.21, 0.5375, 1.2775, 0.605, 1.345, 0.6725, 1.4125, 0.3375, 1.0775, 0, 0.74, 0.0675, 0.8075, 0.135, 0.875, 0.2025, 0.9425, 0.27, 1.01, 0.4025, 1.1425, 0.47, 1.21, 0.5375, 1.2775, 0.605, 1.345, 0.6725, 1.4125, 0.3375, 1.0775, 0, 0.74, 0.0675, 0.8075, 0.135, 0.875, 0.2025, 0.9425, 0.27, 1.01, 0.4025, 1.1425, 0.47, 1.21, 0.5375, 1.2775, 0.605, 1.345, 0.6725, 1.4125, 0.3375],
  "SoftwareVersions": "syngo MR E11",
  "SpacingBetweenSlices": 2,
  "StationName": "AWP166011",
  "TaskName": "vwfate",
  "TotalReadoutTime": 0.0551515,
  "TxRefAmp": 229.498,
  "dcmmeta_affine": [
    [-1.9894977807998657, -0.18736223876476288, 0.0824245885014534, 104.39629364013672],
    [-0.19737307727336884, 1.9693831205368042, -0.2873566746711731, -53.30393600463867],
    [0.054242901504039764, 0.2939819097518921, 1.977531909942627, -83.53926849365234],
    [0.0, 0.0, 0.0, 1.0]
],
  "dcmmeta_reorient_transform": [
    [0.0, -1.0, 0.0, 95.0],
    [1.0, 0.0, 0.0, 0.0],
    [0.0, 0.0, 1.0, 0.0],
    [0.0, 0.0, 0.0, 1.0]
],
  "dcmmeta_shape": [96, 96, 66, 164],
  "dcmmeta_slice_dim": 2,
  "dcmmeta_version": 0.6,
  "global": {
    "const": {
      "AcquisitionMatrix": [96, 0, 0, 72],
      "AngioFlag": "N",
      "BitsAllocated": 16,
      "BitsStored": 12,
      "BodyPartExamined": "BRAIN",
      "Columns": 864,
      "EchoNumbers": 1,
      "EchoTime": 30.0,
      "EchoTrainLength": 58,
      "FlipAngle": 62.0,
      "HighBit": 11,
      "ImageOrientationPatient": [0.99474891008466, 0.09868653785456, 0.02712145150366, -0.0936811227491, 0.98469157928622, -0.1469909552431],
      "ImagePositionPatient": [-778.61694121585, -965.82185818766, 36.448789621998],
      "ImageType": [
        "ORIGINAL",
        "PRIMARY",
        "M",
        "ND",
        "MOSAIC"
],
      "ImagedNucleus": "1H",
      "ImagingFrequency": 123.259533,
      "InPlanePhaseEncodingDirection": "COL",
      "MRAcquisitionType": "2D",
      "MagneticFieldStrength": 3.0,
      "Manufacturer": "SIEMENS",
      "ManufacturerModelName": "Prisma",
      "Modality": "MR",
      "NumberOfAverages": 1.0,
      "NumberOfPhaseEncodingSteps": 58,
      "PercentPhaseFieldOfView": 100.0,
      "PercentSampling": 75.0,
      "PerformedProcedureStepStartTime": "123537.862000",
      "PhotometricInterpretation": "MONOCHROME2",
      "PixelBandwidth": 2265.0,
      "PixelRepresentation": 0,
      "PixelSpacing": [2.0, 2.0],
      "ProtocolName": "func_vwfate_run3",
      "RepetitionTime": 1500.0,
      "Rows": 864,
      "SAR": 0.049899584756,
      "SamplesPerPixel": 1,
      "ScanOptions": [
        "PFP",
        "FS"
],
      "ScanningSequence": "EP",
      "SequenceName": "*epfid2d1_72",
      "SequenceVariant": [
        "SK",
        "OSP"
],
      "SeriesDescription": "func_vwfate_run3",
      "SeriesNumber": 11,
      "SeriesTime": "132144.730000",
      "SliceLocation": -70.639754762658,
      "SliceThickness": 2.0,
      "SmallestImagePixelValue": 0,
      "SoftwareVersions": "syngo MR E11",
      "SpacingBetweenSlices": 2.0000000791337,
      "SpecificCharacterSet": "ISO_IR 100",
      "StudyID": "1",
      "StudyTime": "123537.780000",
      "TransmitCoilName": "Body",
      "VariableFlipAngleFlag": "N",
      "WindowCenterWidthExplanation": "Algo1",
      "dBdt": 0.0},
    "slices": {}
  },
  "time": {
    "samples": {
      "AcquisitionNumber": [1, 2, 3, 4, 5, 6, 7, 8, 9, 10, 11, 12, 13, 14, 15, 16, 17, 18, 19, 20, 21, 22, 23, 24, 25, 26, 27, 28, 29, 30, 31, 32, 33, 34, 35, 36, 37, 38, 39, 40, 41, 42, 43, 44, 45, 46, 47, 48, 49, 50, 51, 52, 53, 54, 55, 56, 57, 58, 59, 60, 61, 62, 63, 64, 65, 66, 67, 68, 69, 70, 71, 72, 73, 74, 75, 76, 77, 78, 79, 80, 81, 82, 83, 84, 85, 86, 87, 88, 89, 90, 91, 92, 93, 94, 95, 96, 97, 98, 99, 100, 101, 102, 103, 104, 105, 106, 107, 108, 109, 110, 111, 112, 113, 114, 115, 116, 117, 118, 119, 120, 121, 122, 123, 124, 125, 126, 127, 128, 129, 130, 131, 132, 133, 134, 135, 136, 137, 138, 139, 140, 141, 142, 143, 144, 145, 146, 147, 148, 149, 150, 151, 152, 153, 154, 155, 156, 157, 158, 159, 160, 161, 162, 163, 164],
      "AcquisitionTime": ["132129.705000", "132131.205000", "132132.705000", "132134.205000", "132135.705000", "132137.205000", "132138.705000", "132140.205000", "132141.705000", "132143.205000", "132144.705000", "132146.205000", "132147.705000", "132149.205000", "132150.705000", "132152.205000", "132153.705000", "132155.205000", "132156.705000", "132158.205000", "132159.705000", "132201.205000", "132202.705000", "132204.205000", "132205.705000", "132207.205000", "132208.705000", "132210.205000", "132211.705000", "132213.205000", "132214.705000", "132216.205000", "132217.705000", "132219.205000", "132220.705000", "132222.205000", "132223.705000", "132225.205000", "132226.705000", "132228.205000", "132229.705000", "132231.205000", "132232.705000", "132234.205000", "132235.705000", "132237.205000", "132238.705000", "132240.205000", "132241.705000", "132243.205000", "132244.705000", "132246.205000", "132247.705000", "132249.205000", "132250.705000", "132252.205000", "132253.705000", "132255.205000", "132256.705000", "132258.205000", "132259.705000", "132301.205000", "132302.705000", "132304.205000", "132305.705000", "132307.205000", "132308.705000", "132310.205000", "132311.705000", "132313.205000", "132314.705000", "132316.205000", "132317.705000", "132319.205000", "132320.705000", "132322.205000", "132323.705000", "132325.205000", "132326.705000", "132328.205000", "132329.705000", "132331.205000", "132332.705000", "132334.205000", "132335.705000", "132337.205000", "132338.705000", "132340.205000", "132341.705000", "132343.205000", "132344.705000", "132346.205000", "132347.705000", "132349.205000", "132350.705000", "132352.205000", "132353.705000", "132355.205000", "132356.705000", "132358.205000", "132359.705000", "132401.205000", "132402.705000", "132404.205000", "132405.705000", "132407.205000", "132408.705000", "132410.205000", "132411.705000", "132413.205000", "132414.705000", "132416.205000", "132417.705000", "132419.205000", "132420.705000", "132422.205000", "132423.705000", "132425.205000", "132426.705000", "132428.205000", "132429.705000", "132431.205000", "132432.705000", "132434.205000", "132435.705000", "132437.205000", "132438.705000", "132440.205000", "132441.705000", "132443.205000", "132444.705000", "132446.205000", "132447.705000", "132449.205000", "132450.705000", "132452.205000", "132453.705000", "132455.205000", "132456.705000", "132458.205000", "132459.705000", "132501.205000", "132502.705000", "132504.205000", "132505.705000", "132507.205000", "132508.705000", "132510.205000", "132511.705000", "132513.205000", "132514.705000", "132516.205000", "132517.705000", "132519.205000", "132520.705000", "132522.205000", "132523.705000", "132525.205000", "132526.705000", "132528.205000", "132529.705000", "132531.205000", "132532.705000", "132534.205000"],
      "ContentTime": ["132144.734000", "132144.738000", "132144.750000", "132144.753000", "132144.774000", "132144.777000", "132144.780000", "132144.782000", "132144.785000", "132224.729000", "132224.732000", "132224.735000", "132224.738000", "132224.741000", "132224.744000", "132224.747000", "132224.750000", "132224.753000", "132224.756000", "132224.759000", "132224.762000", "132224.765000", "132224.768000", "132224.771000", "132224.774000", "132224.777000", "132224.780000", "132224.783000", "132224.786000", "132224.789000", "132224.792000", "132224.808000", "132224.811000", "132224.814000", "132224.817000", "132224.820000", "132304.728000", "132304.731000", "132304.734000", "132304.737000", "132304.740000", "132304.743000", "132304.746000", "132304.749000", "132304.752000", "132304.755000", "132304.767000", "132304.770000", "132304.772000", "132304.792000", "132304.794000", "132304.797000", "132304.800000", "132304.803000", "132304.806000", "132304.812000", "132304.815000", "132304.818000", "132304.821000", "132304.824000", "132304.827000", "132304.830000", "132304.833000", "132344.728000", "132344.731000", "132344.734000", "132344.737000", "132344.740000", "132344.743000", "132344.746000", "132344.749000", "132344.752000", "132344.755000", "132344.758000", "132344.761000", "132344.764000", "132344.767000", "132344.770000", "132344.773000", "132344.775000", "132344.778000", "132344.781000", "132344.784000", "132344.796000", "132344.799000", "132344.802000", "132344.804000", "132344.807000", "132344.810000", "132424.729000", "132424.732000", "132424.735000", "132424.738000", "132424.741000", "132424.744000", "132424.747000", "132424.750000", "132424.753000", "132424.756000", "132424.759000", "132424.762000", "132424.765000", "132424.777000", "132424.780000", "132424.783000", "132424.786000", "132424.789000", "132424.792000", "132424.795000", "132424.798000", "132424.801000", "132424.804000", "132424.807000", "132424.810000", "132424.813000", "132424.816000", "132504.728000", "132504.731000", "132504.734000", "132504.737000", "132504.740000", "132504.743000", "132504.746000", "132504.749000", "132504.752000", "132504.755000", "132504.758000", "132504.761000", "132504.764000", "132504.767000", "132504.769000", "132504.772000", "132504.776000", "132504.779000", "132504.782000", "132504.785000", "132504.787000", "132504.790000", "132504.793000", "132504.796000", "132504.799000", "132504.802000", "132504.805000", "132535.733000", "132535.737000", "132535.740000", "132535.743000", "132535.746000", "132535.749000", "132535.752000", "132535.755000", "132535.758000", "132535.761000", "132535.765000", "132535.768000", "132535.772000", "132535.775000", "132535.779000", "132535.783000", "132535.786000", "132535.790000", "132535.793000", "132535.797000", "132535.801000"],
      "InstanceCreationTime": ["132144.734000", "132144.738000", "132144.750000", "132144.753000", "132144.774000", "132144.777000", "132144.780000", "132144.782000", "132144.785000", "132224.729000", "132224.732000", "132224.735000", "132224.738000", "132224.741000", "132224.744000", "132224.747000", "132224.750000", "132224.753000", "132224.756000", "132224.759000", "132224.762000", "132224.765000", "132224.768000", "132224.771000", "132224.774000", "132224.777000", "132224.780000", "132224.783000", "132224.786000", "132224.789000", "132224.792000", "132224.808000", "132224.811000", "132224.814000", "132224.817000", "132224.820000", "132304.728000", "132304.731000", "132304.734000", "132304.737000", "132304.740000", "132304.743000", "132304.746000", "132304.749000", "132304.752000", "132304.755000", "132304.767000", "132304.770000", "132304.772000", "132304.792000", "132304.794000", "132304.797000", "132304.800000", "132304.803000", "132304.806000", "132304.812000", "132304.815000", "132304.818000", "132304.821000", "132304.824000", "132304.827000", "132304.830000", "132304.833000", "132344.728000", "132344.731000", "132344.734000", "132344.737000", "132344.740000", "132344.743000", "132344.746000", "132344.749000", "132344.752000", "132344.755000", "132344.758000", "132344.761000", "132344.764000", "132344.767000", "132344.770000", "132344.773000", "132344.775000", "132344.778000", "132344.781000", "132344.784000", "132344.796000", "132344.799000", "132344.802000", "132344.804000", "132344.807000", "132344.810000", "132424.729000", "132424.732000", "132424.735000", "132424.738000", "132424.741000", "132424.744000", "132424.747000", "132424.750000", "132424.753000", "132424.756000", "132424.759000", "132424.762000", "132424.765000", "132424.777000", "132424.780000", "132424.783000", "132424.786000", "132424.789000", "132424.792000", "132424.795000", "132424.798000", "132424.801000", "132424.804000", "132424.807000", "132424.810000", "132424.813000", "132424.816000", "132504.728000", "132504.731000", "132504.734000", "132504.737000", "132504.740000", "132504.743000", "132504.746000", "132504.749000", "132504.752000", "132504.755000", "132504.758000", "132504.761000", "132504.764000", "132504.767000", "132504.769000", "132504.772000", "132504.776000", "132504.779000", "132504.782000", "132504.785000", "132504.787000", "132504.790000", "132504.793000", "132504.796000", "132504.799000", "132504.802000", "132504.805000", "132535.733000", "132535.737000", "132535.740000", "132535.743000", "132535.746000", "132535.749000", "132535.752000", "132535.755000", "132535.758000", "132535.761000", "132535.765000", "132535.768000", "132535.772000", "132535.775000", "132535.779000", "132535.783000", "132535.786000", "132535.790000", "132535.793000", "132535.797000", "132535.801000"],
      "InstanceNumber": [1, 2, 3, 4, 5, 6, 7, 8, 9, 10, 11, 12, 13, 14, 15, 16, 17, 18, 19, 20, 21, 22, 23, 24, 25, 26, 27, 28, 29, 30, 31, 32, 33, 34, 35, 36, 37, 38, 39, 40, 41, 42, 43, 44, 45, 46, 47, 48, 49, 50, 51, 52, 53, 54, 55, 56, 57, 58, 59, 60, 61, 62, 63, 64, 65, 66, 67, 68, 69, 70, 71, 72, 73, 74, 75, 76, 77, 78, 79, 80, 81, 82, 83, 84, 85, 86, 87, 88, 89, 90, 91, 92, 93, 94, 95, 96, 97, 98, 99, 100, 101, 102, 103, 104, 105, 106, 107, 108, 109, 110, 111, 112, 113, 114, 115, 116, 117, 118, 119, 120, 121, 122, 123, 124, 125, 126, 127, 128, 129, 130, 131, 132, 133, 134, 135, 136, 137, 138, 139, 140, 141, 142, 143, 144, 145, 146, 147, 148, 149, 150, 151, 152, 153, 154, 155, 156, 157, 158, 159, 160, 161, 162, 163, 164],
      "LargestImagePixelValue": [2661, 2649, 2602, 2575, 2622, 2585, 2665, 2620, 2582, 2585, 2642, 2616, 2660, 2602, 2543, 2586, 2572, 2595, 2598, 2538, 2627, 2625, 2628, 2606, 2631, 2645, 2603, 2638, 2605, 2624, 2652, 2591, 2622, 2615, 2624, 2616, 2621, 2583, 2588, 2573, 2614, 2648, 2593, 2661, 2605, 2644, 2635, 2660, 2674, 2622, 2646, 2669, 2665, 2644, 2637, 2678, 2632, 2653, 2679, 2672, 2654, 2638, 2701, 2658, 2649, 2665, 2673, 2642, 2624, 2707, 2647, 2678, 2620, 2681, 2658, 2629, 2659, 2657, 2704, 2652, 2640, 2631, 2639, 2629, 2605, 2722, 2616, 2637, 2640, 2603, 2673, 2637, 2629, 2640, 2641, 2674, 2644, 2642, 2669, 2650, 2659, 2629, 2669, 2664, 2608, 2645, 2643, 2611, 2608, 2669, 2597, 2589, 2648, 2625, 2658, 2660, 2613, 2634, 2622, 2659, 2625, 2635, 2635, 2648, 2622, 2618, 2623, 2618, 2615, 2598, 2627, 2579, 2612, 2641, 2598, 2620, 2617, 2639, 2619, 2621, 2641, 2635, 2623, 2654, 2621, 2585, 2622, 2595, 2649, 2583, 2623, 2636, 2626, 2634, 2645, 2652, 2653, 2599, 2627, 2587, 2568, 2577, 2637, 2600],
      "WindowCenter": [753.0, 751.0, 751.0, 750.0, 751.0, 749.0, 752.0, 752.0, 752.0, 752.0, 753.0, 753.0, 753.0, 751.0, 751.0, 752.0, 751.0, 752.0, 751.0, 751.0, 752.0, 752.0, 752.0, 752.0, 753.0, 752.0, 751.0, 751.0, 751.0, 751.0, 752.0, 752.0, 753.0, 752.0, 752.0, 751.0, 750.0, 750.0, 751.0, 752.0, 753.0, 752.0, 751.0, 751.0, 751.0, 752.0, 752.0, 752.0, 753.0, 753.0, 753.0, 752.0, 751.0, 750.0, 751.0, 751.0, 751.0, 752.0, 752.0, 752.0, 751.0, 752.0, 752.0, 752.0, 752.0, 751.0, 752.0, 752.0, 754.0, 753.0, 751.0, 751.0, 751.0, 751.0, 751.0, 751.0, 752.0, 752.0, 752.0, 752.0, 753.0, 752.0, 752.0, 752.0, 751.0, 752.0, 752.0, 752.0, 751.0, 750.0, 749.0, 750.0, 752.0, 753.0, 753.0, 752.0, 751.0, 752.0, 752.0, 752.0, 752.0, 751.0, 750.0, 750.0, 751.0, 753.0, 753.0, 751.0, 750.0, 750.0, 751.0, 752.0, 753.0, 752.0, 751.0, 750.0, 750.0, 750.0, 750.0, 750.0, 750.0, 750.0, 750.0, 750.0, 749.0, 749.0, 749.0, 750.0, 751.0, 751.0, 751.0, 751.0, 751.0, 751.0, 750.0, 751.0, 751.0, 750.0, 750.0, 750.0, 750.0, 751.0, 751.0, 751.0, 751.0, 750.0, 752.0, 752.0, 752.0, 750.0, 750.0, 750.0, 750.0, 750.0, 751.0, 752.0, 751.0, 751.0, 750.0, 750.0, 750.0, 751.0, 752.0, 751.0],
      "WindowWidth": [1649.0, 1644.0, 1642.0, 1640.0, 1642.0, 1638.0, 1646.0, 1645.0, 1645.0, 1647.0, 1649.0, 1648.0, 1647.0, 1643.0, 1643.0, 1645.0, 1644.0, 1644.0, 1643.0, 1641.0, 1644.0, 1646.0, 1647.0, 1646.0, 1647.0, 1645.0, 1644.0, 1643.0, 1642.0, 1643.0, 1645.0, 1645.0, 1648.0, 1646.0, 1646.0, 1642.0, 1640.0, 1640.0, 1643.0, 1645.0, 1647.0, 1644.0, 1643.0, 1644.0, 1643.0, 1646.0, 1645.0, 1646.0, 1647.0, 1647.0, 1648.0, 1646.0, 1642.0, 1640.0, 1641.0, 1642.0, 1642.0, 1644.0, 1645.0, 1644.0, 1643.0, 1644.0, 1645.0, 1644.0, 1644.0, 1643.0, 1644.0, 1645.0, 1650.0, 1649.0, 1643.0, 1642.0, 1641.0, 1643.0, 1643.0, 1643.0, 1644.0, 1644.0, 1646.0, 1646.0, 1646.0, 1646.0, 1645.0, 1644.0, 1643.0, 1644.0, 1644.0, 1645.0, 1643.0, 1638.0, 1638.0, 1640.0, 1645.0, 1647.0, 1647.0, 1645.0, 1643.0, 1644.0, 1644.0, 1645.0, 1646.0, 1641.0, 1640.0, 1640.0, 1643.0, 1647.0, 1646.0, 1641.0, 1639.0, 1641.0, 1641.0, 1645.0, 1648.0, 1643.0, 1641.0, 1640.0, 1638.0, 1639.0, 1639.0, 1639.0, 1639.0, 1640.0, 1641.0, 1639.0, 1637.0, 1637.0, 1637.0, 1640.0, 1641.0, 1641.0, 1643.0, 1643.0, 1642.0, 1641.0, 1640.0, 1641.0, 1642.0, 1640.0, 1640.0, 1640.0, 1640.0, 1642.0, 1642.0, 1642.0, 1641.0, 1640.0, 1644.0, 1645.0, 1644.0, 1640.0, 1638.0, 1639.0, 1640.0, 1639.0, 1641.0, 1643.0, 1642.0, 1642.0, 1640.0, 1638.0, 1638.0, 1640.0, 1644.0, 1643.0]
    },
    "slices": {}
  }
}