{
  "AcquisitionMatrixPE": 72,
  "AcquisitionNumber": 1,
  "AcquisitionTime": "13:41:12.002500",
  "BandwidthPerPixelPhaseEncode": 17.943,
  "BaseResolution": 96,
  "BodyPartExamined": "BRAIN",
  "CoilCombinationMethod": "Sum of Squares",
  "ConsistencyInfo": "N4_VE11C_LATEST_20160120",
  "ConversionSoftware": "dcm2niix",
  "ConversionSoftwareVersion": "v1.0.20211006",
  "DerivedVendorReportedEchoSpacing": 0.000552897,
  "DeviceSerialNumber": "166011",
  "EchoTime": 0.03,
  "EchoTrainLength": 58,
  "EffectiveEchoSpacing": 0.000580542,
  "FlipAngle": 62,
  "ImageOrientationPatientDICOM": [0.994749, 0.0986865, 0.0271215, -0.0936811, 0.984692, -0.146991],
  "ImageType": [
    "ORIGINAL",
    "PRIMARY",
    "M",
    "ND",
    "MOSAIC"
],
  "ImagingFrequency": 123.26,
  "InPlanePhaseEncodingDirectionDICOM": "COL",
  "InstitutionAddress": "West 130th Street 610,NY,NYC,US,10025",
  "InstitutionName": "MBBI",
  "MRAcquisitionType": "2D",
  "MagneticFieldStrength": 3,
  "Manufacturer": "Siemens",
  "ManufacturersModelName": "Prisma",
  "Modality": "MR",
  "MultibandAccelerationFactor": 3,
  "PartialFourier": 0.75,
  "PatientPosition": "HFS",
  "PercentPhaseFOV": 100,
  "PercentSampling": 75,
  "PhaseEncodingDirection": "j-",
  "PhaseEncodingSteps": 58,
  "PhaseOversampling": 0.05,
  "PhaseResolution": 0.75,
  "PixelBandwidth": 2265,
  "ProcedureStepDescription": "White^Word_recognition",
  "ProtocolName": "func_vwfate_run5",
  "PulseSequenceDetails": "%SiemensSeq%\\ep2d_bold",
  "ReceiveCoilActiveElements": "HC1-6",
  "ReceiveCoilName": "HeadNeck_64",
  "ReconMatrixPE": 96,
  "RefLinesPE": 40,
  "RepetitionTime": 1.5,
  "SAR": 0.0498996,
  "ScanOptions": "PFP\\FS",
  "ScanningSequence": "EP",
  "SequenceName": "*epfid2d1_72",
  "SequenceVariant": "SK\\OSP",
  "SeriesDescription": "func_vwfate_run5",
  "SeriesNumber": 14,
  "ShimSetting": [-1135, -1347, 688, 504, -52, -22, -41, 24],
  "SliceThickness": 2,
  "SliceTiming": [1.0775, 0, 0.74, 0.0675, 0.8075, 0.135, 0.875, 0.2025, 0.9425, 0.27, 1.01, 0.4025, 1.1425, 0.47, 1.21, 0.5375, 1.2775, 0.605, 1.345, 0.6725, 1.4125, 0.3375, 1.0775, 0, 0.74, 0.0675, 0.8075, 0.135, 0.875, 0.2025, 0.9425, 0.27, 1.01, 0.4025, 1.1425, 0.47, 1.21, 0.5375, 1.2775, 0.605, 1.345, 0.6725, 1.4125, 0.3375, 1.0775, 0, 0.74, 0.0675, 0.8075, 0.135, 0.875, 0.2025, 0.9425, 0.27, 1.01, 0.4025, 1.1425, 0.47, 1.21, 0.5375, 1.2775, 0.605, 1.345, 0.6725, 1.4125, 0.3375],
  "SoftwareVersions": "syngo MR E11",
  "SpacingBetweenSlices": 2,
  "StationName": "AWP166011",
  "TaskName": "vwfate",
  "TotalReadoutTime": 0.0551515,
  "TxRefAmp": 229.498,
  "dcmmeta_affine": [
    [-1.9894977807998657, -0.18736223876476288, 0.0824245885014534, 104.39629364013672],
    [-0.19737307727336884, 1.9693831205368042, -0.2873566746711731, -53.30393600463867],
    [0.054242901504039764, 0.2939819097518921, 1.977531909942627, -83.53926849365234],
    [0.0, 0.0, 0.0, 1.0]
],
  "dcmmeta_reorient_transform": [
    [0.0, -1.0, 0.0, 95.0],
    [1.0, 0.0, 0.0, 0.0],
    [0.0, 0.0, 1.0, 0.0],
    [0.0, 0.0, 0.0, 1.0]
],
  "dcmmeta_shape": [96, 96, 66, 164],
  "dcmmeta_slice_dim": 2,
  "dcmmeta_version": 0.6,
  "global": {
    "const": {
      "AcquisitionMatrix": [96, 0, 0, 72],
      "AngioFlag": "N",
      "BitsAllocated": 16,
      "BitsStored": 12,
      "BodyPartExamined": "BRAIN",
      "Columns": 864,
      "EchoNumbers": 1,
      "EchoTime": 30.0,
      "EchoTrainLength": 58,
      "FlipAngle": 62.0,
      "HighBit": 11,
      "ImageOrientationPatient": [0.99474891008466, 0.09868653785456, 0.02712145150366, -0.0936811227491, 0.98469157928622, -0.1469909552431],
      "ImagePositionPatient": [-778.61694121585, -965.82185818766, 36.448789621998],
      "ImageType": [
        "ORIGINAL",
        "PRIMARY",
        "M",
        "ND",
        "MOSAIC"
],
      "ImagedNucleus": "1H",
      "ImagingFrequency": 123.259538,
      "InPlanePhaseEncodingDirection": "COL",
      "MRAcquisitionType": "2D",
      "MagneticFieldStrength": 3.0,
      "Manufacturer": "SIEMENS",
      "ManufacturerModelName": "Prisma",
      "Modality": "MR",
      "NumberOfAverages": 1.0,
      "NumberOfPhaseEncodingSteps": 58,
      "PercentPhaseFieldOfView": 100.0,
      "PercentSampling": 75.0,
      "PerformedProcedureStepStartTime": "123537.862000",
      "PhotometricInterpretation": "MONOCHROME2",
      "PixelBandwidth": 2265.0,
      "PixelRepresentation": 0,
      "PixelSpacing": [2.0, 2.0],
      "ProtocolName": "func_vwfate_run5",
      "RepetitionTime": 1500.0,
      "Rows": 864,
      "SAR": 0.049899584756,
      "SamplesPerPixel": 1,
      "ScanOptions": [
        "PFP",
        "FS"
],
      "ScanningSequence": "EP",
      "SequenceName": "*epfid2d1_72",
      "SequenceVariant": [
        "SK",
        "OSP"
],
      "SeriesDescription": "func_vwfate_run5",
      "SeriesNumber": 14,
      "SeriesTime": "134124.729000",
      "SliceLocation": -70.639754762658,
      "SliceThickness": 2.0,
      "SmallestImagePixelValue": 0,
      "SoftwareVersions": "syngo MR E11",
      "SpacingBetweenSlices": 2.0000000791337,
      "SpecificCharacterSet": "ISO_IR 100",
      "StudyID": "1",
      "StudyTime": "123537.780000",
      "TransmitCoilName": "Body",
      "VariableFlipAngleFlag": "N",
      "WindowCenterWidthExplanation": "Algo1",
      "dBdt": 0.0},
    "slices": {}
  },
  "time": {
    "samples": {
      "AcquisitionNumber": [1, 2, 3, 4, 5, 6, 7, 8, 9, 10, 11, 12, 13, 14, 15, 16, 17, 18, 19, 20, 21, 22, 23, 24, 25, 26, 27, 28, 29, 30, 31, 32, 33, 34, 35, 36, 37, 38, 39, 40, 41, 42, 43, 44, 45, 46, 47, 48, 49, 50, 51, 52, 53, 54, 55, 56, 57, 58, 59, 60, 61, 62, 63, 64, 65, 66, 67, 68, 69, 70, 71, 72, 73, 74, 75, 76, 77, 78, 79, 80, 81, 82, 83, 84, 85, 86, 87, 88, 89, 90, 91, 92, 93, 94, 95, 96, 97, 98, 99, 100, 101, 102, 103, 104, 105, 106, 107, 108, 109, 110, 111, 112, 113, 114, 115, 116, 117, 118, 119, 120, 121, 122, 123, 124, 125, 126, 127, 128, 129, 130, 131, 132, 133, 134, 135, 136, 137, 138, 139, 140, 141, 142, 143, 144, 145, 146, 147, 148, 149, 150, 151, 152, 153, 154, 155, 156, 157, 158, 159, 160, 161, 162, 163, 164],
      "AcquisitionTime": ["134112.002500", "134113.502500", "134115.002500", "134116.502500", "134118.002500", "134119.502500", "134121.002500", "134122.502500", "134124.002500", "134125.502500", "134127.002500", "134128.502500", "134130.002500", "134131.502500", "134133.002500", "134134.502500", "134136.002500", "134137.502500", "134139.002500", "134140.502500", "134142.002500", "134143.502500", "134145.002500", "134146.502500", "134148.002500", "134149.502500", "134151.002500", "134152.502500", "134154.002500", "134155.502500", "134157.002500", "134158.502500", "134200.002500", "134201.502500", "134203.002500", "134204.502500", "134206.002500", "134207.502500", "134209.002500", "134210.502500", "134212.002500", "134213.502500", "134215.002500", "134216.502500", "134218.002500", "134219.502500", "134221.002500", "134222.502500", "134224.002500", "134225.502500", "134227.002500", "134228.502500", "134230.002500", "134231.502500", "134233.002500", "134234.502500", "134236.002500", "134237.502500", "134239.002500", "134240.502500", "134242.002500", "134243.502500", "134245.002500", "134246.502500", "134248.002500", "134249.502500", "134251.002500", "134252.502500", "134254.002500", "134255.502500", "134257.002500", "134258.502500", "134300.002500", "134301.502500", "134303.002500", "134304.502500", "134306.002500", "134307.502500", "134309.002500", "134310.502500", "134312.002500", "134313.502500", "134315.002500", "134316.502500", "134318.002500", "134319.502500", "134321.002500", "134322.502500", "134324.002500", "134325.502500", "134327.002500", "134328.502500", "134330.002500", "134331.502500", "134333.002500", "134334.502500", "134336.002500", "134337.502500", "134339.002500", "134340.502500", "134342.002500", "134343.502500", "134345.002500", "134346.502500", "134348.002500", "134349.502500", "134351.002500", "134352.502500", "134354.002500", "134355.502500", "134357.002500", "134358.502500", "134400.002500", "134401.502500", "134403.002500", "134404.502500", "134406.002500", "134407.502500", "134409.002500", "134410.502500", "134412.002500", "134413.502500", "134415.002500", "134416.502500", "134418.002500", "134419.502500", "134421.002500", "134422.502500", "134424.002500", "134425.502500", "134427.002500", "134428.502500", "134430.002500", "134431.502500", "134433.002500", "134434.502500", "134436.002500", "134437.502500", "134439.002500", "134440.502500", "134442.002500", "134443.502500", "134445.002500", "134446.502500", "134448.002500", "134449.502500", "134451.002500", "134452.502500", "134454.002500", "134455.502500", "134457.002500", "134458.502500", "134500.002500", "134501.502500", "134503.002500", "134504.502500", "134506.002500", "134507.502500", "134509.002500", "134510.502500", "134512.002500", "134513.502500", "134515.002500", "134516.502500"],
      "ContentTime": ["134124.733000", "134124.737000", "134124.739000", "134124.742000", "134124.745000", "134124.748000", "134124.751000", "134124.762000", "134204.728000", "134204.731000", "134204.734000", "134204.737000", "134204.749000", "134204.752000", "134204.755000", "134204.758000", "134204.761000", "134204.764000", "134204.767000", "134204.770000", "134204.782000", "134204.785000", "134204.788000", "134204.791000", "134204.794000", "134204.797000", "134204.805000", "134204.808000", "134204.811000", "134204.814000", "134204.817000", "134204.820000", "134204.823000", "134204.827000", "134204.829000", "134244.729000", "134244.732000", "134244.735000", "134244.738000", "134244.741000", "134244.744000", "134244.747000", "134244.749000", "134244.752000", "134244.764000", "134244.767000", "134244.770000", "134244.773000", "134244.776000", "134244.779000", "134244.782000", "134244.785000", "134244.788000", "134244.791000", "134244.794000", "134244.797000", "134244.800000", "134244.803000", "134244.805000", "134244.809000", "134244.811000", "134244.814000", "134324.728000", "134324.731000", "134324.734000", "134324.737000", "134324.740000", "134324.743000", "134324.746000", "134324.749000", "134324.752000", "134324.755000", "134324.758000", "134324.761000", "134324.764000", "134324.767000", "134324.770000", "134324.773000", "134324.776000", "134324.779000", "134324.782000", "134324.785000", "134324.788000", "134324.791000", "134324.794000", "134324.797000", "134324.800000", "134324.803000", "134404.728000", "134404.731000", "134404.734000", "134404.737000", "134404.740000", "134404.743000", "134404.746000", "134404.749000", "134404.752000", "134404.755000", "134404.758000", "134404.761000", "134404.764000", "134404.766000", "134404.769000", "134404.772000", "134404.775000", "134404.778000", "134404.781000", "134404.784000", "134404.794000", "134404.797000", "134404.800000", "134404.803000", "134404.806000", "134404.809000", "134404.812000", "134444.729000", "134444.732000", "134444.735000", "134444.738000", "134444.741000", "134444.744000", "134444.747000", "134444.750000", "134444.753000", "134444.756000", "134444.759000", "134444.761000", "134444.765000", "134444.768000", "134444.771000", "134444.774000", "134444.777000", "134444.780000", "134444.782000", "134444.785000", "134444.788000", "134444.791000", "134444.794000", "134444.797000", "134444.800000", "134444.803000", "134444.806000", "134517.513000", "134517.516000", "134517.519000", "134517.522000", "134517.526000", "134517.529000", "134517.532000", "134517.535000", "134517.538000", "134517.541000", "134517.544000", "134517.547000", "134517.550000", "134517.553000", "134517.556000", "134517.559000", "134517.562000", "134517.566000", "134517.569000", "134517.572000", "134517.575000", "134517.579000"],
      "InstanceCreationTime": ["134124.733000", "134124.737000", "134124.739000", "134124.742000", "134124.745000", "134124.748000", "134124.751000", "134124.762000", "134204.728000", "134204.731000", "134204.734000", "134204.737000", "134204.749000", "134204.752000", "134204.755000", "134204.758000", "134204.761000", "134204.764000", "134204.767000", "134204.770000", "134204.782000", "134204.785000", "134204.788000", "134204.791000", "134204.794000", "134204.797000", "134204.805000", "134204.808000", "134204.811000", "134204.814000", "134204.817000", "134204.820000", "134204.823000", "134204.827000", "134204.829000", "134244.729000", "134244.732000", "134244.735000", "134244.738000", "134244.741000", "134244.744000", "134244.747000", "134244.749000", "134244.752000", "134244.764000", "134244.767000", "134244.770000", "134244.773000", "134244.776000", "134244.779000", "134244.782000", "134244.785000", "134244.788000", "134244.791000", "134244.794000", "134244.797000", "134244.800000", "134244.803000", "134244.805000", "134244.809000", "134244.811000", "134244.814000", "134324.728000", "134324.731000", "134324.734000", "134324.737000", "134324.740000", "134324.743000", "134324.746000", "134324.749000", "134324.752000", "134324.755000", "134324.758000", "134324.761000", "134324.764000", "134324.767000", "134324.770000", "134324.773000", "134324.776000", "134324.779000", "134324.782000", "134324.785000", "134324.788000", "134324.791000", "134324.794000", "134324.797000", "134324.800000", "134324.803000", "134404.728000", "134404.731000", "134404.734000", "134404.737000", "134404.740000", "134404.743000", "134404.746000", "134404.749000", "134404.752000", "134404.755000", "134404.758000", "134404.761000", "134404.764000", "134404.766000", "134404.769000", "134404.772000", "134404.775000", "134404.778000", "134404.781000", "134404.784000", "134404.794000", "134404.797000", "134404.800000", "134404.803000", "134404.806000", "134404.809000", "134404.812000", "134444.729000", "134444.732000", "134444.735000", "134444.738000", "134444.741000", "134444.744000", "134444.747000", "134444.750000", "134444.753000", "134444.756000", "134444.759000", "134444.761000", "134444.765000", "134444.768000", "134444.771000", "134444.774000", "134444.777000", "134444.780000", "134444.782000", "134444.785000", "134444.788000", "134444.791000", "134444.794000", "134444.797000", "134444.800000", "134444.803000", "134444.806000", "134517.513000", "134517.516000", "134517.519000", "134517.522000", "134517.526000", "134517.529000", "134517.532000", "134517.535000", "134517.538000", "134517.541000", "134517.544000", "134517.547000", "134517.550000", "134517.553000", "134517.556000", "134517.559000", "134517.562000", "134517.566000", "134517.569000", "134517.572000", "134517.575000", "134517.579000"],
      "InstanceNumber": [1, 2, 3, 4, 5, 6, 7, 8, 9, 10, 11, 12, 13, 14, 15, 16, 17, 18, 19, 20, 21, 22, 23, 24, 25, 26, 27, 28, 29, 30, 31, 32, 33, 34, 35, 36, 37, 38, 39, 40, 41, 42, 43, 44, 45, 46, 47, 48, 49, 50, 51, 52, 53, 54, 55, 56, 57, 58, 59, 60, 61, 62, 63, 64, 65, 66, 67, 68, 69, 70, 71, 72, 73, 74, 75, 76, 77, 78, 79, 80, 81, 82, 83, 84, 85, 86, 87, 88, 89, 90, 91, 92, 93, 94, 95, 96, 97, 98, 99, 100, 101, 102, 103, 104, 105, 106, 107, 108, 109, 110, 111, 112, 113, 114, 115, 116, 117, 118, 119, 120, 121, 122, 123, 124, 125, 126, 127, 128, 129, 130, 131, 132, 133, 134, 135, 136, 137, 138, 139, 140, 141, 142, 143, 144, 145, 146, 147, 148, 149, 150, 151, 152, 153, 154, 155, 156, 157, 158, 159, 160, 161, 162, 163, 164],
      "LargestImagePixelValue": [2678, 2625, 2577, 2533, 2532, 2509, 2504, 2482, 2515, 2462, 2534, 2465, 2489, 2465, 2508, 2495, 2490, 2528, 2485, 2481, 2472, 2468, 2437, 2463, 2464, 2470, 2471, 2493, 2461, 2464, 2462, 2467, 2476, 2478, 2482, 2471, 2471, 2479, 2445, 2480, 2463, 2467, 2473, 2457, 2480, 2483, 2502, 2468, 2472, 2490, 2495, 2489, 2491, 2508, 2495, 2514, 2500, 2510, 2494, 2502, 2514, 2518, 2544, 2504, 2527, 2539, 2535, 2525, 2549, 2522, 2536, 2529, 2542, 2508, 2543, 2558, 2531, 2544, 2570, 2516, 2526, 2544, 2492, 2516, 2507, 2547, 2509, 2520, 2522, 2515, 2514, 2528, 2545, 2514, 2522, 2521, 2529, 2503, 2554, 2517, 2545, 2506, 2555, 2541, 2514, 2526, 2534, 2518, 2518, 2520, 2527, 2508, 2498, 2527, 2490, 2503, 2531, 2487, 2466, 2500, 2451, 2453, 2444, 2474, 2437, 2458, 2451, 2491, 2509, 2479, 2479, 2481, 2471, 2483, 2495, 2479, 2480, 2470, 2478, 2468, 2473, 2463, 2467, 2478, 2462, 2496, 2500, 2492, 2476, 2468, 2463, 2485, 2502, 2472, 2504, 2485, 2494, 2487, 2481, 2467, 2470, 2460, 2452, 2451],
      "WindowCenter": [747.0, 748.0, 747.0, 746.0, 746.0, 745.0, 746.0, 746.0, 746.0, 746.0, 746.0, 746.0, 747.0, 747.0, 747.0, 747.0, 747.0, 748.0, 748.0, 747.0, 748.0, 747.0, 747.0, 747.0, 747.0, 748.0, 749.0, 748.0, 748.0, 748.0, 748.0, 748.0, 747.0, 747.0, 747.0, 747.0, 747.0, 748.0, 749.0, 749.0, 749.0, 749.0, 749.0, 749.0, 748.0, 747.0, 747.0, 748.0, 748.0, 748.0, 748.0, 748.0, 748.0, 748.0, 748.0, 748.0, 749.0, 749.0, 749.0, 749.0, 748.0, 749.0, 748.0, 749.0, 750.0, 749.0, 749.0, 748.0, 747.0, 748.0, 748.0, 747.0, 748.0, 747.0, 749.0, 751.0, 750.0, 750.0, 749.0, 748.0, 748.0, 748.0, 748.0, 749.0, 749.0, 750.0, 749.0, 747.0, 747.0, 747.0, 748.0, 750.0, 749.0, 749.0, 748.0, 748.0, 749.0, 749.0, 750.0, 750.0, 749.0, 749.0, 750.0, 750.0, 749.0, 748.0, 749.0, 749.0, 750.0, 749.0, 748.0, 748.0, 747.0, 747.0, 747.0, 748.0, 748.0, 749.0, 748.0, 748.0, 748.0, 748.0, 747.0, 748.0, 749.0, 749.0, 748.0, 748.0, 748.0, 748.0, 748.0, 747.0, 747.0, 748.0, 748.0, 749.0, 749.0, 748.0, 747.0, 746.0, 746.0, 746.0, 747.0, 748.0, 748.0, 749.0, 747.0, 747.0, 747.0, 748.0, 749.0, 749.0, 748.0, 747.0, 747.0, 747.0, 747.0, 747.0, 747.0, 746.0, 748.0, 749.0, 750.0, 750.0],
      "WindowWidth": [1631.0, 1632.0, 1630.0, 1627.0, 1626.0, 1624.0, 1626.0, 1626.0, 1627.0, 1627.0, 1626.0, 1626.0, 1630.0, 1630.0, 1631.0, 1631.0, 1629.0, 1631.0, 1632.0, 1631.0, 1631.0, 1629.0, 1630.0, 1630.0, 1631.0, 1634.0, 1634.0, 1633.0, 1632.0, 1632.0, 1632.0, 1632.0, 1630.0, 1630.0, 1629.0, 1629.0, 1630.0, 1633.0, 1634.0, 1634.0, 1634.0, 1635.0, 1636.0, 1633.0, 1632.0, 1630.0, 1631.0, 1631.0, 1631.0, 1633.0, 1633.0, 1632.0, 1632.0, 1632.0, 1631.0, 1633.0, 1635.0, 1635.0, 1635.0, 1634.0, 1633.0, 1634.0, 1633.0, 1635.0, 1637.0, 1636.0, 1635.0, 1632.0, 1631.0, 1631.0, 1632.0, 1631.0, 1631.0, 1631.0, 1637.0, 1640.0, 1639.0, 1637.0, 1634.0, 1632.0, 1631.0, 1631.0, 1632.0, 1636.0, 1636.0, 1637.0, 1634.0, 1630.0, 1628.0, 1630.0, 1634.0, 1636.0, 1636.0, 1634.0, 1632.0, 1632.0, 1634.0, 1635.0, 1638.0, 1637.0, 1636.0, 1636.0, 1638.0, 1637.0, 1635.0, 1633.0, 1635.0, 1635.0, 1637.0, 1636.0, 1633.0, 1631.0, 1630.0, 1629.0, 1630.0, 1632.0, 1634.0, 1634.0, 1632.0, 1632.0, 1632.0, 1631.0, 1630.0, 1633.0, 1633.0, 1634.0, 1631.0, 1632.0, 1632.0, 1632.0, 1632.0, 1630.0, 1630.0, 1631.0, 1634.0, 1634.0, 1635.0, 1632.0, 1630.0, 1627.0, 1626.0, 1627.0, 1629.0, 1632.0, 1632.0, 1634.0, 1629.0, 1628.0, 1628.0, 1631.0, 1635.0, 1636.0, 1633.0, 1629.0, 1628.0, 1628.0, 1629.0, 1628.0, 1628.0, 1627.0, 1631.0, 1634.0, 1638.0, 1638.0]
    },
    "slices": {}
  }
}