{
  "AcquisitionMatrixPE": 72,
  "AcquisitionNumber": 1,
  "AcquisitionTime": "17:27:27.637500",
  "BandwidthPerPixelPhaseEncode": 17.943,
  "BaseResolution": 96,
  "BodyPartExamined": "BRAIN",
  "CoilCombinationMethod": "Sum of Squares",
  "ConsistencyInfo": "N4_VE11C_LATEST_20160120",
  "ConversionSoftware": "dcm2niix",
  "ConversionSoftwareVersion": "v1.0.20211006",
  "DerivedVendorReportedEchoSpacing": 0.000552897,
  "DeviceSerialNumber": "166011",
  "EchoTime": 0.03,
  "EchoTrainLength": 58,
  "EffectiveEchoSpacing": 0.000580542,
  "FlipAngle": 62,
  "ImageOrientationPatientDICOM": [0.999774, -0.020602, -0.00522608, 0.019022, 0.97699, -0.212437],
  "ImageType": [
    "ORIGINAL",
    "PRIMARY",
    "M",
    "ND",
    "MOSAIC"
],
  "ImagingFrequency": 123.26,
  "InPlanePhaseEncodingDirectionDICOM": "COL",
  "InstitutionAddress": "West 130th Street 610,NY,NYC,US,10025",
  "InstitutionName": "MBBI",
  "MRAcquisitionType": "2D",
  "MagneticFieldStrength": 3,
  "Manufacturer": "Siemens",
  "ManufacturersModelName": "Prisma",
  "Modality": "MR",
  "MultibandAccelerationFactor": 3,
  "PartialFourier": 0.75,
  "PatientPosition": "HFS",
  "PercentPhaseFOV": 100,
  "PercentSampling": 75,
  "PhaseEncodingDirection": "j-",
  "PhaseEncodingSteps": 58,
  "PhaseOversampling": 0.05,
  "PhaseResolution": 0.75,
  "PixelBandwidth": 2265,
  "ProcedureStepDescription": "White^Word_recognition",
  "ProtocolName": "func_vwfate_run4",
  "PulseSequenceDetails": "%SiemensSeq%\\ep2d_bold",
  "ReceiveCoilActiveElements": "HC1-6",
  "ReceiveCoilName": "HeadNeck_64",
  "ReconMatrixPE": 96,
  "RefLinesPE": 40,
  "RepetitionTime": 1.5,
  "SAR": 0.0442938,
  "ScanOptions": "PFP\\FS",
  "ScanningSequence": "EP",
  "SequenceName": "*epfid2d1_72",
  "SequenceVariant": "SK\\OSP",
  "SeriesDescription": "func_vwfate_run4",
  "SeriesNumber": 12,
  "ShimSetting": [-1154, -1179, 409, 335, -115, 470, -269, 59],
  "SliceThickness": 2,
  "SliceTiming": [1.075, 0, 0.74, 0.0675, 0.8075, 0.135, 0.875, 0.2025, 0.9425, 0.2675, 1.0075, 0.4025, 1.1425, 0.47, 1.21, 0.5375, 1.2775, 0.605, 1.345, 0.6725, 1.4125, 0.335, 1.075, 0, 0.74, 0.0675, 0.8075, 0.135, 0.875, 0.2025, 0.9425, 0.2675, 1.0075, 0.4025, 1.1425, 0.47, 1.21, 0.5375, 1.2775, 0.605, 1.345, 0.6725, 1.4125, 0.335, 1.075, 0, 0.74, 0.0675, 0.8075, 0.135, 0.875, 0.2025, 0.9425, 0.2675, 1.0075, 0.4025, 1.1425, 0.47, 1.21, 0.5375, 1.2775, 0.605, 1.345, 0.6725, 1.4125, 0.335],
  "SoftwareVersions": "syngo MR E11",
  "SpacingBetweenSlices": 2,
  "StationName": "AWP166011",
  "TaskName": "vwfate",
  "TotalReadoutTime": 0.0551515,
  "TxRefAmp": 220.297,
  "dcmmeta_affine": [
    [-1.9995481967926025, 0.038044050335884094, -0.01896490715444088, 95.90760040283203],
    [0.041204001754522324, 1.953979253768921, -0.4245791435241699, -65.076171875],
    [-0.01045216154307127, 0.424873948097229, 1.9543216228485107, -82.73023223876953],
    [0.0, 0.0, 0.0, 1.0]
],
  "dcmmeta_reorient_transform": [
    [0.0, -1.0, 0.0, 95.0],
    [1.0, 0.0, 0.0, 0.0],
    [0.0, 0.0, 1.0, 0.0],
    [0.0, 0.0, 0.0, 1.0]
],
  "dcmmeta_shape": [96, 96, 66, 164],
  "dcmmeta_slice_dim": 2,
  "dcmmeta_version": 0.6,
  "global": {
    "const": {
      "AcquisitionMatrix": [96, 0, 0, 72],
      "AngioFlag": "N",
      "BitsAllocated": 16,
      "BitsStored": 12,
      "BodyPartExamined": "BRAIN",
      "Columns": 864,
      "EchoNumbers": 1,
      "EchoTime": 30.0,
      "EchoTrainLength": 58,
      "FlipAngle": 62.0,
      "HighBit": 11,
      "ImageOrientationPatient": [0.99977409730566, -0.0206020007308, -0.0052260809936, 0.01902202492308, 0.97698960837591, -0.2124369734611],
      "ImagePositionPatient": [-881.95720652587, -855.05753665162, 124.79801588969],
      "ImageType": [
        "ORIGINAL",
        "PRIMARY",
        "M",
        "ND",
        "MOSAIC"
],
      "ImagedNucleus": "1H",
      "ImagingFrequency": 123.259628,
      "InPlanePhaseEncodingDirection": "COL",
      "MRAcquisitionType": "2D",
      "MagneticFieldStrength": 3.0,
      "Manufacturer": "SIEMENS",
      "ManufacturerModelName": "Prisma",
      "Modality": "MR",
      "NumberOfAverages": 1.0,
      "NumberOfPhaseEncodingSteps": 58,
      "PercentPhaseFieldOfView": 100.0,
      "PercentSampling": 75.0,
      "PerformedProcedureStepStartTime": "163807.587000",
      "PhotometricInterpretation": "MONOCHROME2",
      "PixelBandwidth": 2265.0,
      "PixelRepresentation": 0,
      "PixelSpacing": [2.0, 2.0],
      "ProtocolName": "func_vwfate_run4",
      "RepetitionTime": 1500.0,
      "Rows": 864,
      "SAR": 0.04429376149524,
      "SamplesPerPixel": 1,
      "ScanOptions": [
        "PFP",
        "FS"
],
      "ScanningSequence": "EP",
      "SequenceName": "*epfid2d1_72",
      "SequenceVariant": [
        "SK",
        "OSP"
],
      "SeriesDescription": "func_vwfate_run4",
      "SeriesNumber": 12,
      "SeriesTime": "172804.729000",
      "SliceLocation": -67.935188831929,
      "SliceThickness": 2.0,
      "SmallestImagePixelValue": 0,
      "SoftwareVersions": "syngo MR E11",
      "SpacingBetweenSlices": 1.9999999886161,
      "SpecificCharacterSet": "ISO_IR 100",
      "StudyID": "1",
      "StudyTime": "163807.526000",
      "TransmitCoilName": "Body",
      "VariableFlipAngleFlag": "N",
      "WindowCenterWidthExplanation": "Algo1",
      "dBdt": 0.0},
    "slices": {}
  },
  "time": {
    "samples": {
      "AcquisitionNumber": [1, 2, 3, 4, 5, 6, 7, 8, 9, 10, 11, 12, 13, 14, 15, 16, 17, 18, 19, 20, 21, 22, 23, 24, 25, 26, 27, 28, 29, 30, 31, 32, 33, 34, 35, 36, 37, 38, 39, 40, 41, 42, 43, 44, 45, 46, 47, 48, 49, 50, 51, 52, 53, 54, 55, 56, 57, 58, 59, 60, 61, 62, 63, 64, 65, 66, 67, 68, 69, 70, 71, 72, 73, 74, 75, 76, 77, 78, 79, 80, 81, 82, 83, 84, 85, 86, 87, 88, 89, 90, 91, 92, 93, 94, 95, 96, 97, 98, 99, 100, 101, 102, 103, 104, 105, 106, 107, 108, 109, 110, 111, 112, 113, 114, 115, 116, 117, 118, 119, 120, 121, 122, 123, 124, 125, 126, 127, 128, 129, 130, 131, 132, 133, 134, 135, 136, 137, 138, 139, 140, 141, 142, 143, 144, 145, 146, 147, 148, 149, 150, 151, 152, 153, 154, 155, 156, 157, 158, 159, 160, 161, 162, 163, 164],
      "AcquisitionTime": ["172727.637500", "172729.137500", "172730.637500", "172732.137500", "172733.637500", "172735.137500", "172736.637500", "172738.137500", "172739.637500", "172741.137500", "172742.637500", "172744.137500", "172745.637500", "172747.137500", "172748.637500", "172750.137500", "172751.637500", "172753.137500", "172754.637500", "172756.137500", "172757.637500", "172759.137500", "172800.637500", "172802.137500", "172803.637500", "172805.137500", "172806.637500", "172808.137500", "172809.637500", "172811.137500", "172812.637500", "172814.137500", "172815.637500", "172817.137500", "172818.637500", "172820.137500", "172821.637500", "172823.137500", "172824.637500", "172826.137500", "172827.637500", "172829.137500", "172830.637500", "172832.137500", "172833.637500", "172835.137500", "172836.637500", "172838.137500", "172839.637500", "172841.137500", "172842.637500", "172844.137500", "172845.637500", "172847.137500", "172848.637500", "172850.137500", "172851.637500", "172853.137500", "172854.637500", "172856.137500", "172857.637500", "172859.137500", "172900.637500", "172902.137500", "172903.637500", "172905.137500", "172906.637500", "172908.137500", "172909.637500", "172911.137500", "172912.637500", "172914.137500", "172915.637500", "172917.137500", "172918.637500", "172920.137500", "172921.637500", "172923.137500", "172924.637500", "172926.137500", "172927.637500", "172929.137500", "172930.637500", "172932.137500", "172933.637500", "172935.137500", "172936.637500", "172938.137500", "172939.637500", "172941.137500", "172942.637500", "172944.137500", "172945.637500", "172947.137500", "172948.637500", "172950.137500", "172951.637500", "172953.137500", "172954.637500", "172956.137500", "172957.637500", "172959.137500", "173000.637500", "173002.137500", "173003.637500", "173005.137500", "173006.637500", "173008.137500", "173009.637500", "173011.137500", "173012.637500", "173014.137500", "173015.637500", "173017.137500", "173018.637500", "173020.137500", "173021.637500", "173023.137500", "173024.637500", "173026.137500", "173027.637500", "173029.137500", "173030.637500", "173032.137500", "173033.637500", "173035.137500", "173036.637500", "173038.137500", "173039.637500", "173041.137500", "173042.637500", "173044.137500", "173045.637500", "173047.137500", "173048.637500", "173050.137500", "173051.637500", "173053.137500", "173054.637500", "173056.137500", "173057.637500", "173059.137500", "173100.637500", "173102.137500", "173103.637500", "173105.137500", "173106.637500", "173108.137500", "173109.637500", "173111.137500", "173112.637500", "173114.137500", "173115.637500", "173117.137500", "173118.637500", "173120.137500", "173121.637500", "173123.137500", "173124.637500", "173126.137500", "173127.637500", "173129.137500", "173130.637500", "173132.137500"],
      "ContentTime": ["172804.733000", "172804.737000", "172804.740000", "172804.743000", "172804.746000", "172804.755000", "172804.758000", "172804.761000", "172804.764000", "172804.766000", "172804.769000", "172804.772000", "172804.775000", "172804.778000", "172804.781000", "172804.788000", "172804.790000", "172804.793000", "172804.804000", "172804.807000", "172804.810000", "172804.814000", "172804.817000", "172804.820000", "172844.728000", "172844.731000", "172844.734000", "172844.737000", "172844.740000", "172844.743000", "172844.746000", "172844.749000", "172844.752000", "172844.755000", "172844.758000", "172844.761000", "172844.764000", "172844.767000", "172844.770000", "172844.773000", "172844.776000", "172844.779000", "172844.782000", "172844.785000", "172844.788000", "172844.791000", "172844.794000", "172844.797000", "172844.800000", "172844.803000", "172844.806000", "172924.729000", "172924.737000", "172924.740000", "172924.743000", "172924.746000", "172924.749000", "172924.752000", "172924.755000", "172924.758000", "172924.761000", "172924.764000", "172924.767000", "172924.770000", "172924.773000", "172924.776000", "172924.779000", "172924.782000", "172924.785000", "172924.788000", "172924.791000", "172924.794000", "172924.797000", "172924.800000", "172924.803000", "172924.806000", "172924.813000", "172924.816000", "173004.729000", "173004.732000", "173004.735000", "173004.738000", "173004.741000", "173004.744000", "173004.747000", "173004.750000", "173004.753000", "173004.756000", "173004.759000", "173004.762000", "173004.765000", "173004.768000", "173004.771000", "173004.774000", "173004.777000", "173004.780000", "173004.783000", "173004.786000", "173004.789000", "173004.803000", "173004.806000", "173004.809000", "173004.812000", "173004.815000", "173044.728000", "173044.731000", "173044.734000", "173044.737000", "173044.740000", "173044.743000", "173044.746000", "173044.749000", "173044.752000", "173044.755000", "173044.758000", "173044.761000", "173044.764000", "173044.767000", "173044.770000", "173044.773000", "173044.776000", "173044.779000", "173044.782000", "173044.785000", "173044.788000", "173044.791000", "173044.794000", "173044.797000", "173044.800000", "173044.803000", "173044.815000", "173104.728000", "173104.731000", "173104.734000", "173104.737000", "173104.740000", "173104.743000", "173104.746000", "173104.749000", "173104.752000", "173104.755000", "173104.758000", "173104.761000", "173104.764000", "173133.408000", "173133.412000", "173133.415000", "173133.418000", "173133.421000", "173133.424000", "173133.428000", "173133.431000", "173133.434000", "173133.437000", "173133.440000", "173133.443000", "173133.447000", "173133.450000", "173133.453000", "173133.456000", "173133.460000", "173133.463000", "173133.466000", "173133.469000"],
      "InstanceCreationTime": ["172804.733000", "172804.737000", "172804.740000", "172804.743000", "172804.746000", "172804.755000", "172804.758000", "172804.761000", "172804.764000", "172804.766000", "172804.769000", "172804.772000", "172804.775000", "172804.778000", "172804.781000", "172804.788000", "172804.790000", "172804.793000", "172804.804000", "172804.807000", "172804.810000", "172804.814000", "172804.817000", "172804.820000", "172844.728000", "172844.731000", "172844.734000", "172844.737000", "172844.740000", "172844.743000", "172844.746000", "172844.749000", "172844.752000", "172844.755000", "172844.758000", "172844.761000", "172844.764000", "172844.767000", "172844.770000", "172844.773000", "172844.776000", "172844.779000", "172844.782000", "172844.785000", "172844.788000", "172844.791000", "172844.794000", "172844.797000", "172844.800000", "172844.803000", "172844.806000", "172924.729000", "172924.737000", "172924.740000", "172924.743000", "172924.746000", "172924.749000", "172924.752000", "172924.755000", "172924.758000", "172924.761000", "172924.764000", "172924.767000", "172924.770000", "172924.773000", "172924.776000", "172924.779000", "172924.782000", "172924.785000", "172924.788000", "172924.791000", "172924.794000", "172924.797000", "172924.800000", "172924.803000", "172924.806000", "172924.813000", "172924.816000", "173004.729000", "173004.732000", "173004.735000", "173004.738000", "173004.741000", "173004.744000", "173004.747000", "173004.750000", "173004.753000", "173004.756000", "173004.759000", "173004.762000", "173004.765000", "173004.768000", "173004.771000", "173004.774000", "173004.777000", "173004.780000", "173004.783000", "173004.786000", "173004.789000", "173004.803000", "173004.806000", "173004.809000", "173004.812000", "173004.815000", "173044.728000", "173044.731000", "173044.734000", "173044.737000", "173044.740000", "173044.743000", "173044.746000", "173044.749000", "173044.752000", "173044.755000", "173044.758000", "173044.761000", "173044.764000", "173044.767000", "173044.770000", "173044.773000", "173044.776000", "173044.779000", "173044.782000", "173044.785000", "173044.788000", "173044.791000", "173044.794000", "173044.797000", "173044.800000", "173044.803000", "173044.815000", "173104.728000", "173104.731000", "173104.734000", "173104.737000", "173104.740000", "173104.743000", "173104.746000", "173104.749000", "173104.752000", "173104.755000", "173104.758000", "173104.761000", "173104.764000", "173133.408000", "173133.412000", "173133.415000", "173133.418000", "173133.421000", "173133.424000", "173133.428000", "173133.431000", "173133.434000", "173133.437000", "173133.440000", "173133.443000", "173133.447000", "173133.450000", "173133.453000", "173133.456000", "173133.460000", "173133.463000", "173133.466000", "173133.469000"],
      "InstanceNumber": [1, 2, 3, 4, 5, 6, 7, 8, 9, 10, 11, 12, 13, 14, 15, 16, 17, 18, 19, 20, 21, 22, 23, 24, 25, 26, 27, 28, 29, 30, 31, 32, 33, 34, 35, 36, 37, 38, 39, 40, 41, 42, 43, 44, 45, 46, 47, 48, 49, 50, 51, 52, 53, 54, 55, 56, 57, 58, 59, 60, 61, 62, 63, 64, 65, 66, 67, 68, 69, 70, 71, 72, 73, 74, 75, 76, 77, 78, 79, 80, 81, 82, 83, 84, 85, 86, 87, 88, 89, 90, 91, 92, 93, 94, 95, 96, 97, 98, 99, 100, 101, 102, 103, 104, 105, 106, 107, 108, 109, 110, 111, 112, 113, 114, 115, 116, 117, 118, 119, 120, 121, 122, 123, 124, 125, 126, 127, 128, 129, 130, 131, 132, 133, 134, 135, 136, 137, 138, 139, 140, 141, 142, 143, 144, 145, 146, 147, 148, 149, 150, 151, 152, 153, 154, 155, 156, 157, 158, 159, 160, 161, 162, 163, 164],
      "LargestImagePixelValue": [3195, 3228, 3165, 3134, 3166, 3111, 3135, 3153, 3251, 3140, 3231, 3117, 3251, 3142, 3241, 3119, 3176, 3159, 3173, 3191, 3159, 3149, 3092, 3146, 3117, 3149, 3151, 3180, 3118, 3081, 3075, 3132, 3138, 3149, 3118, 3107, 3157, 3140, 3257, 3282, 3267, 3248, 3182, 3194, 3163, 3195, 3216, 3216, 3215, 3187, 3171, 3219, 3209, 3216, 3206, 3201, 3205, 3170, 3230, 3182, 3182, 3175, 3214, 3159, 3207, 3181, 3227, 3205, 3263, 3198, 3161, 3256, 3163, 3232, 3204, 3190, 3161, 3215, 3213, 3214, 3191, 3214, 3220, 3237, 3273, 3265, 3209, 3179, 3255, 3251, 3323, 3303, 3215, 3228, 3252, 3134, 3189, 3195, 3280, 3190, 3223, 3229, 3178, 3252, 3156, 3199, 3277, 3233, 3269, 3180, 3251, 3157, 3262, 3156, 3226, 3173, 3201, 3196, 3263, 3141, 3136, 3138, 3124, 3158, 3081, 3185, 3119, 3139, 3114, 3091, 3111, 3101, 3089, 3021, 3035, 2993, 3013, 3108, 3053, 3063, 2986, 2999, 3021, 3017, 3051, 3029, 3063, 2954, 3087, 3259, 3132, 3132, 3078, 2982, 3118, 2961, 3022, 3028, 2971, 2925, 2912, 2959, 2940, 3015],
      "WindowCenter": [698.0, 697.0, 695.0, 693.0, 694.0, 694.0, 695.0, 694.0, 695.0, 695.0, 696.0, 696.0, 697.0, 694.0, 694.0, 695.0, 697.0, 696.0, 694.0, 694.0, 695.0, 696.0, 696.0, 696.0, 694.0, 695.0, 696.0, 698.0, 696.0, 695.0, 695.0, 697.0, 697.0, 697.0, 695.0, 694.0, 695.0, 695.0, 696.0, 697.0, 697.0, 697.0, 695.0, 695.0, 694.0, 695.0, 695.0, 695.0, 696.0, 695.0, 696.0, 697.0, 696.0, 696.0, 697.0, 696.0, 695.0, 695.0, 697.0, 696.0, 698.0, 696.0, 697.0, 696.0, 695.0, 696.0, 697.0, 696.0, 696.0, 695.0, 695.0, 696.0, 695.0, 696.0, 698.0, 698.0, 697.0, 697.0, 696.0, 696.0, 695.0, 695.0, 696.0, 698.0, 697.0, 696.0, 695.0, 693.0, 695.0, 696.0, 697.0, 696.0, 694.0, 695.0, 696.0, 695.0, 696.0, 695.0, 696.0, 696.0, 696.0, 697.0, 696.0, 696.0, 696.0, 696.0, 695.0, 695.0, 696.0, 695.0, 696.0, 696.0, 698.0, 695.0, 695.0, 695.0, 695.0, 696.0, 697.0, 695.0, 695.0, 695.0, 696.0, 695.0, 693.0, 693.0, 692.0, 694.0, 695.0, 694.0, 694.0, 694.0, 694.0, 694.0, 692.0, 693.0, 694.0, 694.0, 693.0, 693.0, 692.0, 691.0, 691.0, 692.0, 694.0, 692.0, 693.0, 692.0, 692.0, 694.0, 692.0, 692.0, 693.0, 692.0, 693.0, 688.0, 689.0, 690.0, 690.0, 691.0, 692.0, 692.0, 692.0, 692.0],
      "WindowWidth": [1523.0, 1518.0, 1513.0, 1505.0, 1508.0, 1510.0, 1512.0, 1510.0, 1511.0, 1511.0, 1515.0, 1514.0, 1516.0, 1508.0, 1510.0, 1511.0, 1516.0, 1515.0, 1509.0, 1509.0, 1512.0, 1515.0, 1515.0, 1515.0, 1509.0, 1511.0, 1516.0, 1519.0, 1516.0, 1511.0, 1512.0, 1516.0, 1516.0, 1517.0, 1513.0, 1509.0, 1512.0, 1512.0, 1515.0, 1517.0, 1518.0, 1516.0, 1511.0, 1513.0, 1509.0, 1512.0, 1513.0, 1512.0, 1515.0, 1513.0, 1514.0, 1516.0, 1514.0, 1514.0, 1518.0, 1514.0, 1512.0, 1513.0, 1518.0, 1516.0, 1519.0, 1516.0, 1516.0, 1513.0, 1513.0, 1514.0, 1516.0, 1515.0, 1514.0, 1512.0, 1512.0, 1515.0, 1511.0, 1516.0, 1519.0, 1521.0, 1516.0, 1516.0, 1515.0, 1514.0, 1513.0, 1512.0, 1516.0, 1520.0, 1518.0, 1515.0, 1511.0, 1507.0, 1511.0, 1515.0, 1517.0, 1513.0, 1510.0, 1512.0, 1513.0, 1511.0, 1515.0, 1512.0, 1514.0, 1515.0, 1514.0, 1516.0, 1514.0, 1513.0, 1513.0, 1513.0, 1512.0, 1512.0, 1515.0, 1512.0, 1514.0, 1516.0, 1520.0, 1512.0, 1512.0, 1513.0, 1510.0, 1514.0, 1516.0, 1511.0, 1511.0, 1512.0, 1514.0, 1513.0, 1506.0, 1506.0, 1504.0, 1510.0, 1512.0, 1510.0, 1509.0, 1509.0, 1509.0, 1508.0, 1504.0, 1507.0, 1510.0, 1510.0, 1505.0, 1506.0, 1504.0, 1501.0, 1502.0, 1504.0, 1509.0, 1503.0, 1506.0, 1504.0, 1502.0, 1509.0, 1504.0, 1503.0, 1506.0, 1503.0, 1506.0, 1494.0, 1494.0, 1497.0, 1498.0, 1501.0, 1503.0, 1504.0, 1504.0, 1504.0]
    },
    "slices": {}
  }
}