{
  "AcquisitionMatrixPE": 72,
  "AcquisitionNumber": 1,
  "AcquisitionTime": "17:34:22.937500",
  "BandwidthPerPixelPhaseEncode": 17.943,
  "BaseResolution": 96,
  "BodyPartExamined": "BRAIN",
  "CoilCombinationMethod": "Sum of Squares",
  "ConsistencyInfo": "N4_VE11C_LATEST_20160120",
  "ConversionSoftware": "dcm2niix",
  "ConversionSoftwareVersion": "v1.0.20211006",
  "DerivedVendorReportedEchoSpacing": 0.000552897,
  "DeviceSerialNumber": "166011",
  "EchoTime": 0.03,
  "EchoTrainLength": 58,
  "EffectiveEchoSpacing": 0.000580542,
  "FlipAngle": 62,
  "ImageOrientationPatientDICOM": [0.999774, -0.020602, -0.00522608, 0.019022, 0.97699, -0.212437],
  "ImageType": [
    "ORIGINAL",
    "PRIMARY",
    "M",
    "ND",
    "MOSAIC"
],
  "ImagingFrequency": 123.26,
  "InPlanePhaseEncodingDirectionDICOM": "COL",
  "InstitutionAddress": "West 130th Street 610,NY,NYC,US,10025",
  "InstitutionName": "MBBI",
  "MRAcquisitionType": "2D",
  "MagneticFieldStrength": 3,
  "Manufacturer": "Siemens",
  "ManufacturersModelName": "Prisma",
  "Modality": "MR",
  "MultibandAccelerationFactor": 3,
  "PartialFourier": 0.75,
  "PatientPosition": "HFS",
  "PercentPhaseFOV": 100,
  "PercentSampling": 75,
  "PhaseEncodingDirection": "j-",
  "PhaseEncodingSteps": 58,
  "PhaseOversampling": 0.05,
  "PhaseResolution": 0.75,
  "PixelBandwidth": 2265,
  "ProcedureStepDescription": "White^Word_recognition",
  "ProtocolName": "func_catLoc_run2",
  "PulseSequenceDetails": "%SiemensSeq%\\ep2d_bold",
  "ReceiveCoilActiveElements": "HC1-6",
  "ReceiveCoilName": "HeadNeck_64",
  "ReconMatrixPE": 96,
  "RefLinesPE": 40,
  "RepetitionTime": 1.5,
  "SAR": 0.0444324,
  "ScanOptions": "PFP\\FS",
  "ScanningSequence": "EP",
  "SequenceName": "*epfid2d1_72",
  "SequenceVariant": "SK\\OSP",
  "SeriesDescription": "func_catLoc_run2",
  "SeriesNumber": 13,
  "ShimSetting": [-1154, -1179, 409, 335, -115, 470, -269, 59],
  "SliceThickness": 2,
  "SliceTiming": [1.0775, 0, 0.74, 0.0675, 0.8075, 0.135, 0.875, 0.2025, 0.9425, 0.27, 1.01, 0.405, 1.145, 0.4725, 1.2125, 0.54, 1.28, 0.6075, 1.3475, 0.675, 1.415, 0.3375, 1.0775, 0, 0.74, 0.0675, 0.8075, 0.135, 0.875, 0.2025, 0.9425, 0.27, 1.01, 0.405, 1.145, 0.4725, 1.2125, 0.54, 1.28, 0.6075, 1.3475, 0.675, 1.415, 0.3375, 1.0775, 0, 0.74, 0.0675, 0.8075, 0.135, 0.875, 0.2025, 0.9425, 0.27, 1.01, 0.405, 1.145, 0.4725, 1.2125, 0.54, 1.28, 0.6075, 1.3475, 0.675, 1.415, 0.3375],
  "SoftwareVersions": "syngo MR E11",
  "SpacingBetweenSlices": 2,
  "StationName": "AWP166011",
  "TaskName": "catLoc",
  "TotalReadoutTime": 0.0551515,
  "TxRefAmp": 220.297,
  "dcmmeta_affine": [
    [-1.9995481967926025, 0.038044050335884094, -0.01896490715444088, 95.90760040283203],
    [0.041204001754522324, 1.953979253768921, -0.4245791435241699, -65.076171875],
    [-0.01045216154307127, 0.424873948097229, 1.9543216228485107, -82.73023223876953],
    [0.0, 0.0, 0.0, 1.0]
],
  "dcmmeta_reorient_transform": [
    [0.0, -1.0, 0.0, 95.0],
    [1.0, 0.0, 0.0, 0.0],
    [0.0, 0.0, 1.0, 0.0],
    [0.0, 0.0, 0.0, 1.0]
],
  "dcmmeta_shape": [96, 96, 66, 214],
  "dcmmeta_slice_dim": 2,
  "dcmmeta_version": 0.6,
  "global": {
    "const": {
      "AcquisitionMatrix": [96, 0, 0, 72],
      "AngioFlag": "N",
      "BitsAllocated": 16,
      "BitsStored": 12,
      "BodyPartExamined": "BRAIN",
      "Columns": 864,
      "EchoNumbers": 1,
      "EchoTime": 30.0,
      "EchoTrainLength": 58,
      "FlipAngle": 62.0,
      "HighBit": 11,
      "ImageOrientationPatient": [0.99977409730566, -0.0206020007308, -0.0052260809936, 0.01902202492308, 0.97698960837591, -0.2124369734611],
      "ImagePositionPatient": [-881.95720652587, -855.05753665162, 124.79801588969],
      "ImageType": [
        "ORIGINAL",
        "PRIMARY",
        "M",
        "ND",
        "MOSAIC"
],
      "ImagedNucleus": "1H",
      "ImagingFrequency": 123.259629,
      "InPlanePhaseEncodingDirection": "COL",
      "MRAcquisitionType": "2D",
      "MagneticFieldStrength": 3.0,
      "Manufacturer": "SIEMENS",
      "ManufacturerModelName": "Prisma",
      "Modality": "MR",
      "NumberOfAverages": 1.0,
      "NumberOfPhaseEncodingSteps": 58,
      "PercentPhaseFieldOfView": 100.0,
      "PercentSampling": 75.0,
      "PerformedProcedureStepStartTime": "163807.587000",
      "PhotometricInterpretation": "MONOCHROME2",
      "PixelBandwidth": 2265.0,
      "PixelRepresentation": 0,
      "PixelSpacing": [2.0, 2.0],
      "ProtocolName": "func_catLoc_run2",
      "RepetitionTime": 1500.0,
      "Rows": 864,
      "SAR": 0.04443237916325,
      "SamplesPerPixel": 1,
      "ScanOptions": [
        "PFP",
        "FS"
],
      "ScanningSequence": "EP",
      "SequenceName": "*epfid2d1_72",
      "SequenceVariant": [
        "SK",
        "OSP"
],
      "SeriesDescription": "func_catLoc_run2",
      "SeriesNumber": 13,
      "SeriesTime": "173504.802000",
      "SliceLocation": -67.935188831929,
      "SliceThickness": 2.0,
      "SmallestImagePixelValue": 0,
      "SoftwareVersions": "syngo MR E11",
      "SpacingBetweenSlices": 1.9999999886161,
      "SpecificCharacterSet": "ISO_IR 100",
      "StudyID": "1",
      "StudyTime": "163807.526000",
      "TransmitCoilName": "Body",
      "VariableFlipAngleFlag": "N",
      "WindowCenterWidthExplanation": "Algo1",
      "dBdt": 0.0},
    "slices": {}
  },
  "time": {
    "samples": {
      "AcquisitionNumber": [1, 2, 3, 4, 5, 6, 7, 8, 9, 10, 11, 12, 13, 14, 15, 16, 17, 18, 19, 20, 21, 22, 23, 24, 25, 26, 27, 28, 29, 30, 31, 32, 33, 34, 35, 36, 37, 38, 39, 40, 41, 42, 43, 44, 45, 46, 47, 48, 49, 50, 51, 52, 53, 54, 55, 56, 57, 58, 59, 60, 61, 62, 63, 64, 65, 66, 67, 68, 69, 70, 71, 72, 73, 74, 75, 76, 77, 78, 79, 80, 81, 82, 83, 84, 85, 86, 87, 88, 89, 90, 91, 92, 93, 94, 95, 96, 97, 98, 99, 100, 101, 102, 103, 104, 105, 106, 107, 108, 109, 110, 111, 112, 113, 114, 115, 116, 117, 118, 119, 120, 121, 122, 123, 124, 125, 126, 127, 128, 129, 130, 131, 132, 133, 134, 135, 136, 137, 138, 139, 140, 141, 142, 143, 144, 145, 146, 147, 148, 149, 150, 151, 152, 153, 154, 155, 156, 157, 158, 159, 160, 161, 162, 163, 164, 165, 166, 167, 168, 169, 170, 171, 172, 173, 174, 175, 176, 177, 178, 179, 180, 181, 182, 183, 184, 185, 186, 187, 188, 189, 190, 191, 192, 193, 194, 195, 196, 197, 198, 199, 200, 201, 202, 203, 204, 205, 206, 207, 208, 209, 210, 211, 212, 213, 214],
      "AcquisitionTime": ["173422.937500", "173424.437500", "173425.937500", "173427.437500", "173428.937500", "173430.437500", "173431.937500", "173433.437500", "173434.937500", "173436.437500", "173437.937500", "173439.437500", "173440.937500", "173442.437500", "173443.937500", "173445.437500", "173446.937500", "173448.437500", "173449.937500", "173451.437500", "173452.937500", "173454.437500", "173455.937500", "173457.437500", "173458.937500", "173500.437500", "173501.937500", "173503.437500", "173504.937500", "173506.437500", "173507.937500", "173509.437500", "173510.937500", "173512.437500", "173513.937500", "173515.437500", "173516.937500", "173518.437500", "173519.937500", "173521.437500", "173522.937500", "173524.437500", "173525.937500", "173527.437500", "173528.937500", "173530.437500", "173531.937500", "173533.437500", "173534.937500", "173536.437500", "173537.937500", "173539.437500", "173540.937500", "173542.437500", "173543.937500", "173545.437500", "173546.937500", "173548.437500", "173549.937500", "173551.437500", "173552.937500", "173554.437500", "173555.937500", "173557.437500", "173558.937500", "173600.437500", "173601.937500", "173603.437500", "173604.937500", "173606.437500", "173607.937500", "173609.437500", "173610.937500", "173612.437500", "173613.937500", "173615.437500", "173616.937500", "173618.437500", "173619.937500", "173621.437500", "173622.937500", "173624.437500", "173625.937500", "173627.437500", "173628.937500", "173630.437500", "173631.937500", "173633.437500", "173634.937500", "173636.437500", "173637.937500", "173639.437500", "173640.937500", "173642.437500", "173643.937500", "173645.437500", "173646.937500", "173648.437500", "173649.937500", "173651.437500", "173652.937500", "173654.437500", "173655.937500", "173657.437500", "173658.937500", "173700.437500", "173701.937500", "173703.437500", "173704.937500", "173706.437500", "173707.937500", "173709.437500", "173710.937500", "173712.437500", "173713.937500", "173715.437500", "173716.937500", "173718.437500", "173719.937500", "173721.437500", "173722.937500", "173724.437500", "173725.937500", "173727.437500", "173728.937500", "173730.437500", "173731.937500", "173733.437500", "173734.937500", "173736.437500", "173737.937500", "173739.437500", "173740.937500", "173742.437500", "173743.937500", "173745.437500", "173746.937500", "173748.437500", "173749.937500", "173751.437500", "173752.937500", "173754.437500", "173755.937500", "173757.437500", "173758.937500", "173800.437500", "173801.937500", "173803.437500", "173804.937500", "173806.437500", "173807.937500", "173809.437500", "173810.937500", "173812.437500", "173813.937500", "173815.437500", "173816.937500", "173818.437500", "173819.937500", "173821.437500", "173822.937500", "173824.437500", "173825.937500", "173827.437500", "173828.937500", "173830.437500", "173831.937500", "173833.437500", "173834.937500", "173836.437500", "173837.937500", "173839.437500", "173840.937500", "173842.437500", "173843.937500", "173845.437500", "173846.937500", "173848.437500", "173849.937500", "173851.437500", "173852.937500", "173854.437500", "173855.937500", "173857.437500", "173858.937500", "173900.437500", "173901.937500", "173903.437500", "173904.937500", "173906.437500", "173907.937500", "173909.437500", "173910.937500", "173912.437500", "173913.937500", "173915.437500", "173916.937500", "173918.437500", "173919.937500", "173921.437500", "173922.937500", "173924.437500", "173925.937500", "173927.437500", "173928.937500", "173930.437500", "173931.937500", "173933.437500", "173934.937500", "173936.437500", "173937.937500", "173939.437500", "173940.937500", "173942.437500"],
      "ContentTime": ["173504.806000", "173504.810000", "173504.813000", "173504.816000", "173504.819000", "173504.822000", "173504.825000", "173504.828000", "173504.831000", "173504.834000", "173504.837000", "173504.840000", "173504.843000", "173504.846000", "173504.849000", "173504.852000", "173504.855000", "173504.858000", "173504.861000", "173504.864000", "173504.872000", "173504.875000", "173504.878000", "173504.881000", "173504.884000", "173504.887000", "173504.890000", "173504.893000", "173544.801000", "173544.804000", "173544.807000", "173544.810000", "173544.813000", "173544.816000", "173544.819000", "173544.822000", "173544.825000", "173544.828000", "173544.831000", "173544.834000", "173544.837000", "173544.840000", "173544.843000", "173544.846000", "173544.849000", "173544.852000", "173544.859000", "173544.862000", "173544.865000", "173544.868000", "173544.871000", "173544.874000", "173544.877000", "173544.880000", "173544.883000", "173624.802000", "173624.805000", "173624.808000", "173624.811000", "173624.814000", "173624.817000", "173624.820000", "173624.823000", "173624.826000", "173624.829000", "173624.832000", "173624.835000", "173624.838000", "173624.841000", "173624.844000", "173624.847000", "173624.850000", "173624.853000", "173624.856000", "173624.859000", "173624.862000", "173624.865000", "173624.868000", "173624.878000", "173624.881000", "173624.884000", "173704.802000", "173704.805000", "173704.808000", "173704.811000", "173704.814000", "173704.817000", "173704.820000", "173704.823000", "173704.826000", "173704.829000", "173704.832000", "173704.835000", "173704.838000", "173704.846000", "173704.849000", "173704.852000", "173704.855000", "173704.858000", "173704.861000", "173704.864000", "173704.867000", "173704.870000", "173704.873000", "173704.876000", "173704.879000", "173704.882000", "173704.885000", "173744.801000", "173744.804000", "173744.807000", "173744.810000", "173744.813000", "173744.816000", "173744.819000", "173744.822000", "173744.825000", "173744.828000", "173744.831000", "173744.834000", "173744.837000", "173744.840000", "173744.843000", "173744.846000", "173744.849000", "173744.852000", "173744.855000", "173744.858000", "173744.861000", "173744.864000", "173744.867000", "173744.870000", "173744.873000", "173744.876000", "173744.879000", "173824.801000", "173824.804000", "173824.807000", "173824.810000", "173824.813000", "173824.816000", "173824.819000", "173824.822000", "173824.825000", "173824.828000", "173824.831000", "173824.834000", "173824.837000", "173824.840000", "173824.843000", "173824.846000", "173824.849000", "173824.852000", "173824.855000", "173824.858000", "173824.861000", "173824.864000", "173824.867000", "173824.870000", "173824.873000", "173824.876000", "173904.802000", "173904.805000", "173904.808000", "173904.811000", "173904.814000", "173904.817000", "173904.820000", "173904.823000", "173904.826000", "173904.829000", "173904.832000", "173904.835000", "173904.838000", "173904.841000", "173904.844000", "173904.847000", "173904.850000", "173904.853000", "173904.856000", "173904.859000", "173904.862000", "173904.865000", "173904.868000", "173904.871000", "173904.882000", "173904.885000", "173904.888000", "173943.185000", "173943.189000", "173943.192000", "173943.195000", "173943.198000", "173943.201000", "173943.205000", "173943.208000", "173943.211000", "173943.214000", "173943.217000", "173943.220000", "173943.224000", "173943.227000", "173943.230000", "173943.233000", "173943.236000", "173943.239000", "173943.243000", "173943.246000", "173943.249000", "173943.253000", "173943.256000", "173943.259000", "173943.265000", "173943.268000"],
      "InstanceCreationTime": ["173504.806000", "173504.810000", "173504.813000", "173504.816000", "173504.819000", "173504.822000", "173504.825000", "173504.828000", "173504.831000", "173504.834000", "173504.837000", "173504.840000", "173504.843000", "173504.846000", "173504.849000", "173504.852000", "173504.855000", "173504.858000", "173504.861000", "173504.864000", "173504.872000", "173504.875000", "173504.878000", "173504.881000", "173504.884000", "173504.887000", "173504.890000", "173504.893000", "173544.801000", "173544.804000", "173544.807000", "173544.810000", "173544.813000", "173544.816000", "173544.819000", "173544.822000", "173544.825000", "173544.828000", "173544.831000", "173544.834000", "173544.837000", "173544.840000", "173544.843000", "173544.846000", "173544.849000", "173544.852000", "173544.859000", "173544.862000", "173544.865000", "173544.868000", "173544.871000", "173544.874000", "173544.877000", "173544.880000", "173544.883000", "173624.802000", "173624.805000", "173624.808000", "173624.811000", "173624.814000", "173624.817000", "173624.820000", "173624.823000", "173624.826000", "173624.829000", "173624.832000", "173624.835000", "173624.838000", "173624.841000", "173624.844000", "173624.847000", "173624.850000", "173624.853000", "173624.856000", "173624.859000", "173624.862000", "173624.865000", "173624.868000", "173624.878000", "173624.881000", "173624.884000", "173704.802000", "173704.805000", "173704.808000", "173704.811000", "173704.814000", "173704.817000", "173704.820000", "173704.823000", "173704.826000", "173704.829000", "173704.832000", "173704.835000", "173704.838000", "173704.846000", "173704.849000", "173704.852000", "173704.855000", "173704.858000", "173704.861000", "173704.864000", "173704.867000", "173704.870000", "173704.873000", "173704.876000", "173704.879000", "173704.882000", "173704.885000", "173744.801000", "173744.804000", "173744.807000", "173744.810000", "173744.813000", "173744.816000", "173744.819000", "173744.822000", "173744.825000", "173744.828000", "173744.831000", "173744.834000", "173744.837000", "173744.840000", "173744.843000", "173744.846000", "173744.849000", "173744.852000", "173744.855000", "173744.858000", "173744.861000", "173744.864000", "173744.867000", "173744.870000", "173744.873000", "173744.876000", "173744.879000", "173824.801000", "173824.804000", "173824.807000", "173824.810000", "173824.813000", "173824.816000", "173824.819000", "173824.822000", "173824.825000", "173824.828000", "173824.831000", "173824.834000", "173824.837000", "173824.840000", "173824.843000", "173824.846000", "173824.849000", "173824.852000", "173824.855000", "173824.858000", "173824.861000", "173824.864000", "173824.867000", "173824.870000", "173824.873000", "173824.876000", "173904.802000", "173904.805000", "173904.808000", "173904.811000", "173904.814000", "173904.817000", "173904.820000", "173904.823000", "173904.826000", "173904.829000", "173904.832000", "173904.835000", "173904.838000", "173904.841000", "173904.844000", "173904.847000", "173904.850000", "173904.853000", "173904.856000", "173904.859000", "173904.862000", "173904.865000", "173904.868000", "173904.871000", "173904.882000", "173904.885000", "173904.888000", "173943.185000", "173943.189000", "173943.192000", "173943.195000", "173943.198000", "173943.201000", "173943.205000", "173943.208000", "173943.211000", "173943.214000", "173943.217000", "173943.220000", "173943.224000", "173943.227000", "173943.230000", "173943.233000", "173943.236000", "173943.239000", "173943.243000", "173943.246000", "173943.249000", "173943.253000", "173943.256000", "173943.259000", "173943.265000", "173943.268000"],
      "InstanceNumber": [1, 2, 3, 4, 5, 6, 7, 8, 9, 10, 11, 12, 13, 14, 15, 16, 17, 18, 19, 20, 21, 22, 23, 24, 25, 26, 27, 28, 29, 30, 31, 32, 33, 34, 35, 36, 37, 38, 39, 40, 41, 42, 43, 44, 45, 46, 47, 48, 49, 50, 51, 52, 53, 54, 55, 56, 57, 58, 59, 60, 61, 62, 63, 64, 65, 66, 67, 68, 69, 70, 71, 72, 73, 74, 75, 76, 77, 78, 79, 80, 81, 82, 83, 84, 85, 86, 87, 88, 89, 90, 91, 92, 93, 94, 95, 96, 97, 98, 99, 100, 101, 102, 103, 104, 105, 106, 107, 108, 109, 110, 111, 112, 113, 114, 115, 116, 117, 118, 119, 120, 121, 122, 123, 124, 125, 126, 127, 128, 129, 130, 131, 132, 133, 134, 135, 136, 137, 138, 139, 140, 141, 142, 143, 144, 145, 146, 147, 148, 149, 150, 151, 152, 153, 154, 155, 156, 157, 158, 159, 160, 161, 162, 163, 164, 165, 166, 167, 168, 169, 170, 171, 172, 173, 174, 175, 176, 177, 178, 179, 180, 181, 182, 183, 184, 185, 186, 187, 188, 189, 190, 191, 192, 193, 194, 195, 196, 197, 198, 199, 200, 201, 202, 203, 204, 205, 206, 207, 208, 209, 210, 211, 212, 213, 214],
      "LargestImagePixelValue": [3181, 3133, 3203, 3237, 3204, 3137, 3131, 3096, 3116, 3075, 3095, 3051, 3120, 3092, 3051, 3120, 3019, 3112, 3050, 3091, 3043, 3095, 3095, 3069, 3083, 3073, 3108, 3100, 3094, 3088, 3160, 3097, 3119, 3078, 3126, 3091, 3149, 3098, 3152, 3115, 3124, 3098, 3149, 3123, 3096, 3035, 3076, 3017, 3038, 3015, 3073, 3031, 3058, 3042, 3120, 3063, 3079, 3159, 3098, 3085, 3120, 3026, 3096, 3080, 3131, 3063, 3107, 3082, 3089, 3055, 3052, 3080, 3075, 3058, 3099, 3071, 3087, 3038, 3040, 3004, 3062, 3094, 3049, 3086, 3117, 3072, 3095, 3067, 3080, 3069, 3063, 3088, 3050, 3048, 3076, 3111, 3067, 3095, 3072, 3086, 3103, 3105, 3073, 3078, 3073, 3058, 3067, 3042, 3075, 3112, 3058, 3072, 3051, 3052, 3038, 3030, 3042, 3024, 3035, 3039, 3013, 3017, 3066, 3020, 2965, 2947, 2963, 2968, 2963, 2996, 2963, 2977, 2964, 2962, 2970, 2962, 2993, 2971, 3080, 2978, 2952, 2961, 2995, 3003, 3016, 3031, 3027, 3017, 3034, 3047, 3043, 3007, 3076, 3038, 3053, 3012, 3024, 2995, 3021, 3014, 3027, 3035, 3052, 3017, 3033, 2965, 3014, 3035, 2987, 2989, 2983, 2988, 2889, 3391, 3173, 3099, 3067, 3014, 3050, 3064, 3019, 3146, 3085, 3136, 3112, 3151, 3036, 3022, 3052, 3031, 2982, 3031, 3014, 3098, 2974, 3044, 2975, 3043, 2955, 3036, 2975, 3016, 3004, 3034, 3090, 2963, 3016, 2992, 3019, 3040, 2993, 3086, 3036, 3052],
      "WindowCenter": [695.0, 694.0, 694.0, 693.0, 692.0, 692.0, 692.0, 692.0, 692.0, 694.0, 694.0, 693.0, 694.0, 694.0, 693.0, 692.0, 693.0, 693.0, 693.0, 694.0, 694.0, 695.0, 695.0, 695.0, 695.0, 694.0, 694.0, 692.0, 693.0, 694.0, 694.0, 695.0, 696.0, 695.0, 693.0, 694.0, 695.0, 695.0, 696.0, 694.0, 694.0, 693.0, 694.0, 693.0, 693.0, 693.0, 693.0, 693.0, 694.0, 694.0, 693.0, 693.0, 694.0, 694.0, 694.0, 693.0, 693.0, 694.0, 693.0, 693.0, 694.0, 694.0, 694.0, 693.0, 693.0, 693.0, 693.0, 694.0, 693.0, 694.0, 694.0, 696.0, 695.0, 694.0, 695.0, 696.0, 695.0, 693.0, 694.0, 695.0, 695.0, 694.0, 693.0, 695.0, 697.0, 695.0, 694.0, 693.0, 694.0, 695.0, 696.0, 694.0, 694.0, 694.0, 694.0, 694.0, 694.0, 694.0, 695.0, 695.0, 693.0, 692.0, 693.0, 694.0, 694.0, 693.0, 694.0, 695.0, 696.0, 693.0, 691.0, 692.0, 693.0, 693.0, 690.0, 689.0, 688.0, 689.0, 690.0, 691.0, 690.0, 690.0, 691.0, 692.0, 692.0, 691.0, 691.0, 691.0, 691.0, 691.0, 692.0, 692.0, 692.0, 692.0, 691.0, 691.0, 692.0, 690.0, 691.0, 690.0, 690.0, 692.0, 692.0, 691.0, 691.0, 691.0, 692.0, 692.0, 691.0, 691.0, 691.0, 691.0, 693.0, 691.0, 690.0, 691.0, 692.0, 692.0, 692.0, 692.0, 689.0, 690.0, 692.0, 692.0, 691.0, 691.0, 692.0, 692.0, 691.0, 691.0, 690.0, 691.0, 685.0, 680.0, 683.0, 682.0, 682.0, 683.0, 682.0, 680.0, 679.0, 680.0, 680.0, 683.0, 682.0, 683.0, 681.0, 686.0, 686.0, 685.0, 685.0, 686.0, 687.0, 688.0, 686.0, 686.0, 685.0, 686.0, 685.0, 685.0, 685.0, 686.0, 686.0, 686.0, 685.0, 685.0, 686.0, 686.0, 686.0, 686.0, 685.0, 686.0, 685.0, 685.0],
      "WindowWidth": [1513.0, 1511.0, 1509.0, 1506.0, 1502.0, 1501.0, 1504.0, 1502.0, 1503.0, 1508.0, 1508.0, 1506.0, 1508.0, 1509.0, 1506.0, 1504.0, 1505.0, 1507.0, 1506.0, 1508.0, 1509.0, 1511.0, 1512.0, 1510.0, 1511.0, 1508.0, 1509.0, 1504.0, 1505.0, 1508.0, 1509.0, 1511.0, 1513.0, 1511.0, 1506.0, 1508.0, 1512.0, 1512.0, 1513.0, 1510.0, 1508.0, 1507.0, 1508.0, 1507.0, 1506.0, 1505.0, 1507.0, 1507.0, 1508.0, 1509.0, 1505.0, 1505.0, 1509.0, 1510.0, 1509.0, 1506.0, 1506.0, 1508.0, 1507.0, 1507.0, 1509.0, 1509.0, 1510.0, 1507.0, 1507.0, 1507.0, 1508.0, 1508.0, 1508.0, 1508.0, 1510.0, 1514.0, 1512.0, 1510.0, 1511.0, 1514.0, 1510.0, 1507.0, 1510.0, 1511.0, 1510.0, 1508.0, 1506.0, 1512.0, 1516.0, 1512.0, 1510.0, 1506.0, 1508.0, 1511.0, 1514.0, 1509.0, 1509.0, 1508.0, 1508.0, 1510.0, 1509.0, 1509.0, 1511.0, 1511.0, 1505.0, 1504.0, 1506.0, 1510.0, 1509.0, 1506.0, 1510.0, 1513.0, 1513.0, 1506.0, 1501.0, 1504.0, 1508.0, 1505.0, 1498.0, 1495.0, 1494.0, 1495.0, 1499.0, 1501.0, 1499.0, 1497.0, 1501.0, 1504.0, 1503.0, 1502.0, 1502.0, 1500.0, 1501.0, 1503.0, 1504.0, 1503.0, 1504.0, 1503.0, 1501.0, 1501.0, 1503.0, 1499.0, 1502.0, 1498.0, 1500.0, 1503.0, 1505.0, 1500.0, 1500.0, 1502.0, 1505.0, 1503.0, 1500.0, 1500.0, 1502.0, 1502.0, 1506.0, 1502.0, 1499.0, 1500.0, 1505.0, 1505.0, 1504.0, 1502.0, 1496.0, 1499.0, 1502.0, 1504.0, 1502.0, 1501.0, 1502.0, 1503.0, 1501.0, 1501.0, 1499.0, 1500.0, 1485.0, 1472.0, 1479.0, 1477.0, 1477.0, 1478.0, 1475.0, 1471.0, 1468.0, 1471.0, 1471.0, 1477.0, 1476.0, 1479.0, 1474.0, 1488.0, 1487.0, 1485.0, 1484.0, 1489.0, 1491.0, 1492.0, 1489.0, 1487.0, 1486.0, 1486.0, 1486.0, 1486.0, 1486.0, 1487.0, 1487.0, 1487.0, 1485.0, 1485.0, 1487.0, 1487.0, 1487.0, 1487.0, 1485.0, 1487.0, 1485.0, 1484.0]
    },
    "slices": {}
  }
}