{
  "AcquisitionMatrixPE": 72,
  "AcquisitionNumber": 1,
  "AcquisitionTime": "16:58:43.522500",
  "BandwidthPerPixelPhaseEncode": 17.943,
  "BaseResolution": 96,
  "BodyPartExamined": "BRAIN",
  "CoilCombinationMethod": "Sum of Squares",
  "ConsistencyInfo": "N4_VE11C_LATEST_20160120",
  "ConversionSoftware": "dcm2niix",
  "ConversionSoftwareVersion": "v1.0.20211006",
  "DerivedVendorReportedEchoSpacing": 0.000552897,
  "DeviceSerialNumber": "166011",
  "EchoTime": 0.03,
  "EchoTrainLength": 58,
  "EffectiveEchoSpacing": 0.000580542,
  "FlipAngle": 62,
  "ImageOrientationPatientDICOM": [0.999774, -0.020602, -0.00522608, 0.019022, 0.97699, -0.212437],
  "ImageType": [
    "ORIGINAL",
    "PRIMARY",
    "M",
    "ND",
    "MOSAIC"
],
  "ImagingFrequency": 123.26,
  "InPlanePhaseEncodingDirectionDICOM": "COL",
  "InstitutionAddress": "West 130th Street 610,NY,NYC,US,10025",
  "InstitutionName": "MBBI",
  "MRAcquisitionType": "2D",
  "MagneticFieldStrength": 3,
  "Manufacturer": "Siemens",
  "ManufacturersModelName": "Prisma",
  "Modality": "MR",
  "MultibandAccelerationFactor": 3,
  "PartialFourier": 0.75,
  "PatientPosition": "HFS",
  "PercentPhaseFOV": 100,
  "PercentSampling": 75,
  "PhaseEncodingDirection": "j-",
  "PhaseEncodingSteps": 58,
  "PhaseOversampling": 0.05,
  "PhaseResolution": 0.75,
  "PixelBandwidth": 2265,
  "ProcedureStepDescription": "White^Word_recognition",
  "ProtocolName": "func_vwfate_run1",
  "PulseSequenceDetails": "%SiemensSeq%\\ep2d_bold",
  "ReceiveCoilActiveElements": "HC1-6",
  "ReceiveCoilName": "HeadNeck_64",
  "ReconMatrixPE": 96,
  "RefLinesPE": 40,
  "RepetitionTime": 1.5,
  "SAR": 0.0442938,
  "ScanOptions": "PFP\\FS",
  "ScanningSequence": "EP",
  "SequenceName": "*epfid2d1_72",
  "SequenceVariant": "SK\\OSP",
  "SeriesDescription": "func_vwfate_run1",
  "SeriesNumber": 8,
  "ShimSetting": [-1154, -1179, 409, 335, -115, 470, -269, 59],
  "SliceThickness": 2,
  "SliceTiming": [1.0775, 0, 0.74, 0.0675, 0.8075, 0.135, 0.875, 0.2025, 0.9425, 0.27, 1.01, 0.405, 1.145, 0.4725, 1.2125, 0.54, 1.28, 0.6075, 1.3475, 0.675, 1.415, 0.3375, 1.0775, 0, 0.74, 0.0675, 0.8075, 0.135, 0.875, 0.2025, 0.9425, 0.27, 1.01, 0.405, 1.145, 0.4725, 1.2125, 0.54, 1.28, 0.6075, 1.3475, 0.675, 1.415, 0.3375, 1.0775, 0, 0.74, 0.0675, 0.8075, 0.135, 0.875, 0.2025, 0.9425, 0.27, 1.01, 0.405, 1.145, 0.4725, 1.2125, 0.54, 1.28, 0.6075, 1.3475, 0.675, 1.415, 0.3375],
  "SoftwareVersions": "syngo MR E11",
  "SpacingBetweenSlices": 2,
  "StationName": "AWP166011",
  "TaskName": "vwfate",
  "TotalReadoutTime": 0.0551515,
  "TxRefAmp": 220.297,
  "dcmmeta_affine": [
    [-1.9995481967926025, 0.038044050335884094, -0.01896490715444088, 95.90760040283203],
    [0.041204001754522324, 1.953979253768921, -0.4245791435241699, -65.076171875],
    [-0.01045216154307127, 0.424873948097229, 1.9543216228485107, -82.73023223876953],
    [0.0, 0.0, 0.0, 1.0]
],
  "dcmmeta_reorient_transform": [
    [0.0, -1.0, 0.0, 95.0],
    [1.0, 0.0, 0.0, 0.0],
    [0.0, 0.0, 1.0, 0.0],
    [0.0, 0.0, 0.0, 1.0]
],
  "dcmmeta_shape": [96, 96, 66, 164],
  "dcmmeta_slice_dim": 2,
  "dcmmeta_version": 0.6,
  "global": {
    "const": {
      "AcquisitionMatrix": [96, 0, 0, 72],
      "AngioFlag": "N",
      "BitsAllocated": 16,
      "BitsStored": 12,
      "BodyPartExamined": "BRAIN",
      "Columns": 864,
      "EchoNumbers": 1,
      "EchoTime": 30.0,
      "EchoTrainLength": 58,
      "FlipAngle": 62.0,
      "HighBit": 11,
      "ImageOrientationPatient": [0.99977409730566, -0.0206020007308, -0.0052260809936, 0.01902202492308, 0.97698960837591, -0.2124369734611],
      "ImagePositionPatient": [-881.95720652587, -855.05753665162, 124.79801588969],
      "ImageType": [
        "ORIGINAL",
        "PRIMARY",
        "M",
        "ND",
        "MOSAIC"
],
      "ImagedNucleus": "1H",
      "ImagingFrequency": 123.259619,
      "InPlanePhaseEncodingDirection": "COL",
      "MRAcquisitionType": "2D",
      "MagneticFieldStrength": 3.0,
      "Manufacturer": "SIEMENS",
      "ManufacturerModelName": "Prisma",
      "Modality": "MR",
      "NumberOfAverages": 1.0,
      "NumberOfPhaseEncodingSteps": 58,
      "PercentPhaseFieldOfView": 100.0,
      "PercentSampling": 75.0,
      "PerformedProcedureStepStartTime": "163807.587000",
      "PhotometricInterpretation": "MONOCHROME2",
      "PixelBandwidth": 2265.0,
      "PixelRepresentation": 0,
      "PixelSpacing": [2.0, 2.0],
      "ProtocolName": "func_vwfate_run1",
      "RepetitionTime": 1500.0,
      "Rows": 864,
      "SAR": 0.04429376149524,
      "SamplesPerPixel": 1,
      "ScanOptions": [
        "PFP",
        "FS"
],
      "ScanningSequence": "EP",
      "SequenceName": "*epfid2d1_72",
      "SequenceVariant": [
        "SK",
        "OSP"
],
      "SeriesDescription": "func_vwfate_run1",
      "SeriesNumber": 8,
      "SeriesTime": "165924.656000",
      "SliceLocation": -67.935188831929,
      "SliceThickness": 2.0,
      "SmallestImagePixelValue": 0,
      "SoftwareVersions": "syngo MR E11",
      "SpacingBetweenSlices": 1.9999999886161,
      "SpecificCharacterSet": "ISO_IR 100",
      "StudyID": "1",
      "StudyTime": "163807.526000",
      "TransmitCoilName": "Body",
      "VariableFlipAngleFlag": "N",
      "WindowCenterWidthExplanation": "Algo1",
      "dBdt": 0.0},
    "slices": {}
  },
  "time": {
    "samples": {
      "AcquisitionNumber": [1, 2, 3, 4, 5, 6, 7, 8, 9, 10, 11, 12, 13, 14, 15, 16, 17, 18, 19, 20, 21, 22, 23, 24, 25, 26, 27, 28, 29, 30, 31, 32, 33, 34, 35, 36, 37, 38, 39, 40, 41, 42, 43, 44, 45, 46, 47, 48, 49, 50, 51, 52, 53, 54, 55, 56, 57, 58, 59, 60, 61, 62, 63, 64, 65, 66, 67, 68, 69, 70, 71, 72, 73, 74, 75, 76, 77, 78, 79, 80, 81, 82, 83, 84, 85, 86, 87, 88, 89, 90, 91, 92, 93, 94, 95, 96, 97, 98, 99, 100, 101, 102, 103, 104, 105, 106, 107, 108, 109, 110, 111, 112, 113, 114, 115, 116, 117, 118, 119, 120, 121, 122, 123, 124, 125, 126, 127, 128, 129, 130, 131, 132, 133, 134, 135, 136, 137, 138, 139, 140, 141, 142, 143, 144, 145, 146, 147, 148, 149, 150, 151, 152, 153, 154, 155, 156, 157, 158, 159, 160, 161, 162, 163, 164],
      "AcquisitionTime": ["165843.522500", "165845.022500", "165846.522500", "165848.022500", "165849.522500", "165851.022500", "165852.522500", "165854.022500", "165855.522500", "165857.022500", "165858.522500", "165900.022500", "165901.522500", "165903.022500", "165904.522500", "165906.022500", "165907.522500", "165909.022500", "165910.522500", "165912.022500", "165913.522500", "165915.022500", "165916.522500", "165918.022500", "165919.522500", "165921.022500", "165922.522500", "165924.022500", "165925.522500", "165927.022500", "165928.522500", "165930.022500", "165931.522500", "165933.022500", "165934.522500", "165936.022500", "165937.522500", "165939.022500", "165940.522500", "165942.022500", "165943.522500", "165945.022500", "165946.522500", "165948.022500", "165949.522500", "165951.022500", "165952.522500", "165954.022500", "165955.522500", "165957.022500", "165958.522500", "170000.022500", "170001.522500", "170003.022500", "170004.522500", "170006.022500", "170007.522500", "170009.022500", "170010.522500", "170012.022500", "170013.522500", "170015.022500", "170016.522500", "170018.022500", "170019.522500", "170021.022500", "170022.522500", "170024.022500", "170025.522500", "170027.022500", "170028.522500", "170030.022500", "170031.522500", "170033.022500", "170034.522500", "170036.022500", "170037.522500", "170039.022500", "170040.522500", "170042.022500", "170043.522500", "170045.022500", "170046.522500", "170048.022500", "170049.522500", "170051.022500", "170052.522500", "170054.022500", "170055.522500", "170057.022500", "170058.522500", "170100.022500", "170101.522500", "170103.022500", "170104.522500", "170106.022500", "170107.522500", "170109.022500", "170110.522500", "170112.022500", "170113.522500", "170115.022500", "170116.522500", "170118.022500", "170119.522500", "170121.022500", "170122.522500", "170124.022500", "170125.522500", "170127.022500", "170128.522500", "170130.022500", "170131.522500", "170133.022500", "170134.522500", "170136.022500", "170137.522500", "170139.022500", "170140.522500", "170142.022500", "170143.522500", "170145.022500", "170146.522500", "170148.022500", "170149.522500", "170151.022500", "170152.522500", "170154.022500", "170155.522500", "170157.022500", "170158.522500", "170200.022500", "170201.522500", "170203.022500", "170204.522500", "170206.022500", "170207.522500", "170209.022500", "170210.522500", "170212.022500", "170213.522500", "170215.022500", "170216.522500", "170218.022500", "170219.522500", "170221.022500", "170222.522500", "170224.022500", "170225.522500", "170227.022500", "170228.522500", "170230.022500", "170231.522500", "170233.022500", "170234.522500", "170236.022500", "170237.522500", "170239.022500", "170240.522500", "170242.022500", "170243.522500", "170245.022500", "170246.522500", "170248.022500"],
      "ContentTime": ["165924.660000", "165924.664000", "165924.667000", "165924.670000", "165924.673000", "165924.676000", "165924.679000", "165924.682000", "165924.685000", "165924.688000", "165924.691000", "165924.694000", "165924.708000", "165924.710000", "165924.714000", "165924.718000", "165924.721000", "165924.724000", "165924.727000", "165924.737000", "165924.740000", "165924.743000", "165924.746000", "165924.749000", "165924.752000", "165924.755000", "165924.758000", "170004.655000", "170004.658000", "170004.661000", "170004.664000", "170004.676000", "170004.679000", "170004.682000", "170004.685000", "170004.688000", "170004.691000", "170004.694000", "170004.697000", "170004.700000", "170004.703000", "170004.706000", "170004.709000", "170004.724000", "170004.727000", "170004.730000", "170004.733000", "170004.736000", "170004.739000", "170004.742000", "170004.745000", "170004.748000", "170004.751000", "170004.754000", "170044.654000", "170044.657000", "170044.660000", "170044.663000", "170044.666000", "170044.669000", "170044.672000", "170044.675000", "170044.678000", "170044.681000", "170044.684000", "170044.687000", "170044.690000", "170044.693000", "170044.696000", "170044.699000", "170044.702000", "170044.705000", "170044.708000", "170044.721000", "170044.724000", "170044.727000", "170044.730000", "170044.733000", "170044.736000", "170044.739000", "170044.742000", "170104.654000", "170104.657000", "170104.660000", "170104.663000", "170104.666000", "170104.670000", "170104.673000", "170104.675000", "170104.678000", "170104.682000", "170104.685000", "170104.687000", "170104.690000", "170144.655000", "170144.658000", "170144.661000", "170144.664000", "170144.667000", "170144.670000", "170144.674000", "170144.676000", "170144.679000", "170144.682000", "170144.686000", "170144.689000", "170144.691000", "170144.694000", "170144.698000", "170144.701000", "170144.704000", "170144.707000", "170144.710000", "170144.713000", "170144.716000", "170144.719000", "170144.722000", "170144.725000", "170144.728000", "170144.731000", "170144.734000", "170224.655000", "170224.658000", "170224.661000", "170224.664000", "170224.667000", "170224.670000", "170224.673000", "170224.676000", "170224.679000", "170224.682000", "170224.685000", "170224.700000", "170224.703000", "170224.706000", "170224.710000", "170224.714000", "170224.717000", "170224.720000", "170224.722000", "170224.726000", "170224.729000", "170224.732000", "170224.735000", "170224.738000", "170224.741000", "170224.744000", "170248.961000", "170248.965000", "170248.968000", "170248.971000", "170248.975000", "170248.978000", "170248.981000", "170248.984000", "170248.988000", "170248.991000", "170248.994000", "170248.997000", "170249.002000", "170249.005000", "170249.008000", "170249.011000", "170249.014000"],
      "InstanceCreationTime": ["165924.660000", "165924.664000", "165924.667000", "165924.670000", "165924.673000", "165924.676000", "165924.679000", "165924.682000", "165924.685000", "165924.688000", "165924.691000", "165924.694000", "165924.708000", "165924.710000", "165924.714000", "165924.718000", "165924.721000", "165924.724000", "165924.727000", "165924.737000", "165924.740000", "165924.743000", "165924.746000", "165924.749000", "165924.752000", "165924.755000", "165924.758000", "170004.655000", "170004.658000", "170004.661000", "170004.664000", "170004.676000", "170004.679000", "170004.682000", "170004.685000", "170004.688000", "170004.691000", "170004.694000", "170004.697000", "170004.700000", "170004.703000", "170004.706000", "170004.709000", "170004.724000", "170004.727000", "170004.730000", "170004.733000", "170004.736000", "170004.739000", "170004.742000", "170004.745000", "170004.748000", "170004.751000", "170004.754000", "170044.654000", "170044.657000", "170044.660000", "170044.663000", "170044.666000", "170044.669000", "170044.672000", "170044.675000", "170044.678000", "170044.681000", "170044.684000", "170044.687000", "170044.690000", "170044.693000", "170044.696000", "170044.699000", "170044.702000", "170044.705000", "170044.708000", "170044.721000", "170044.724000", "170044.727000", "170044.730000", "170044.733000", "170044.736000", "170044.739000", "170044.742000", "170104.654000", "170104.657000", "170104.660000", "170104.663000", "170104.666000", "170104.670000", "170104.673000", "170104.675000", "170104.678000", "170104.682000", "170104.685000", "170104.687000", "170104.690000", "170144.655000", "170144.658000", "170144.661000", "170144.664000", "170144.667000", "170144.670000", "170144.674000", "170144.676000", "170144.679000", "170144.682000", "170144.686000", "170144.689000", "170144.691000", "170144.694000", "170144.698000", "170144.701000", "170144.704000", "170144.707000", "170144.710000", "170144.713000", "170144.716000", "170144.719000", "170144.722000", "170144.725000", "170144.728000", "170144.731000", "170144.734000", "170224.655000", "170224.658000", "170224.661000", "170224.664000", "170224.667000", "170224.670000", "170224.673000", "170224.676000", "170224.679000", "170224.682000", "170224.685000", "170224.700000", "170224.703000", "170224.706000", "170224.710000", "170224.714000", "170224.717000", "170224.720000", "170224.722000", "170224.726000", "170224.729000", "170224.732000", "170224.735000", "170224.738000", "170224.741000", "170224.744000", "170248.961000", "170248.965000", "170248.968000", "170248.971000", "170248.975000", "170248.978000", "170248.981000", "170248.984000", "170248.988000", "170248.991000", "170248.994000", "170248.997000", "170249.002000", "170249.005000", "170249.008000", "170249.011000", "170249.014000"],
      "InstanceNumber": [1, 2, 3, 4, 5, 6, 7, 8, 9, 10, 11, 12, 13, 14, 15, 16, 17, 18, 19, 20, 21, 22, 23, 24, 25, 26, 27, 28, 29, 30, 31, 32, 33, 34, 35, 36, 37, 38, 39, 40, 41, 42, 43, 44, 45, 46, 47, 48, 49, 50, 51, 52, 53, 54, 55, 56, 57, 58, 59, 60, 61, 62, 63, 64, 65, 66, 67, 68, 69, 70, 71, 72, 73, 74, 75, 76, 77, 78, 79, 80, 81, 82, 83, 84, 85, 86, 87, 88, 89, 90, 91, 92, 93, 94, 95, 96, 97, 98, 99, 100, 101, 102, 103, 104, 105, 106, 107, 108, 109, 110, 111, 112, 113, 114, 115, 116, 117, 118, 119, 120, 121, 122, 123, 124, 125, 126, 127, 128, 129, 130, 131, 132, 133, 134, 135, 136, 137, 138, 139, 140, 141, 142, 143, 144, 145, 146, 147, 148, 149, 150, 151, 152, 153, 154, 155, 156, 157, 158, 159, 160, 161, 162, 163, 164],
      "LargestImagePixelValue": [3369, 3266, 3236, 3209, 3175, 3217, 3233, 3258, 3255, 3285, 3259, 3216, 3274, 3241, 3283, 3300, 3240, 3245, 3221, 3237, 3247, 3233, 3272, 3296, 3224, 3271, 3232, 3246, 3269, 3277, 3302, 3268, 3248, 3271, 3270, 3232, 3289, 3256, 3265, 3234, 3243, 3236, 3279, 3251, 3242, 3256, 3275, 3257, 3304, 3245, 3316, 3244, 3257, 3279, 3267, 3262, 3229, 3234, 3248, 3208, 3222, 3215, 3230, 3246, 3264, 3243, 3216, 3220, 3246, 3255, 3252, 3235, 3209, 3249, 3246, 3212, 3215, 3226, 3230, 3253, 3256, 3232, 3259, 3294, 3289, 3276, 3255, 3280, 3244, 3248, 3239, 3294, 3245, 3270, 3255, 3246, 3255, 3212, 3300, 3248, 3223, 3230, 3244, 3254, 3222, 3240, 3216, 3242, 3253, 3249, 3253, 3236, 3233, 3252, 3245, 3238, 3261, 3223, 3228, 3200, 3194, 3183, 3198, 3186, 3162, 3155, 3165, 3156, 3164, 3166, 3185, 3228, 3176, 3155, 3217, 3203, 3212, 3183, 3216, 3212, 3217, 3199, 3206, 3192, 3154, 3180, 3186, 3227, 3213, 3230, 3198, 3203, 3232, 3205, 3159, 3151, 3135, 3174, 3230, 3222, 3183, 3173, 3170, 3176],
      "WindowCenter": [700.0, 698.0, 698.0, 698.0, 697.0, 696.0, 697.0, 698.0, 698.0, 699.0, 699.0, 698.0, 698.0, 698.0, 698.0, 698.0, 698.0, 698.0, 698.0, 698.0, 697.0, 697.0, 698.0, 699.0, 698.0, 699.0, 699.0, 698.0, 700.0, 699.0, 700.0, 700.0, 700.0, 700.0, 699.0, 698.0, 699.0, 699.0, 699.0, 698.0, 699.0, 699.0, 700.0, 699.0, 699.0, 699.0, 698.0, 698.0, 699.0, 699.0, 699.0, 699.0, 699.0, 697.0, 696.0, 698.0, 700.0, 701.0, 699.0, 698.0, 699.0, 700.0, 700.0, 699.0, 697.0, 698.0, 699.0, 699.0, 699.0, 698.0, 698.0, 698.0, 697.0, 698.0, 699.0, 701.0, 699.0, 699.0, 698.0, 698.0, 699.0, 698.0, 698.0, 698.0, 698.0, 698.0, 696.0, 696.0, 697.0, 698.0, 697.0, 698.0, 698.0, 697.0, 696.0, 696.0, 698.0, 698.0, 699.0, 697.0, 697.0, 697.0, 698.0, 698.0, 699.0, 698.0, 697.0, 697.0, 697.0, 698.0, 698.0, 698.0, 697.0, 698.0, 698.0, 697.0, 697.0, 697.0, 696.0, 696.0, 697.0, 697.0, 697.0, 696.0, 697.0, 697.0, 699.0, 699.0, 698.0, 698.0, 696.0, 696.0, 697.0, 698.0, 699.0, 697.0, 697.0, 697.0, 697.0, 697.0, 696.0, 696.0, 697.0, 699.0, 699.0, 699.0, 697.0, 695.0, 696.0, 697.0, 698.0, 697.0, 696.0, 696.0, 697.0, 698.0, 697.0, 695.0, 694.0, 695.0, 697.0, 698.0, 698.0, 697.0],
      "WindowWidth": [1529.0, 1522.0, 1522.0, 1523.0, 1519.0, 1518.0, 1518.0, 1522.0, 1522.0, 1525.0, 1523.0, 1522.0, 1522.0, 1521.0, 1522.0, 1522.0, 1523.0, 1522.0, 1522.0, 1521.0, 1520.0, 1520.0, 1522.0, 1525.0, 1523.0, 1525.0, 1523.0, 1523.0, 1527.0, 1525.0, 1526.0, 1527.0, 1528.0, 1527.0, 1525.0, 1523.0, 1523.0, 1524.0, 1525.0, 1523.0, 1524.0, 1524.0, 1527.0, 1525.0, 1525.0, 1523.0, 1522.0, 1523.0, 1525.0, 1526.0, 1525.0, 1524.0, 1523.0, 1519.0, 1517.0, 1522.0, 1527.0, 1531.0, 1525.0, 1523.0, 1525.0, 1528.0, 1528.0, 1524.0, 1518.0, 1521.0, 1523.0, 1523.0, 1524.0, 1522.0, 1521.0, 1521.0, 1518.0, 1522.0, 1526.0, 1529.0, 1526.0, 1525.0, 1521.0, 1520.0, 1524.0, 1521.0, 1520.0, 1522.0, 1522.0, 1522.0, 1517.0, 1516.0, 1520.0, 1522.0, 1519.0, 1521.0, 1520.0, 1519.0, 1515.0, 1516.0, 1521.0, 1521.0, 1525.0, 1520.0, 1519.0, 1518.0, 1521.0, 1523.0, 1524.0, 1522.0, 1520.0, 1518.0, 1520.0, 1521.0, 1521.0, 1520.0, 1518.0, 1521.0, 1522.0, 1519.0, 1520.0, 1520.0, 1517.0, 1517.0, 1519.0, 1520.0, 1519.0, 1517.0, 1519.0, 1520.0, 1524.0, 1525.0, 1523.0, 1521.0, 1517.0, 1517.0, 1519.0, 1523.0, 1524.0, 1520.0, 1520.0, 1518.0, 1519.0, 1518.0, 1515.0, 1515.0, 1519.0, 1524.0, 1524.0, 1525.0, 1519.0, 1514.0, 1517.0, 1518.0, 1521.0, 1520.0, 1516.0, 1517.0, 1520.0, 1520.0, 1518.0, 1513.0, 1511.0, 1513.0, 1518.0, 1521.0, 1521.0, 1520.0]
    },
    "slices": {}
  }
}