{
  "AcquisitionMatrixPE": 72,
  "AcquisitionNumber": 1,
  "AcquisitionTime": "09:32:40.575000",
  "BandwidthPerPixelPhaseEncode": 17.943,
  "BaseResolution": 96,
  "BodyPartExamined": "BRAIN",
  "CoilCombinationMethod": "Sum of Squares",
  "ConsistencyInfo": "N4_VE11C_LATEST_20160120",
  "ConversionSoftware": "dcm2niix",
  "ConversionSoftwareVersion": "v1.0.20211006",
  "DerivedVendorReportedEchoSpacing": 0.000552897,
  "DeviceSerialNumber": "166011",
  "EchoTime": 0.03,
  "EchoTrainLength": 58,
  "EffectiveEchoSpacing": 0.000580542,
  "FlipAngle": 62,
  "ImageOrientationPatientDICOM": [0.997548, -0.0699703, 0.00121562, 0.0699304, 0.996018, -0.0552904],
  "ImageType": [
    "ORIGINAL",
    "PRIMARY",
    "M",
    "ND",
    "MOSAIC"
],
  "ImagingFrequency": 123.26,
  "InPlanePhaseEncodingDirectionDICOM": "COL",
  "InstitutionAddress": "West 130th Street 610,NY,NYC,US,10025",
  "InstitutionName": "MBBI",
  "MRAcquisitionType": "2D",
  "MagneticFieldStrength": 3,
  "Manufacturer": "Siemens",
  "ManufacturersModelName": "Prisma",
  "Modality": "MR",
  "MultibandAccelerationFactor": 3,
  "PartialFourier": 0.75,
  "PatientPosition": "HFS",
  "PercentPhaseFOV": 100,
  "PercentSampling": 75,
  "PhaseEncodingDirection": "j-",
  "PhaseEncodingSteps": 58,
  "PhaseOversampling": 0.05,
  "PhaseResolution": 0.75,
  "PixelBandwidth": 2265,
  "ProcedureStepDescription": "White^Word_recognition",
  "ProtocolName": "func_vwfate_run9",
  "PulseSequenceDetails": "%SiemensSeq%\\ep2d_bold",
  "ReceiveCoilActiveElements": "HC1-7",
  "ReceiveCoilName": "HeadNeck_64",
  "ReconMatrixPE": 96,
  "RefLinesPE": 40,
  "RepetitionTime": 1.5,
  "SAR": 0.0451037,
  "ScanOptions": "PFP\\FS",
  "ScanningSequence": "EP",
  "SequenceName": "*epfid2d1_72",
  "SequenceVariant": "SK\\OSP",
  "SeriesDescription": "func_vwfate_run9",
  "SeriesNumber": 11,
  "ShimSetting": [-1143, -1363, 667, 604, -14, -138, 12, -2],
  "SliceThickness": 2,
  "SliceTiming": [1.0775, 0, 0.74, 0.0675, 0.8075, 0.135, 0.875, 0.2025, 0.9425, 0.27, 1.01, 0.405, 1.145, 0.4725, 1.2125, 0.54, 1.28, 0.605, 1.345, 0.6725, 1.4125, 0.3375, 1.0775, 0, 0.74, 0.0675, 0.8075, 0.135, 0.875, 0.2025, 0.9425, 0.27, 1.01, 0.405, 1.145, 0.4725, 1.2125, 0.54, 1.28, 0.605, 1.345, 0.6725, 1.4125, 0.3375, 1.0775, 0, 0.74, 0.0675, 0.8075, 0.135, 0.875, 0.2025, 0.9425, 0.27, 1.01, 0.405, 1.145, 0.4725, 1.2125, 0.54, 1.28, 0.605, 1.345, 0.6725, 1.4125, 0.3375],
  "SoftwareVersions": "syngo MR E11",
  "SpacingBetweenSlices": 2,
  "StationName": "AWP166011",
  "TaskName": "vwfate",
  "TotalReadoutTime": 0.0551515,
  "TxRefAmp": 215.643,
  "dcmmeta_affine": [
    [-1.9950966835021973, 0.13986074924468994, -0.0053158109076321125, 93.7730941772461],
    [0.13994061946868896, 1.9920368194580078, -0.11047980189323425, -86.21200561523438],
    [0.0024312480818480253, 0.11058088392019272, 1.9969391822814941, -63.84855651855469],
    [0.0, 0.0, 0.0, 1.0]
],
  "dcmmeta_reorient_transform": [
    [0.0, -1.0, 0.0, 95.0],
    [1.0, 0.0, 0.0, 0.0],
    [0.0, 0.0, 1.0, 0.0],
    [0.0, 0.0, 0.0, 1.0]
],
  "dcmmeta_shape": [96, 96, 66, 164],
  "dcmmeta_slice_dim": 2,
  "dcmmeta_version": 0.6,
  "global": {
    "const": {
      "AcquisitionMatrix": [96, 0, 0, 72],
      "AngioFlag": "N",
      "BitsAllocated": 16,
      "BitsStored": 12,
      "BodyPartExamined": "BRAIN",
      "Columns": 864,
      "EchoNumbers": 1,
      "EchoTime": 30.0,
      "EchoTrainLength": 58,
      "FlipAngle": 62.0,
      "HighBit": 11,
      "ImageOrientationPatient": [0.99754833392111, -0.0699703061987, 0.00121562399278, 0.06993037273245, 0.99601842848557, -0.0552904429955],
      "ImagePositionPatient": [-926.8835083905, -814.23645228967, -11.813909909459],
      "ImageType": [
        "ORIGINAL",
        "PRIMARY",
        "M",
        "ND",
        "MOSAIC"
],
      "ImagedNucleus": "1H",
      "ImagingFrequency": 123.259547,
      "InPlanePhaseEncodingDirection": "COL",
      "MRAcquisitionType": "2D",
      "MagneticFieldStrength": 3.0,
      "Manufacturer": "SIEMENS",
      "ManufacturerModelName": "Prisma",
      "Modality": "MR",
      "NumberOfAverages": 1.0,
      "NumberOfPhaseEncodingSteps": 58,
      "PercentPhaseFieldOfView": 100.0,
      "PercentSampling": 75.0,
      "PerformedProcedureStepStartTime": "083618.908000",
      "PhotometricInterpretation": "MONOCHROME2",
      "PixelBandwidth": 2265.0,
      "PixelRepresentation": 0,
      "PixelSpacing": [2.0, 2.0],
      "ProtocolName": "func_vwfate_run9",
      "RepetitionTime": 1500.0,
      "Rows": 864,
      "SAR": 0.0451037169798,
      "SamplesPerPixel": 1,
      "ScanOptions": [
        "PFP",
        "FS"
],
      "ScanningSequence": "EP",
      "SequenceName": "*epfid2d1_72",
      "SequenceVariant": [
        "SK",
        "OSP"
],
      "SeriesDescription": "func_vwfate_run9",
      "SeriesNumber": 11,
      "SeriesTime": "093300.361000",
      "SliceLocation": -59.237737045005,
      "SliceThickness": 2.0,
      "SmallestImagePixelValue": 0,
      "SoftwareVersions": "syngo MR E11",
      "SpacingBetweenSlices": 2.0000000575478,
      "SpecificCharacterSet": "ISO_IR 100",
      "StudyID": "2",
      "StudyTime": "083618.844000",
      "TransmitCoilName": "Body",
      "VariableFlipAngleFlag": "N",
      "WindowCenterWidthExplanation": "Algo1",
      "dBdt": 0.0},
    "slices": {}
  },
  "time": {
    "samples": {
      "AcquisitionNumber": [1, 2, 3, 4, 5, 6, 7, 8, 9, 10, 11, 12, 13, 14, 15, 16, 17, 18, 19, 20, 21, 22, 23, 24, 25, 26, 27, 28, 29, 30, 31, 32, 33, 34, 35, 36, 37, 38, 39, 40, 41, 42, 43, 44, 45, 46, 47, 48, 49, 50, 51, 52, 53, 54, 55, 56, 57, 58, 59, 60, 61, 62, 63, 64, 65, 66, 67, 68, 69, 70, 71, 72, 73, 74, 75, 76, 77, 78, 79, 80, 81, 82, 83, 84, 85, 86, 87, 88, 89, 90, 91, 92, 93, 94, 95, 96, 97, 98, 99, 100, 101, 102, 103, 104, 105, 106, 107, 108, 109, 110, 111, 112, 113, 114, 115, 116, 117, 118, 119, 120, 121, 122, 123, 124, 125, 126, 127, 128, 129, 130, 131, 132, 133, 134, 135, 136, 137, 138, 139, 140, 141, 142, 143, 144, 145, 146, 147, 148, 149, 150, 151, 152, 153, 154, 155, 156, 157, 158, 159, 160, 161, 162, 163, 164],
      "AcquisitionTime": ["093240.575000", "093242.075000", "093243.575000", "093245.075000", "093246.575000", "093248.075000", "093249.575000", "093251.075000", "093252.575000", "093254.075000", "093255.575000", "093257.075000", "093258.575000", "093300.075000", "093301.575000", "093303.075000", "093304.575000", "093306.075000", "093307.575000", "093309.075000", "093310.575000", "093312.075000", "093313.575000", "093315.075000", "093316.575000", "093318.075000", "093319.575000", "093321.075000", "093322.575000", "093324.075000", "093325.575000", "093327.075000", "093328.575000", "093330.075000", "093331.575000", "093333.075000", "093334.575000", "093336.075000", "093337.575000", "093339.075000", "093340.575000", "093342.075000", "093343.575000", "093345.075000", "093346.575000", "093348.075000", "093349.575000", "093351.075000", "093352.575000", "093354.075000", "093355.575000", "093357.075000", "093358.575000", "093400.075000", "093401.575000", "093403.075000", "093404.575000", "093406.075000", "093407.575000", "093409.075000", "093410.575000", "093412.075000", "093413.575000", "093415.075000", "093416.575000", "093418.075000", "093419.575000", "093421.075000", "093422.575000", "093424.075000", "093425.575000", "093427.075000", "093428.575000", "093430.075000", "093431.575000", "093433.075000", "093434.575000", "093436.075000", "093437.575000", "093439.075000", "093440.575000", "093442.075000", "093443.575000", "093445.075000", "093446.575000", "093448.075000", "093449.575000", "093451.075000", "093452.575000", "093454.075000", "093455.575000", "093457.075000", "093458.575000", "093500.075000", "093501.575000", "093503.075000", "093504.575000", "093506.075000", "093507.575000", "093509.075000", "093510.575000", "093512.075000", "093513.575000", "093515.075000", "093516.575000", "093518.075000", "093519.575000", "093521.075000", "093522.575000", "093524.075000", "093525.575000", "093527.075000", "093528.575000", "093530.075000", "093531.575000", "093533.075000", "093534.575000", "093536.075000", "093537.575000", "093539.075000", "093540.575000", "093542.075000", "093543.575000", "093545.075000", "093546.575000", "093548.075000", "093549.575000", "093551.075000", "093552.575000", "093554.075000", "093555.575000", "093557.075000", "093558.575000", "093600.075000", "093601.575000", "093603.075000", "093604.575000", "093606.075000", "093607.575000", "093609.075000", "093610.575000", "093612.075000", "093613.575000", "093615.075000", "093616.575000", "093618.075000", "093619.575000", "093621.075000", "093622.575000", "093624.075000", "093625.575000", "093627.075000", "093628.575000", "093630.075000", "093631.575000", "093633.075000", "093634.575000", "093636.075000", "093637.575000", "093639.075000", "093640.575000", "093642.075000", "093643.575000", "093645.075000"],
      "ContentTime": ["093300.365000", "093300.379000", "093300.382000", "093300.385000", "093300.389000", "093300.392000", "093300.395000", "093300.398000", "093300.401000", "093300.404000", "093300.407000", "093300.410000", "093300.413000", "093340.359000", "093340.362000", "093340.365000", "093340.368000", "093340.372000", "093340.375000", "093340.378000", "093340.381000", "093340.384000", "093340.387000", "093340.390000", "093340.394000", "093340.397000", "093340.400000", "093340.404000", "093340.407000", "093340.410000", "093340.413000", "093340.416000", "093340.420000", "093340.423000", "093340.426000", "093340.429000", "093340.432000", "093340.435000", "093340.438000", "093420.360000", "093420.363000", "093420.366000", "093420.369000", "093420.373000", "093420.376000", "093420.379000", "093420.382000", "093420.385000", "093420.388000", "093420.391000", "093420.394000", "093420.397000", "093420.400000", "093420.403000", "093420.414000", "093420.417000", "093420.420000", "093420.423000", "093420.426000", "093420.430000", "093420.433000", "093420.436000", "093420.439000", "093420.442000", "093420.445000", "093420.448000", "093500.360000", "093500.363000", "093500.366000", "093500.369000", "093500.372000", "093500.376000", "093500.379000", "093500.382000", "093500.385000", "093500.388000", "093500.391000", "093500.394000", "093500.397000", "093500.400000", "093500.403000", "093500.406000", "093500.409000", "093500.412000", "093500.415000", "093500.419000", "093500.426000", "093500.442000", "093500.445000", "093500.448000", "093500.451000", "093500.454000", "093500.457000", "093540.359000", "093540.362000", "093540.365000", "093540.368000", "093540.372000", "093540.375000", "093540.378000", "093540.381000", "093540.384000", "093540.387000", "093540.390000", "093540.393000", "093540.396000", "093540.399000", "093540.402000", "093540.405000", "093540.408000", "093540.411000", "093540.414000", "093540.418000", "093540.421000", "093540.424000", "093540.427000", "093540.430000", "093540.441000", "093540.444000", "093620.360000", "093620.363000", "093620.366000", "093620.370000", "093620.373000", "093620.376000", "093620.379000", "093620.389000", "093620.393000", "093620.396000", "093620.399000", "093620.402000", "093620.405000", "093620.408000", "093620.411000", "093620.414000", "093620.417000", "093620.420000", "093620.424000", "093620.427000", "093620.430000", "093620.433000", "093620.436000", "093620.439000", "093620.442000", "093620.445000", "093620.448000", "093646.752000", "093646.756000", "093646.759000", "093646.763000", "093646.766000", "093646.769000", "093646.773000", "093646.776000", "093646.779000", "093646.783000", "093646.786000", "093646.789000", "093646.792000", "093646.796000", "093646.799000", "093646.802000", "093646.806000", "093646.815000"],
      "InstanceCreationTime": ["093300.365000", "093300.379000", "093300.382000", "093300.385000", "093300.389000", "093300.392000", "093300.395000", "093300.398000", "093300.401000", "093300.404000", "093300.407000", "093300.410000", "093300.413000", "093340.359000", "093340.362000", "093340.365000", "093340.368000", "093340.372000", "093340.375000", "093340.378000", "093340.381000", "093340.384000", "093340.387000", "093340.390000", "093340.394000", "093340.397000", "093340.400000", "093340.404000", "093340.407000", "093340.410000", "093340.413000", "093340.416000", "093340.420000", "093340.423000", "093340.426000", "093340.429000", "093340.432000", "093340.435000", "093340.438000", "093420.360000", "093420.363000", "093420.366000", "093420.369000", "093420.373000", "093420.376000", "093420.379000", "093420.382000", "093420.385000", "093420.388000", "093420.391000", "093420.394000", "093420.397000", "093420.400000", "093420.403000", "093420.414000", "093420.417000", "093420.420000", "093420.423000", "093420.426000", "093420.430000", "093420.433000", "093420.436000", "093420.439000", "093420.442000", "093420.445000", "093420.448000", "093500.360000", "093500.363000", "093500.366000", "093500.369000", "093500.372000", "093500.376000", "093500.379000", "093500.382000", "093500.385000", "093500.388000", "093500.391000", "093500.394000", "093500.397000", "093500.400000", "093500.403000", "093500.406000", "093500.409000", "093500.412000", "093500.415000", "093500.419000", "093500.426000", "093500.442000", "093500.445000", "093500.448000", "093500.451000", "093500.454000", "093500.457000", "093540.359000", "093540.362000", "093540.365000", "093540.368000", "093540.372000", "093540.375000", "093540.378000", "093540.381000", "093540.384000", "093540.387000", "093540.390000", "093540.393000", "093540.396000", "093540.399000", "093540.402000", "093540.405000", "093540.408000", "093540.411000", "093540.414000", "093540.418000", "093540.421000", "093540.424000", "093540.427000", "093540.430000", "093540.441000", "093540.444000", "093620.360000", "093620.363000", "093620.366000", "093620.370000", "093620.373000", "093620.376000", "093620.379000", "093620.389000", "093620.393000", "093620.396000", "093620.399000", "093620.402000", "093620.405000", "093620.408000", "093620.411000", "093620.414000", "093620.417000", "093620.420000", "093620.424000", "093620.427000", "093620.430000", "093620.433000", "093620.436000", "093620.439000", "093620.442000", "093620.445000", "093620.448000", "093646.752000", "093646.756000", "093646.759000", "093646.763000", "093646.766000", "093646.769000", "093646.773000", "093646.776000", "093646.779000", "093646.783000", "093646.786000", "093646.789000", "093646.792000", "093646.796000", "093646.799000", "093646.802000", "093646.806000", "093646.815000"],
      "InstanceNumber": [1, 2, 3, 4, 5, 6, 7, 8, 9, 10, 11, 12, 13, 14, 15, 16, 17, 18, 19, 20, 21, 22, 23, 24, 25, 26, 27, 28, 29, 30, 31, 32, 33, 34, 35, 36, 37, 38, 39, 40, 41, 42, 43, 44, 45, 46, 47, 48, 49, 50, 51, 52, 53, 54, 55, 56, 57, 58, 59, 60, 61, 62, 63, 64, 65, 66, 67, 68, 69, 70, 71, 72, 73, 74, 75, 76, 77, 78, 79, 80, 81, 82, 83, 84, 85, 86, 87, 88, 89, 90, 91, 92, 93, 94, 95, 96, 97, 98, 99, 100, 101, 102, 103, 104, 105, 106, 107, 108, 109, 110, 111, 112, 113, 114, 115, 116, 117, 118, 119, 120, 121, 122, 123, 124, 125, 126, 127, 128, 129, 130, 131, 132, 133, 134, 135, 136, 137, 138, 139, 140, 141, 142, 143, 144, 145, 146, 147, 148, 149, 150, 151, 152, 153, 154, 155, 156, 157, 158, 159, 160, 161, 162, 163, 164],
      "LargestImagePixelValue": [2774, 2710, 2658, 2624, 2608, 2632, 2606, 2593, 2625, 2603, 2612, 2586, 2583, 2614, 2613, 2599, 2621, 2604, 2592, 2631, 2618, 2633, 2633, 2629, 2625, 2630, 2612, 2612, 2591, 2605, 2629, 2628, 2636, 2620, 2635, 2614, 2637, 2627, 2649, 2646, 2637, 2650, 2632, 2651, 2638, 2658, 2630, 2655, 2630, 2657, 2639, 2692, 2678, 2672, 2642, 2687, 2684, 2676, 2679, 2655, 2678, 2671, 2695, 2691, 2667, 2661, 2681, 2660, 2698, 2660, 2668, 2633, 2663, 2662, 2666, 2674, 2694, 2677, 2664, 2657, 2656, 2656, 2666, 2655, 2635, 2647, 2630, 2660, 2640, 2674, 2651, 2677, 2661, 2659, 2675, 2651, 2669, 2666, 2664, 2685, 2661, 2707, 2696, 2665, 2661, 2678, 2667, 2642, 2680, 2664, 2658, 2660, 2663, 2674, 2630, 2674, 2658, 2664, 2648, 2709, 2658, 2686, 2701, 2662, 2716, 2667, 2691, 2671, 2697, 2671, 2678, 2663, 2689, 2679, 2699, 2701, 2699, 2709, 2673, 2693, 2648, 2695, 2657, 2683, 2681, 2707, 2681, 2657, 2683, 2686, 2679, 2700, 2709, 2694, 2694, 2700, 2665, 2710, 2669, 2678, 2670, 2670, 2672, 2696],
      "WindowCenter": [713.0, 711.0, 710.0, 709.0, 709.0, 709.0, 710.0, 710.0, 710.0, 709.0, 709.0, 709.0, 709.0, 709.0, 709.0, 709.0, 709.0, 710.0, 710.0, 710.0, 709.0, 710.0, 710.0, 711.0, 710.0, 710.0, 710.0, 709.0, 710.0, 710.0, 710.0, 710.0, 710.0, 710.0, 710.0, 710.0, 710.0, 710.0, 710.0, 710.0, 710.0, 710.0, 709.0, 709.0, 709.0, 710.0, 709.0, 710.0, 709.0, 710.0, 709.0, 710.0, 710.0, 710.0, 710.0, 710.0, 710.0, 710.0, 710.0, 709.0, 710.0, 709.0, 710.0, 710.0, 710.0, 710.0, 710.0, 710.0, 711.0, 711.0, 710.0, 709.0, 709.0, 709.0, 711.0, 711.0, 710.0, 709.0, 709.0, 709.0, 710.0, 709.0, 708.0, 708.0, 708.0, 709.0, 709.0, 709.0, 709.0, 710.0, 710.0, 710.0, 710.0, 710.0, 710.0, 710.0, 710.0, 710.0, 711.0, 711.0, 711.0, 711.0, 711.0, 711.0, 711.0, 710.0, 710.0, 710.0, 710.0, 710.0, 711.0, 712.0, 710.0, 709.0, 708.0, 708.0, 708.0, 708.0, 708.0, 709.0, 709.0, 710.0, 710.0, 709.0, 710.0, 710.0, 710.0, 709.0, 709.0, 709.0, 709.0, 709.0, 709.0, 709.0, 710.0, 711.0, 710.0, 711.0, 710.0, 710.0, 709.0, 709.0, 708.0, 708.0, 709.0, 710.0, 709.0, 708.0, 710.0, 709.0, 708.0, 708.0, 707.0, 708.0, 708.0, 708.0, 708.0, 709.0, 709.0, 708.0, 708.0, 707.0, 707.0, 707.0],
      "WindowWidth": [1544.0, 1539.0, 1536.0, 1533.0, 1531.0, 1532.0, 1534.0, 1535.0, 1534.0, 1534.0, 1534.0, 1533.0, 1533.0, 1533.0, 1532.0, 1533.0, 1533.0, 1534.0, 1534.0, 1535.0, 1534.0, 1535.0, 1536.0, 1537.0, 1536.0, 1535.0, 1534.0, 1534.0, 1534.0, 1534.0, 1535.0, 1536.0, 1536.0, 1536.0, 1535.0, 1534.0, 1534.0, 1535.0, 1535.0, 1536.0, 1534.0, 1534.0, 1533.0, 1533.0, 1533.0, 1535.0, 1534.0, 1534.0, 1533.0, 1534.0, 1534.0, 1535.0, 1535.0, 1535.0, 1535.0, 1536.0, 1534.0, 1534.0, 1534.0, 1533.0, 1534.0, 1533.0, 1534.0, 1535.0, 1535.0, 1535.0, 1535.0, 1535.0, 1538.0, 1537.0, 1535.0, 1532.0, 1532.0, 1532.0, 1536.0, 1539.0, 1536.0, 1534.0, 1532.0, 1532.0, 1534.0, 1533.0, 1531.0, 1529.0, 1530.0, 1531.0, 1532.0, 1532.0, 1533.0, 1535.0, 1536.0, 1535.0, 1534.0, 1535.0, 1534.0, 1534.0, 1535.0, 1535.0, 1536.0, 1537.0, 1538.0, 1538.0, 1538.0, 1538.0, 1537.0, 1536.0, 1534.0, 1534.0, 1535.0, 1535.0, 1537.0, 1539.0, 1534.0, 1531.0, 1530.0, 1529.0, 1529.0, 1529.0, 1529.0, 1532.0, 1533.0, 1535.0, 1535.0, 1533.0, 1534.0, 1534.0, 1534.0, 1533.0, 1531.0, 1532.0, 1532.0, 1532.0, 1533.0, 1532.0, 1534.0, 1536.0, 1535.0, 1537.0, 1536.0, 1535.0, 1532.0, 1531.0, 1531.0, 1530.0, 1532.0, 1535.0, 1533.0, 1530.0, 1534.0, 1531.0, 1529.0, 1529.0, 1527.0, 1529.0, 1529.0, 1530.0, 1531.0, 1533.0, 1532.0, 1530.0, 1529.0, 1528.0, 1527.0, 1527.0]
    },
    "slices": {}
  }
}