{
  "AcquisitionMatrixPE": 72,
  "AcquisitionNumber": 1,
  "AcquisitionTime": "09:38:52.532500",
  "BandwidthPerPixelPhaseEncode": 17.943,
  "BaseResolution": 96,
  "BodyPartExamined": "BRAIN",
  "CoilCombinationMethod": "Sum of Squares",
  "ConsistencyInfo": "N4_VE11C_LATEST_20160120",
  "ConversionSoftware": "dcm2niix",
  "ConversionSoftwareVersion": "v1.0.20211006",
  "DerivedVendorReportedEchoSpacing": 0.000552897,
  "DeviceSerialNumber": "166011",
  "EchoTime": 0.03,
  "EchoTrainLength": 58,
  "EffectiveEchoSpacing": 0.000580542,
  "FlipAngle": 62,
  "ImageOrientationPatientDICOM": [0.997548, -0.0699703, 0.00121562, 0.0699304, 0.996018, -0.0552904],
  "ImageType": [
    "ORIGINAL",
    "PRIMARY",
    "M",
    "ND",
    "MOSAIC"
],
  "ImagingFrequency": 123.26,
  "InPlanePhaseEncodingDirectionDICOM": "COL",
  "InstitutionAddress": "West 130th Street 610,NY,NYC,US,10025",
  "InstitutionName": "MBBI",
  "MRAcquisitionType": "2D",
  "MagneticFieldStrength": 3,
  "Manufacturer": "Siemens",
  "ManufacturersModelName": "Prisma",
  "Modality": "MR",
  "MultibandAccelerationFactor": 3,
  "PartialFourier": 0.75,
  "PatientPosition": "HFS",
  "PercentPhaseFOV": 100,
  "PercentSampling": 75,
  "PhaseEncodingDirection": "j-",
  "PhaseEncodingSteps": 58,
  "PhaseOversampling": 0.05,
  "PhaseResolution": 0.75,
  "PixelBandwidth": 2265,
  "ProcedureStepDescription": "White^Word_recognition",
  "ProtocolName": "func_vwfate_run10",
  "PulseSequenceDetails": "%SiemensSeq%\\ep2d_bold",
  "ReceiveCoilActiveElements": "HC1-7",
  "ReceiveCoilName": "HeadNeck_64",
  "ReconMatrixPE": 96,
  "RefLinesPE": 40,
  "RepetitionTime": 1.5,
  "SAR": 0.0451037,
  "ScanOptions": "PFP\\FS",
  "ScanningSequence": "EP",
  "SequenceName": "*epfid2d1_72",
  "SequenceVariant": "SK\\OSP",
  "SeriesDescription": "func_vwfate_run10",
  "SeriesNumber": 12,
  "ShimSetting": [-1143, -1363, 667, 604, -14, -138, 12, -2],
  "SliceThickness": 2,
  "SliceTiming": [1.075, 0, 0.74, 0.0675, 0.8075, 0.135, 0.875, 0.2025, 0.9425, 0.27, 1.01, 0.4025, 1.1425, 0.47, 1.21, 0.5375, 1.2775, 0.605, 1.345, 0.6725, 1.4125, 0.335, 1.075, 0, 0.74, 0.0675, 0.8075, 0.135, 0.875, 0.2025, 0.9425, 0.27, 1.01, 0.4025, 1.1425, 0.47, 1.21, 0.5375, 1.2775, 0.605, 1.345, 0.6725, 1.4125, 0.335, 1.075, 0, 0.74, 0.0675, 0.8075, 0.135, 0.875, 0.2025, 0.9425, 0.27, 1.01, 0.4025, 1.1425, 0.47, 1.21, 0.5375, 1.2775, 0.605, 1.345, 0.6725, 1.4125, 0.335],
  "SoftwareVersions": "syngo MR E11",
  "SpacingBetweenSlices": 2,
  "StationName": "AWP166011",
  "TaskName": "vwfate",
  "TotalReadoutTime": 0.0551515,
  "TxRefAmp": 215.643,
  "dcmmeta_affine": [
    [-1.9950966835021973, 0.13986074924468994, -0.0053158109076321125, 93.7730941772461],
    [0.13994061946868896, 1.9920368194580078, -0.11047980189323425, -86.21200561523438],
    [0.0024312480818480253, 0.11058088392019272, 1.9969391822814941, -63.84855651855469],
    [0.0, 0.0, 0.0, 1.0]
],
  "dcmmeta_reorient_transform": [
    [0.0, -1.0, 0.0, 95.0],
    [1.0, 0.0, 0.0, 0.0],
    [0.0, 0.0, 1.0, 0.0],
    [0.0, 0.0, 0.0, 1.0]
],
  "dcmmeta_shape": [96, 96, 66, 164],
  "dcmmeta_slice_dim": 2,
  "dcmmeta_version": 0.6,
  "global": {
    "const": {
      "AcquisitionMatrix": [96, 0, 0, 72],
      "AngioFlag": "N",
      "BitsAllocated": 16,
      "BitsStored": 12,
      "BodyPartExamined": "BRAIN",
      "Columns": 864,
      "EchoNumbers": 1,
      "EchoTime": 30.0,
      "EchoTrainLength": 58,
      "FlipAngle": 62.0,
      "HighBit": 11,
      "ImageOrientationPatient": [0.99754833392111, -0.0699703061987, 0.00121562399278, 0.06993037273245, 0.99601842848557, -0.0552904429955],
      "ImagePositionPatient": [-926.8835083905, -814.23645228967, -11.813909909459],
      "ImageType": [
        "ORIGINAL",
        "PRIMARY",
        "M",
        "ND",
        "MOSAIC"
],
      "ImagedNucleus": "1H",
      "ImagingFrequency": 123.25955,
      "InPlanePhaseEncodingDirection": "COL",
      "MRAcquisitionType": "2D",
      "MagneticFieldStrength": 3.0,
      "Manufacturer": "SIEMENS",
      "ManufacturerModelName": "Prisma",
      "Modality": "MR",
      "NumberOfAverages": 1.0,
      "NumberOfPhaseEncodingSteps": 58,
      "PercentPhaseFieldOfView": 100.0,
      "PercentSampling": 75.0,
      "PerformedProcedureStepStartTime": "083618.908000",
      "PhotometricInterpretation": "MONOCHROME2",
      "PixelBandwidth": 2265.0,
      "PixelRepresentation": 0,
      "PixelSpacing": [2.0, 2.0],
      "ProtocolName": "func_vwfate_run10",
      "RepetitionTime": 1500.0,
      "Rows": 864,
      "SAR": 0.0451037169798,
      "SamplesPerPixel": 1,
      "ScanOptions": [
        "PFP",
        "FS"
],
      "ScanningSequence": "EP",
      "SequenceName": "*epfid2d1_72",
      "SequenceVariant": [
        "SK",
        "OSP"
],
      "SeriesDescription": "func_vwfate_run10",
      "SeriesNumber": 12,
      "SeriesTime": "093933.143000",
      "SliceLocation": -59.237737045005,
      "SliceThickness": 2.0,
      "SmallestImagePixelValue": 0,
      "SoftwareVersions": "syngo MR E11",
      "SpacingBetweenSlices": 2.0000000575478,
      "SpecificCharacterSet": "ISO_IR 100",
      "StudyID": "2",
      "StudyTime": "083618.844000",
      "TransmitCoilName": "Body",
      "VariableFlipAngleFlag": "N",
      "WindowCenterWidthExplanation": "Algo1",
      "dBdt": 0.0},
    "slices": {}
  },
  "time": {
    "samples": {
      "AcquisitionNumber": [1, 2, 3, 4, 5, 6, 7, 8, 9, 10, 11, 12, 13, 14, 15, 16, 17, 18, 19, 20, 21, 22, 23, 24, 25, 26, 27, 28, 29, 30, 31, 32, 33, 34, 35, 36, 37, 38, 39, 40, 41, 42, 43, 44, 45, 46, 47, 48, 49, 50, 51, 52, 53, 54, 55, 56, 57, 58, 59, 60, 61, 62, 63, 64, 65, 66, 67, 68, 69, 70, 71, 72, 73, 74, 75, 76, 77, 78, 79, 80, 81, 82, 83, 84, 85, 86, 87, 88, 89, 90, 91, 92, 93, 94, 95, 96, 97, 98, 99, 100, 101, 102, 103, 104, 105, 106, 107, 108, 109, 110, 111, 112, 113, 114, 115, 116, 117, 118, 119, 120, 121, 122, 123, 124, 125, 126, 127, 128, 129, 130, 131, 132, 133, 134, 135, 136, 137, 138, 139, 140, 141, 142, 143, 144, 145, 146, 147, 148, 149, 150, 151, 152, 153, 154, 155, 156, 157, 158, 159, 160, 161, 162, 163, 164],
      "AcquisitionTime": ["093852.532500", "093854.032500", "093855.532500", "093857.032500", "093858.532500", "093900.032500", "093901.532500", "093903.032500", "093904.532500", "093906.032500", "093907.532500", "093909.032500", "093910.532500", "093912.032500", "093913.532500", "093915.032500", "093916.532500", "093918.032500", "093919.532500", "093921.032500", "093922.532500", "093924.032500", "093925.532500", "093927.032500", "093928.532500", "093930.032500", "093931.532500", "093933.032500", "093934.532500", "093936.032500", "093937.532500", "093939.032500", "093940.532500", "093942.032500", "093943.532500", "093945.032500", "093946.532500", "093948.032500", "093949.532500", "093951.032500", "093952.532500", "093954.032500", "093955.532500", "093957.032500", "093958.532500", "094000.032500", "094001.532500", "094003.032500", "094004.532500", "094006.032500", "094007.532500", "094009.032500", "094010.532500", "094012.032500", "094013.532500", "094015.032500", "094016.532500", "094018.032500", "094019.532500", "094021.032500", "094022.532500", "094024.032500", "094025.532500", "094027.032500", "094028.532500", "094030.032500", "094031.532500", "094033.032500", "094034.532500", "094036.032500", "094037.532500", "094039.032500", "094040.532500", "094042.032500", "094043.532500", "094045.032500", "094046.532500", "094048.032500", "094049.532500", "094051.032500", "094052.532500", "094054.032500", "094055.532500", "094057.032500", "094058.532500", "094100.032500", "094101.532500", "094103.032500", "094104.532500", "094106.032500", "094107.532500", "094109.032500", "094110.532500", "094112.032500", "094113.532500", "094115.032500", "094116.532500", "094118.032500", "094119.532500", "094121.032500", "094122.532500", "094124.032500", "094125.532500", "094127.032500", "094128.532500", "094130.032500", "094131.532500", "094133.032500", "094134.532500", "094136.032500", "094137.532500", "094139.032500", "094140.532500", "094142.032500", "094143.532500", "094145.032500", "094146.532500", "094148.032500", "094149.532500", "094151.032500", "094152.532500", "094154.032500", "094155.532500", "094157.032500", "094158.532500", "094200.032500", "094201.532500", "094203.032500", "094204.532500", "094206.032500", "094207.532500", "094209.032500", "094210.532500", "094212.032500", "094213.532500", "094215.032500", "094216.532500", "094218.032500", "094219.532500", "094221.032500", "094222.532500", "094224.032500", "094225.532500", "094227.032500", "094228.532500", "094230.032500", "094231.532500", "094233.032500", "094234.532500", "094236.032500", "094237.532500", "094239.032500", "094240.532500", "094242.032500", "094243.532500", "094245.032500", "094246.532500", "094248.032500", "094249.532500", "094251.032500", "094252.532500", "094254.032500", "094255.532500", "094257.032500"],
      "ContentTime": ["093933.147000", "093933.151000", "093933.154000", "093933.157000", "093933.169000", "093933.172000", "093933.175000", "093933.178000", "093933.182000", "093933.185000", "093933.188000", "093933.191000", "093933.195000", "093933.198000", "093933.201000", "093933.204000", "093933.207000", "093933.216000", "093933.220000", "093933.223000", "093933.226000", "093933.229000", "093933.233000", "093933.236000", "093933.250000", "093933.253000", "093933.257000", "094013.142000", "094013.145000", "094013.148000", "094013.151000", "094013.155000", "094013.158000", "094013.161000", "094013.164000", "094013.167000", "094013.170000", "094013.173000", "094013.176000", "094013.180000", "094013.183000", "094013.186000", "094013.193000", "094013.196000", "094013.199000", "094013.202000", "094013.205000", "094013.208000", "094013.211000", "094013.214000", "094013.217000", "094013.220000", "094013.223000", "094053.141000", "094053.144000", "094053.148000", "094053.151000", "094053.154000", "094053.157000", "094053.160000", "094053.163000", "094053.166000", "094053.169000", "094053.172000", "094053.175000", "094053.178000", "094053.181000", "094053.184000", "094053.188000", "094053.191000", "094053.194000", "094053.197000", "094053.200000", "094053.203000", "094053.206000", "094053.209000", "094053.218000", "094053.221000", "094053.224000", "094053.227000", "094133.141000", "094133.145000", "094133.148000", "094133.151000", "094133.154000", "094133.157000", "094133.160000", "094133.163000", "094133.166000", "094133.169000", "094133.172000", "094133.175000", "094133.178000", "094133.182000", "094133.185000", "094133.188000", "094133.191000", "094133.194000", "094133.197000", "094133.200000", "094133.203000", "094133.206000", "094133.209000", "094133.212000", "094133.215000", "094133.218000", "094133.221000", "094213.142000", "094213.146000", "094213.149000", "094213.152000", "094213.155000", "094213.158000", "094213.161000", "094213.164000", "094213.175000", "094213.178000", "094213.181000", "094213.184000", "094213.187000", "094213.190000", "094213.193000", "094213.196000", "094213.199000", "094213.203000", "094213.206000", "094213.209000", "094213.212000", "094213.215000", "094213.218000", "094213.221000", "094213.224000", "094213.227000", "094253.142000", "094253.145000", "094253.149000", "094253.152000", "094253.155000", "094253.158000", "094253.161000", "094253.164000", "094253.167000", "094253.170000", "094253.173000", "094253.176000", "094253.180000", "094253.183000", "094253.186000", "094253.189000", "094253.192000", "094253.195000", "094253.198000", "094253.202000", "094253.205000", "094253.208000", "094253.211000", "094253.214000", "094253.217000", "094253.220000", "094253.223000", "094258.115000", "094258.118000", "094258.122000", "094258.125000"],
      "InstanceCreationTime": ["093933.147000", "093933.151000", "093933.154000", "093933.157000", "093933.169000", "093933.172000", "093933.175000", "093933.178000", "093933.182000", "093933.185000", "093933.188000", "093933.191000", "093933.195000", "093933.198000", "093933.201000", "093933.204000", "093933.207000", "093933.216000", "093933.220000", "093933.223000", "093933.226000", "093933.229000", "093933.233000", "093933.236000", "093933.250000", "093933.253000", "093933.257000", "094013.142000", "094013.145000", "094013.148000", "094013.151000", "094013.155000", "094013.158000", "094013.161000", "094013.164000", "094013.167000", "094013.170000", "094013.173000", "094013.176000", "094013.180000", "094013.183000", "094013.186000", "094013.193000", "094013.196000", "094013.199000", "094013.202000", "094013.205000", "094013.208000", "094013.211000", "094013.214000", "094013.217000", "094013.220000", "094013.223000", "094053.141000", "094053.144000", "094053.148000", "094053.151000", "094053.154000", "094053.157000", "094053.160000", "094053.163000", "094053.166000", "094053.169000", "094053.172000", "094053.175000", "094053.178000", "094053.181000", "094053.184000", "094053.188000", "094053.191000", "094053.194000", "094053.197000", "094053.200000", "094053.203000", "094053.206000", "094053.209000", "094053.218000", "094053.221000", "094053.224000", "094053.227000", "094133.141000", "094133.145000", "094133.148000", "094133.151000", "094133.154000", "094133.157000", "094133.160000", "094133.163000", "094133.166000", "094133.169000", "094133.172000", "094133.175000", "094133.178000", "094133.182000", "094133.185000", "094133.188000", "094133.191000", "094133.194000", "094133.197000", "094133.200000", "094133.203000", "094133.206000", "094133.209000", "094133.212000", "094133.215000", "094133.218000", "094133.221000", "094213.142000", "094213.146000", "094213.149000", "094213.152000", "094213.155000", "094213.158000", "094213.161000", "094213.164000", "094213.175000", "094213.178000", "094213.181000", "094213.184000", "094213.187000", "094213.190000", "094213.193000", "094213.196000", "094213.199000", "094213.203000", "094213.206000", "094213.209000", "094213.212000", "094213.215000", "094213.218000", "094213.221000", "094213.224000", "094213.227000", "094253.142000", "094253.145000", "094253.149000", "094253.152000", "094253.155000", "094253.158000", "094253.161000", "094253.164000", "094253.167000", "094253.170000", "094253.173000", "094253.176000", "094253.180000", "094253.183000", "094253.186000", "094253.189000", "094253.192000", "094253.195000", "094253.198000", "094253.202000", "094253.205000", "094253.208000", "094253.211000", "094253.214000", "094253.217000", "094253.220000", "094253.223000", "094258.115000", "094258.118000", "094258.122000", "094258.125000"],
      "InstanceNumber": [1, 2, 3, 4, 5, 6, 7, 8, 9, 10, 11, 12, 13, 14, 15, 16, 17, 18, 19, 20, 21, 22, 23, 24, 25, 26, 27, 28, 29, 30, 31, 32, 33, 34, 35, 36, 37, 38, 39, 40, 41, 42, 43, 44, 45, 46, 47, 48, 49, 50, 51, 52, 53, 54, 55, 56, 57, 58, 59, 60, 61, 62, 63, 64, 65, 66, 67, 68, 69, 70, 71, 72, 73, 74, 75, 76, 77, 78, 79, 80, 81, 82, 83, 84, 85, 86, 87, 88, 89, 90, 91, 92, 93, 94, 95, 96, 97, 98, 99, 100, 101, 102, 103, 104, 105, 106, 107, 108, 109, 110, 111, 112, 113, 114, 115, 116, 117, 118, 119, 120, 121, 122, 123, 124, 125, 126, 127, 128, 129, 130, 131, 132, 133, 134, 135, 136, 137, 138, 139, 140, 141, 142, 143, 144, 145, 146, 147, 148, 149, 150, 151, 152, 153, 154, 155, 156, 157, 158, 159, 160, 161, 162, 163, 164],
      "LargestImagePixelValue": [2711, 2633, 2619, 2571, 2567, 2563, 2511, 2540, 2520, 2536, 2552, 2511, 2554, 2557, 2535, 2512, 2502, 2513, 2508, 2533, 2515, 2547, 2542, 2511, 2522, 2527, 2505, 2512, 2509, 2493, 2489, 2513, 2512, 2494, 2488, 2484, 2504, 2526, 2510, 2512, 2532, 2512, 2501, 2497, 2489, 2483, 2522, 2526, 2509, 2541, 2518, 2524, 2516, 2509, 2512, 2523, 2536, 2577, 2554, 2565, 2571, 2556, 2569, 2576, 2569, 2555, 2573, 2593, 2578, 2559, 2577, 2585, 2583, 2571, 2596, 2585, 2573, 2605, 2609, 2612, 2600, 2605, 2596, 2605, 2613, 2611, 2612, 2613, 2603, 2612, 2600, 2570, 2611, 2616, 2626, 2638, 2616, 2638, 2646, 2642, 2641, 2658, 2647, 2632, 2653, 2634, 2625, 2640, 2638, 2646, 2671, 2644, 2632, 2634, 2657, 2665, 2652, 2644, 2623, 2659, 2630, 2651, 2657, 2652, 2646, 2644, 2620, 2627, 2599, 2626, 2641, 2644, 2632, 2661, 2637, 2646, 2621, 2640, 2655, 2642, 2655, 2639, 2631, 2656, 2668, 2676, 2650, 2670, 2646, 2642, 2659, 2659, 2604, 2568, 2565, 2610, 2592, 2608, 2591, 2602, 2584, 2575, 2603, 2578],
      "WindowCenter": [717.0, 715.0, 714.0, 713.0, 712.0, 711.0, 711.0, 711.0, 711.0, 712.0, 712.0, 711.0, 711.0, 712.0, 712.0, 713.0, 712.0, 714.0, 712.0, 711.0, 711.0, 711.0, 711.0, 712.0, 713.0, 713.0, 712.0, 713.0, 713.0, 713.0, 713.0, 712.0, 712.0, 712.0, 712.0, 712.0, 711.0, 712.0, 712.0, 712.0, 712.0, 712.0, 711.0, 712.0, 712.0, 713.0, 711.0, 710.0, 710.0, 710.0, 711.0, 711.0, 711.0, 711.0, 711.0, 711.0, 711.0, 712.0, 712.0, 712.0, 712.0, 711.0, 711.0, 712.0, 712.0, 711.0, 711.0, 711.0, 711.0, 711.0, 711.0, 710.0, 711.0, 712.0, 713.0, 712.0, 711.0, 710.0, 709.0, 709.0, 709.0, 710.0, 710.0, 711.0, 712.0, 711.0, 711.0, 711.0, 711.0, 711.0, 711.0, 712.0, 712.0, 710.0, 710.0, 711.0, 710.0, 710.0, 711.0, 711.0, 712.0, 712.0, 711.0, 711.0, 711.0, 711.0, 711.0, 711.0, 711.0, 711.0, 711.0, 711.0, 712.0, 713.0, 711.0, 710.0, 711.0, 710.0, 711.0, 711.0, 711.0, 711.0, 711.0, 711.0, 711.0, 710.0, 710.0, 710.0, 711.0, 713.0, 712.0, 710.0, 710.0, 710.0, 710.0, 710.0, 710.0, 710.0, 711.0, 710.0, 711.0, 711.0, 711.0, 711.0, 711.0, 711.0, 712.0, 712.0, 711.0, 711.0, 711.0, 711.0, 710.0, 713.0, 712.0, 711.0, 710.0, 710.0, 710.0, 710.0, 710.0, 710.0, 710.0, 710.0],
      "WindowWidth": [1555.0, 1550.0, 1547.0, 1545.0, 1541.0, 1539.0, 1539.0, 1540.0, 1540.0, 1540.0, 1540.0, 1538.0, 1540.0, 1541.0, 1542.0, 1544.0, 1542.0, 1546.0, 1541.0, 1538.0, 1538.0, 1539.0, 1540.0, 1542.0, 1545.0, 1544.0, 1542.0, 1544.0, 1544.0, 1543.0, 1543.0, 1541.0, 1541.0, 1541.0, 1542.0, 1542.0, 1540.0, 1541.0, 1541.0, 1541.0, 1542.0, 1540.0, 1540.0, 1542.0, 1541.0, 1544.0, 1539.0, 1536.0, 1536.0, 1537.0, 1538.0, 1537.0, 1538.0, 1538.0, 1538.0, 1538.0, 1540.0, 1540.0, 1540.0, 1540.0, 1540.0, 1539.0, 1539.0, 1540.0, 1540.0, 1539.0, 1539.0, 1539.0, 1539.0, 1538.0, 1538.0, 1537.0, 1538.0, 1541.0, 1544.0, 1542.0, 1537.0, 1535.0, 1534.0, 1533.0, 1533.0, 1534.0, 1536.0, 1538.0, 1540.0, 1539.0, 1538.0, 1538.0, 1539.0, 1539.0, 1539.0, 1540.0, 1541.0, 1536.0, 1536.0, 1537.0, 1536.0, 1536.0, 1538.0, 1539.0, 1540.0, 1540.0, 1538.0, 1538.0, 1538.0, 1538.0, 1538.0, 1539.0, 1538.0, 1537.0, 1537.0, 1538.0, 1540.0, 1543.0, 1539.0, 1536.0, 1538.0, 1536.0, 1537.0, 1537.0, 1537.0, 1537.0, 1538.0, 1539.0, 1538.0, 1536.0, 1535.0, 1535.0, 1537.0, 1543.0, 1540.0, 1535.0, 1536.0, 1535.0, 1536.0, 1535.0, 1535.0, 1536.0, 1537.0, 1536.0, 1538.0, 1537.0, 1537.0, 1538.0, 1538.0, 1539.0, 1540.0, 1540.0, 1538.0, 1537.0, 1537.0, 1537.0, 1537.0, 1543.0, 1542.0, 1537.0, 1535.0, 1535.0, 1535.0, 1534.0, 1535.0, 1535.0, 1536.0, 1536.0]
    },
    "slices": {}
  }
}