{
  "AcquisitionMatrixPE": 72,
  "AcquisitionNumber": 1,
  "AcquisitionTime": "09:56:16.292500",
  "BandwidthPerPixelPhaseEncode": 17.943,
  "BaseResolution": 96,
  "BodyPartExamined": "BRAIN",
  "CoilCombinationMethod": "Sum of Squares",
  "ConsistencyInfo": "N4_VE11C_LATEST_20160120",
  "ConversionSoftware": "dcm2niix",
  "ConversionSoftwareVersion": "v1.0.20211006",
  "DerivedVendorReportedEchoSpacing": 0.000552897,
  "DeviceSerialNumber": "166011",
  "EchoTime": 0.03,
  "EchoTrainLength": 58,
  "EffectiveEchoSpacing": 0.000580542,
  "FlipAngle": 62,
  "ImageOrientationPatientDICOM": [0.997548, -0.0699703, 0.00121562, 0.0699304, 0.996018, -0.0552904],
  "ImageType": [
    "ORIGINAL",
    "PRIMARY",
    "M",
    "ND",
    "MOSAIC"
],
  "ImagingFrequency": 123.26,
  "InPlanePhaseEncodingDirectionDICOM": "COL",
  "InstitutionAddress": "West 130th Street 610,NY,NYC,US,10025",
  "InstitutionName": "MBBI",
  "MRAcquisitionType": "2D",
  "MagneticFieldStrength": 3,
  "Manufacturer": "Siemens",
  "ManufacturersModelName": "Prisma",
  "Modality": "MR",
  "MultibandAccelerationFactor": 3,
  "PartialFourier": 0.75,
  "PatientPosition": "HFS",
  "PercentPhaseFOV": 100,
  "PercentSampling": 75,
  "PhaseEncodingDirection": "j-",
  "PhaseEncodingSteps": 58,
  "PhaseOversampling": 0.05,
  "PhaseResolution": 0.75,
  "PixelBandwidth": 2265,
  "ProcedureStepDescription": "White^Word_recognition",
  "ProtocolName": "func_vwfate_run12",
  "PulseSequenceDetails": "%SiemensSeq%\\ep2d_bold",
  "ReceiveCoilActiveElements": "HC1-7",
  "ReceiveCoilName": "HeadNeck_64",
  "ReconMatrixPE": 96,
  "RefLinesPE": 40,
  "RepetitionTime": 1.5,
  "SAR": 0.0451037,
  "ScanOptions": "PFP\\FS",
  "ScanningSequence": "EP",
  "SequenceName": "*epfid2d1_72",
  "SequenceVariant": "SK\\OSP",
  "SeriesDescription": "func_vwfate_run12",
  "SeriesNumber": 15,
  "ShimSetting": [-1143, -1363, 667, 604, -14, -138, 12, -2],
  "SliceThickness": 2,
  "SliceTiming": [1.075, 0, 0.74, 0.0675, 0.8075, 0.1325, 0.8725, 0.2, 0.94, 0.2675, 1.0075, 0.4025, 1.1425, 0.47, 1.21, 0.5375, 1.2775, 0.605, 1.345, 0.6725, 1.4125, 0.335, 1.075, 0, 0.74, 0.0675, 0.8075, 0.1325, 0.8725, 0.2, 0.94, 0.2675, 1.0075, 0.4025, 1.1425, 0.47, 1.21, 0.5375, 1.2775, 0.605, 1.345, 0.6725, 1.4125, 0.335, 1.075, 0, 0.74, 0.0675, 0.8075, 0.1325, 0.8725, 0.2, 0.94, 0.2675, 1.0075, 0.4025, 1.1425, 0.47, 1.21, 0.5375, 1.2775, 0.605, 1.345, 0.6725, 1.4125, 0.335],
  "SoftwareVersions": "syngo MR E11",
  "SpacingBetweenSlices": 2,
  "StationName": "AWP166011",
  "TaskName": "vwfate",
  "TotalReadoutTime": 0.0551515,
  "TxRefAmp": 215.643,
  "dcmmeta_affine": [
    [-1.9950966835021973, 0.13986074924468994, -0.0053158109076321125, 93.7730941772461],
    [0.13994061946868896, 1.9920368194580078, -0.11047980189323425, -86.21200561523438],
    [0.0024312480818480253, 0.11058088392019272, 1.9969391822814941, -63.84855651855469],
    [0.0, 0.0, 0.0, 1.0]
],
  "dcmmeta_reorient_transform": [
    [0.0, -1.0, 0.0, 95.0],
    [1.0, 0.0, 0.0, 0.0],
    [0.0, 0.0, 1.0, 0.0],
    [0.0, 0.0, 0.0, 1.0]
],
  "dcmmeta_shape": [96, 96, 66, 164],
  "dcmmeta_slice_dim": 2,
  "dcmmeta_version": 0.6,
  "global": {
    "const": {
      "AcquisitionMatrix": [96, 0, 0, 72],
      "AngioFlag": "N",
      "BitsAllocated": 16,
      "BitsStored": 12,
      "BodyPartExamined": "BRAIN",
      "Columns": 864,
      "EchoNumbers": 1,
      "EchoTime": 30.0,
      "EchoTrainLength": 58,
      "FlipAngle": 62.0,
      "HighBit": 11,
      "ImageOrientationPatient": [0.99754833392111, -0.0699703061987, 0.00121562399278, 0.06993037273245, 0.99601842848557, -0.0552904429955],
      "ImagePositionPatient": [-926.8835083905, -814.23645228967, -11.813909909459],
      "ImageType": [
        "ORIGINAL",
        "PRIMARY",
        "M",
        "ND",
        "MOSAIC"
],
      "ImagedNucleus": "1H",
      "ImagingFrequency": 123.259557,
      "InPlanePhaseEncodingDirection": "COL",
      "MRAcquisitionType": "2D",
      "MagneticFieldStrength": 3.0,
      "Manufacturer": "SIEMENS",
      "ManufacturerModelName": "Prisma",
      "Modality": "MR",
      "NumberOfAverages": 1.0,
      "NumberOfPhaseEncodingSteps": 58,
      "PercentPhaseFieldOfView": 100.0,
      "PercentSampling": 75.0,
      "PerformedProcedureStepStartTime": "083618.908000",
      "PhotometricInterpretation": "MONOCHROME2",
      "PixelBandwidth": 2265.0,
      "PixelRepresentation": 0,
      "PixelSpacing": [2.0, 2.0],
      "ProtocolName": "func_vwfate_run12",
      "RepetitionTime": 1500.0,
      "Rows": 864,
      "SAR": 0.0451037169798,
      "SamplesPerPixel": 1,
      "ScanOptions": [
        "PFP",
        "FS"
],
      "ScanningSequence": "EP",
      "SequenceName": "*epfid2d1_72",
      "SequenceVariant": [
        "SK",
        "OSP"
],
      "SeriesDescription": "func_vwfate_run12",
      "SeriesNumber": 15,
      "SeriesTime": "095653.158000",
      "SliceLocation": -59.237737045005,
      "SliceThickness": 2.0,
      "SmallestImagePixelValue": 0,
      "SoftwareVersions": "syngo MR E11",
      "SpacingBetweenSlices": 2.0000000575478,
      "SpecificCharacterSet": "ISO_IR 100",
      "StudyID": "2",
      "StudyTime": "083618.844000",
      "TransmitCoilName": "Body",
      "VariableFlipAngleFlag": "N",
      "WindowCenterWidthExplanation": "Algo1",
      "dBdt": 0.0},
    "slices": {}
  },
  "time": {
    "samples": {
      "AcquisitionNumber": [1, 2, 3, 4, 5, 6, 7, 8, 9, 10, 11, 12, 13, 14, 15, 16, 17, 18, 19, 20, 21, 22, 23, 24, 25, 26, 27, 28, 29, 30, 31, 32, 33, 34, 35, 36, 37, 38, 39, 40, 41, 42, 43, 44, 45, 46, 47, 48, 49, 50, 51, 52, 53, 54, 55, 56, 57, 58, 59, 60, 61, 62, 63, 64, 65, 66, 67, 68, 69, 70, 71, 72, 73, 74, 75, 76, 77, 78, 79, 80, 81, 82, 83, 84, 85, 86, 87, 88, 89, 90, 91, 92, 93, 94, 95, 96, 97, 98, 99, 100, 101, 102, 103, 104, 105, 106, 107, 108, 109, 110, 111, 112, 113, 114, 115, 116, 117, 118, 119, 120, 121, 122, 123, 124, 125, 126, 127, 128, 129, 130, 131, 132, 133, 134, 135, 136, 137, 138, 139, 140, 141, 142, 143, 144, 145, 146, 147, 148, 149, 150, 151, 152, 153, 154, 155, 156, 157, 158, 159, 160, 161, 162, 163, 164],
      "AcquisitionTime": ["095616.292500", "095617.792500", "095619.292500", "095620.792500", "095622.292500", "095623.792500", "095625.292500", "095626.792500", "095628.292500", "095629.792500", "095631.292500", "095632.792500", "095634.292500", "095635.792500", "095637.292500", "095638.792500", "095640.292500", "095641.792500", "095643.292500", "095644.792500", "095646.292500", "095647.792500", "095649.292500", "095650.792500", "095652.292500", "095653.792500", "095655.292500", "095656.792500", "095658.292500", "095659.792500", "095701.292500", "095702.792500", "095704.292500", "095705.792500", "095707.292500", "095708.792500", "095710.292500", "095711.792500", "095713.292500", "095714.792500", "095716.292500", "095717.792500", "095719.292500", "095720.792500", "095722.292500", "095723.792500", "095725.292500", "095726.792500", "095728.292500", "095729.792500", "095731.292500", "095732.792500", "095734.292500", "095735.792500", "095737.292500", "095738.792500", "095740.292500", "095741.792500", "095743.292500", "095744.792500", "095746.292500", "095747.792500", "095749.292500", "095750.792500", "095752.292500", "095753.792500", "095755.292500", "095756.792500", "095758.292500", "095759.792500", "095801.292500", "095802.792500", "095804.292500", "095805.792500", "095807.292500", "095808.792500", "095810.292500", "095811.792500", "095813.292500", "095814.792500", "095816.292500", "095817.792500", "095819.292500", "095820.792500", "095822.292500", "095823.792500", "095825.292500", "095826.792500", "095828.292500", "095829.792500", "095831.292500", "095832.792500", "095834.292500", "095835.792500", "095837.292500", "095838.792500", "095840.292500", "095841.792500", "095843.292500", "095844.792500", "095846.292500", "095847.792500", "095849.292500", "095850.792500", "095852.292500", "095853.792500", "095855.292500", "095856.792500", "095858.292500", "095859.792500", "095901.292500", "095902.792500", "095904.292500", "095905.792500", "095907.292500", "095908.792500", "095910.292500", "095911.792500", "095913.292500", "095914.792500", "095916.292500", "095917.792500", "095919.292500", "095920.792500", "095922.292500", "095923.792500", "095925.292500", "095926.792500", "095928.292500", "095929.792500", "095931.292500", "095932.792500", "095934.292500", "095935.792500", "095937.292500", "095938.792500", "095940.292500", "095941.792500", "095943.292500", "095944.792500", "095946.292500", "095947.792500", "095949.292500", "095950.792500", "095952.292500", "095953.792500", "095955.292500", "095956.792500", "095958.292500", "095959.792500", "100001.292500", "100002.792500", "100004.292500", "100005.792500", "100007.292500", "100008.792500", "100010.292500", "100011.792500", "100013.292500", "100014.792500", "100016.292500", "100017.792500", "100019.292500", "100020.792500"],
      "ContentTime": ["095653.162000", "095653.166000", "095653.173000", "095653.181000", "095653.184000", "095653.192000", "095653.195000", "095653.198000", "095653.201000", "095653.204000", "095653.207000", "095653.210000", "095653.214000", "095653.217000", "095653.220000", "095653.223000", "095653.226000", "095653.235000", "095653.238000", "095653.241000", "095653.244000", "095653.247000", "095653.251000", "095653.255000", "095733.141000", "095733.144000", "095733.151000", "095733.154000", "095733.157000", "095733.160000", "095733.163000", "095733.166000", "095733.169000", "095733.172000", "095733.175000", "095733.178000", "095733.181000", "095733.184000", "095733.187000", "095733.191000", "095733.201000", "095733.204000", "095733.207000", "095733.210000", "095733.213000", "095733.216000", "095733.219000", "095733.222000", "095733.225000", "095733.228000", "095733.231000", "095813.142000", "095813.151000", "095813.155000", "095813.158000", "095813.161000", "095813.164000", "095813.167000", "095813.170000", "095813.173000", "095813.176000", "095813.179000", "095813.182000", "095813.186000", "095813.189000", "095813.192000", "095813.195000", "095813.198000", "095813.201000", "095813.204000", "095813.207000", "095813.210000", "095813.213000", "095813.216000", "095813.219000", "095813.223000", "095813.226000", "095813.229000", "095853.142000", "095853.145000", "095853.148000", "095853.152000", "095853.155000", "095853.158000", "095853.161000", "095853.164000", "095853.167000", "095853.170000", "095853.173000", "095853.177000", "095853.180000", "095853.183000", "095853.186000", "095853.189000", "095853.192000", "095853.195000", "095853.198000", "095853.201000", "095853.204000", "095853.208000", "095853.211000", "095853.214000", "095853.217000", "095853.220000", "095933.141000", "095933.144000", "095933.147000", "095933.151000", "095933.154000", "095933.157000", "095933.160000", "095933.163000", "095933.166000", "095933.169000", "095933.172000", "095933.175000", "095933.179000", "095933.182000", "095933.185000", "095933.188000", "095933.191000", "095933.194000", "095933.197000", "095933.200000", "095933.203000", "095933.206000", "095933.209000", "095933.212000", "095933.215000", "095933.218000", "095933.221000", "100013.142000", "100013.145000", "100013.149000", "100013.152000", "100013.155000", "100013.158000", "100013.161000", "100013.164000", "100013.168000", "100013.172000", "100013.175000", "100013.178000", "100013.181000", "100013.184000", "100013.187000", "100013.190000", "100013.193000", "100013.196000", "100013.200000", "100013.203000", "100013.206000", "100013.209000", "100013.212000", "100013.215000", "100013.218000", "100013.221000", "100013.224000", "100021.755000", "100021.759000", "100021.762000", "100021.765000", "100021.768000", "100021.771000"],
      "InstanceCreationTime": ["095653.162000", "095653.166000", "095653.173000", "095653.181000", "095653.184000", "095653.192000", "095653.195000", "095653.198000", "095653.201000", "095653.204000", "095653.207000", "095653.210000", "095653.214000", "095653.217000", "095653.220000", "095653.223000", "095653.226000", "095653.235000", "095653.238000", "095653.241000", "095653.244000", "095653.247000", "095653.251000", "095653.255000", "095733.141000", "095733.144000", "095733.151000", "095733.154000", "095733.157000", "095733.160000", "095733.163000", "095733.166000", "095733.169000", "095733.172000", "095733.175000", "095733.178000", "095733.181000", "095733.184000", "095733.187000", "095733.191000", "095733.201000", "095733.204000", "095733.207000", "095733.210000", "095733.213000", "095733.216000", "095733.219000", "095733.222000", "095733.225000", "095733.228000", "095733.231000", "095813.142000", "095813.151000", "095813.155000", "095813.158000", "095813.161000", "095813.164000", "095813.167000", "095813.170000", "095813.173000", "095813.176000", "095813.179000", "095813.182000", "095813.186000", "095813.189000", "095813.192000", "095813.195000", "095813.198000", "095813.201000", "095813.204000", "095813.207000", "095813.210000", "095813.213000", "095813.216000", "095813.219000", "095813.223000", "095813.226000", "095813.229000", "095853.142000", "095853.145000", "095853.148000", "095853.152000", "095853.155000", "095853.158000", "095853.161000", "095853.164000", "095853.167000", "095853.170000", "095853.173000", "095853.177000", "095853.180000", "095853.183000", "095853.186000", "095853.189000", "095853.192000", "095853.195000", "095853.198000", "095853.201000", "095853.204000", "095853.208000", "095853.211000", "095853.214000", "095853.217000", "095853.220000", "095933.141000", "095933.144000", "095933.147000", "095933.151000", "095933.154000", "095933.157000", "095933.160000", "095933.163000", "095933.166000", "095933.169000", "095933.172000", "095933.175000", "095933.179000", "095933.182000", "095933.185000", "095933.188000", "095933.191000", "095933.194000", "095933.197000", "095933.200000", "095933.203000", "095933.206000", "095933.209000", "095933.212000", "095933.215000", "095933.218000", "095933.221000", "100013.142000", "100013.145000", "100013.149000", "100013.152000", "100013.155000", "100013.158000", "100013.161000", "100013.164000", "100013.168000", "100013.172000", "100013.175000", "100013.178000", "100013.181000", "100013.184000", "100013.187000", "100013.190000", "100013.193000", "100013.196000", "100013.200000", "100013.203000", "100013.206000", "100013.209000", "100013.212000", "100013.215000", "100013.218000", "100013.221000", "100013.224000", "100021.755000", "100021.759000", "100021.762000", "100021.765000", "100021.768000", "100021.771000"],
      "InstanceNumber": [1, 2, 3, 4, 5, 6, 7, 8, 9, 10, 11, 12, 13, 14, 15, 16, 17, 18, 19, 20, 21, 22, 23, 24, 25, 26, 27, 28, 29, 30, 31, 32, 33, 34, 35, 36, 37, 38, 39, 40, 41, 42, 43, 44, 45, 46, 47, 48, 49, 50, 51, 52, 53, 54, 55, 56, 57, 58, 59, 60, 61, 62, 63, 64, 65, 66, 67, 68, 69, 70, 71, 72, 73, 74, 75, 76, 77, 78, 79, 80, 81, 82, 83, 84, 85, 86, 87, 88, 89, 90, 91, 92, 93, 94, 95, 96, 97, 98, 99, 100, 101, 102, 103, 104, 105, 106, 107, 108, 109, 110, 111, 112, 113, 114, 115, 116, 117, 118, 119, 120, 121, 122, 123, 124, 125, 126, 127, 128, 129, 130, 131, 132, 133, 134, 135, 136, 137, 138, 139, 140, 141, 142, 143, 144, 145, 146, 147, 148, 149, 150, 151, 152, 153, 154, 155, 156, 157, 158, 159, 160, 161, 162, 163, 164],
      "LargestImagePixelValue": [2753, 2686, 2643, 2600, 2637, 2646, 2624, 2639, 2602, 2600, 2625, 2631, 2662, 2617, 2641, 2617, 2649, 2659, 2633, 2636, 2658, 2609, 2637, 2597, 2619, 2651, 2634, 2655, 2635, 2649, 2678, 2644, 2635, 2637, 2668, 2668, 2642, 2615, 2653, 2655, 2677, 2667, 2639, 2645, 2654, 2671, 2681, 2675, 2669, 2625, 2662, 2635, 2658, 2649, 2666, 2645, 2635, 2629, 2585, 2653, 2611, 2628, 2649, 2632, 2637, 2669, 2645, 2630, 2615, 2644, 2623, 2633, 2653, 2666, 2615, 2656, 2647, 2642, 2676, 2634, 2658, 2657, 2623, 2682, 2640, 2679, 2696, 2654, 2685, 2661, 2655, 2657, 2665, 2645, 2665, 2677, 2635, 2672, 2656, 2671, 2646, 2643, 2686, 2641, 2683, 2657, 2697, 2641, 2663, 2679, 2631, 2685, 2649, 2677, 2684, 2668, 2647, 2669, 2664, 2670, 2644, 2659, 2640, 2655, 2611, 2650, 2642, 2613, 2634, 2609, 2616, 2608, 2617, 2635, 2652, 2615, 2617, 2631, 2608, 2592, 2611, 2619, 2609, 2630, 2630, 2596, 2592, 2609, 2593, 2616, 2571, 2541, 2555, 2586, 2586, 2596, 2560, 2530, 2553, 2552, 2509, 2511, 2515, 2529],
      "WindowCenter": [714.0, 713.0, 711.0, 710.0, 711.0, 711.0, 710.0, 710.0, 709.0, 709.0, 709.0, 709.0, 710.0, 709.0, 710.0, 710.0, 710.0, 710.0, 710.0, 710.0, 711.0, 710.0, 710.0, 710.0, 712.0, 712.0, 710.0, 710.0, 710.0, 710.0, 711.0, 711.0, 711.0, 711.0, 711.0, 711.0, 711.0, 710.0, 710.0, 710.0, 711.0, 711.0, 710.0, 709.0, 709.0, 710.0, 710.0, 710.0, 710.0, 710.0, 709.0, 710.0, 710.0, 710.0, 710.0, 710.0, 710.0, 710.0, 711.0, 712.0, 711.0, 710.0, 709.0, 709.0, 710.0, 710.0, 710.0, 710.0, 711.0, 711.0, 711.0, 710.0, 709.0, 709.0, 709.0, 710.0, 710.0, 710.0, 710.0, 709.0, 709.0, 709.0, 709.0, 710.0, 709.0, 709.0, 708.0, 708.0, 708.0, 709.0, 709.0, 710.0, 710.0, 710.0, 711.0, 710.0, 710.0, 709.0, 709.0, 709.0, 709.0, 709.0, 710.0, 710.0, 710.0, 710.0, 710.0, 709.0, 708.0, 709.0, 711.0, 712.0, 710.0, 710.0, 709.0, 709.0, 709.0, 708.0, 708.0, 708.0, 709.0, 709.0, 710.0, 710.0, 710.0, 709.0, 709.0, 709.0, 709.0, 710.0, 709.0, 709.0, 708.0, 709.0, 709.0, 709.0, 708.0, 709.0, 709.0, 709.0, 709.0, 709.0, 708.0, 708.0, 708.0, 708.0, 708.0, 708.0, 708.0, 707.0, 708.0, 708.0, 707.0, 707.0, 707.0, 708.0, 708.0, 708.0, 708.0, 708.0, 708.0, 708.0, 707.0, 707.0],
      "WindowWidth": [1546.0, 1543.0, 1539.0, 1536.0, 1538.0, 1537.0, 1535.0, 1535.0, 1532.0, 1532.0, 1533.0, 1533.0, 1534.0, 1533.0, 1534.0, 1535.0, 1534.0, 1535.0, 1536.0, 1536.0, 1536.0, 1535.0, 1534.0, 1536.0, 1541.0, 1541.0, 1535.0, 1536.0, 1535.0, 1535.0, 1537.0, 1537.0, 1538.0, 1538.0, 1539.0, 1538.0, 1537.0, 1534.0, 1535.0, 1536.0, 1538.0, 1537.0, 1534.0, 1533.0, 1533.0, 1534.0, 1534.0, 1535.0, 1536.0, 1534.0, 1533.0, 1534.0, 1534.0, 1533.0, 1534.0, 1534.0, 1536.0, 1535.0, 1537.0, 1541.0, 1537.0, 1534.0, 1532.0, 1532.0, 1534.0, 1534.0, 1536.0, 1536.0, 1537.0, 1538.0, 1537.0, 1536.0, 1534.0, 1532.0, 1533.0, 1534.0, 1534.0, 1534.0, 1534.0, 1533.0, 1534.0, 1532.0, 1532.0, 1536.0, 1533.0, 1531.0, 1530.0, 1530.0, 1530.0, 1532.0, 1533.0, 1534.0, 1534.0, 1535.0, 1536.0, 1535.0, 1534.0, 1532.0, 1531.0, 1532.0, 1532.0, 1533.0, 1534.0, 1535.0, 1534.0, 1534.0, 1533.0, 1532.0, 1531.0, 1532.0, 1538.0, 1541.0, 1535.0, 1533.0, 1532.0, 1531.0, 1531.0, 1530.0, 1530.0, 1530.0, 1531.0, 1533.0, 1535.0, 1536.0, 1533.0, 1532.0, 1532.0, 1533.0, 1533.0, 1534.0, 1533.0, 1531.0, 1530.0, 1531.0, 1533.0, 1532.0, 1530.0, 1531.0, 1531.0, 1532.0, 1532.0, 1531.0, 1530.0, 1529.0, 1530.0, 1528.0, 1528.0, 1530.0, 1529.0, 1527.0, 1529.0, 1529.0, 1527.0, 1528.0, 1528.0, 1528.0, 1529.0, 1529.0, 1530.0, 1531.0, 1531.0, 1529.0, 1528.0, 1527.0]
    },
    "slices": {}
  }
}