{
  "AcquisitionMatrixPE": 72,
  "AcquisitionNumber": 1,
  "AcquisitionTime": "15:31:4.090000",
  "BandwidthPerPixelPhaseEncode": 17.943,
  "BaseResolution": 96,
  "BodyPartExamined": "BRAIN",
  "CoilCombinationMethod": "Sum of Squares",
  "ConsistencyInfo": "N4_VE11C_LATEST_20160120",
  "ConversionSoftware": "dcm2niix",
  "ConversionSoftwareVersion": "v1.0.20211006",
  "DerivedVendorReportedEchoSpacing": 0.000552897,
  "DeviceSerialNumber": "166011",
  "EchoTime": 0.03,
  "EchoTrainLength": 58,
  "EffectiveEchoSpacing": 0.000580542,
  "FlipAngle": 62,
  "ImageOrientationPatientDICOM": [0.99412, -0.106973, 0.016829, 0.108171, 0.988197, -0.108465],
  "ImageType": [
    "ORIGINAL",
    "PRIMARY",
    "M",
    "ND",
    "MOSAIC"
],
  "ImagingFrequency": 123.26,
  "InPlanePhaseEncodingDirectionDICOM": "COL",
  "InstitutionAddress": "West 130th Street 610,NY,NYC,US,10025",
  "InstitutionName": "MBBI",
  "MRAcquisitionType": "2D",
  "MagneticFieldStrength": 3,
  "Manufacturer": "Siemens",
  "ManufacturersModelName": "Prisma",
  "Modality": "MR",
  "MultibandAccelerationFactor": 3,
  "PartialFourier": 0.75,
  "PatientPosition": "HFS",
  "PercentPhaseFOV": 100,
  "PercentSampling": 75,
  "PhaseEncodingDirection": "j-",
  "PhaseEncodingSteps": 58,
  "PhaseOversampling": 0.05,
  "PhaseResolution": 0.75,
  "PixelBandwidth": 2265,
  "ProcedureStepDescription": "White^Word_recognition",
  "ProtocolName": "func_vwfate_run13",
  "PulseSequenceDetails": "%SiemensSeq%\\ep2d_bold",
  "ReceiveCoilActiveElements": "HC1-7",
  "ReceiveCoilName": "HeadNeck_64",
  "ReconMatrixPE": 96,
  "RefLinesPE": 40,
  "RepetitionTime": 1.5,
  "SAR": 0.0521078,
  "ScanOptions": "PFP\\FS",
  "ScanningSequence": "EP",
  "SequenceName": "*epfid2d1_72",
  "SequenceVariant": "SK\\OSP",
  "SeriesDescription": "func_vwfate_run13",
  "SeriesNumber": 8,
  "ShimSetting": [-1160, -1360, 639, 540, -94, -161, -121, -33],
  "SliceThickness": 2,
  "SliceTiming": [1.075, 0, 0.74, 0.0675, 0.8075, 0.135, 0.875, 0.2025, 0.9425, 0.27, 1.01, 0.4025, 1.1425, 0.47, 1.21, 0.5375, 1.2775, 0.605, 1.345, 0.6725, 1.4125, 0.335, 1.075, 0, 0.74, 0.0675, 0.8075, 0.135, 0.875, 0.2025, 0.9425, 0.27, 1.01, 0.4025, 1.1425, 0.47, 1.21, 0.5375, 1.2775, 0.605, 1.345, 0.6725, 1.4125, 0.335, 1.075, 0, 0.74, 0.0675, 0.8075, 0.135, 0.875, 0.2025, 0.9425, 0.27, 1.01, 0.4025, 1.1425, 0.47, 1.21, 0.5375, 1.2775, 0.605, 1.345, 0.6725, 1.4125, 0.335],
  "SoftwareVersions": "syngo MR E11",
  "SpacingBetweenSlices": 2,
  "StationName": "AWP166011",
  "TaskName": "vwfate",
  "TotalReadoutTime": 0.0551515,
  "TxRefAmp": 217.042,
  "dcmmeta_affine": [
    [-1.988239049911499, 0.2163429707288742, 0.010055135935544968, 92.00132751464844],
    [0.21394513547420502, 1.9763948917388916, -0.21929599344730377, -75.95398712158203],
    [0.03365803137421608, 0.2169307917356491, 1.9879155158996582, -72.74864959716797],
    [0.0, 0.0, 0.0, 1.0]
],
  "dcmmeta_reorient_transform": [
    [0.0, -1.0, 0.0, 95.0],
    [1.0, 0.0, 0.0, 0.0],
    [0.0, 0.0, 1.0, 0.0],
    [0.0, 0.0, 0.0, 1.0]
],
  "dcmmeta_shape": [96, 96, 66, 164],
  "dcmmeta_slice_dim": 2,
  "dcmmeta_version": 0.6,
  "global": {
    "const": {
      "AcquisitionMatrix": [96, 0, 0, 72],
      "AngioFlag": "N",
      "BitsAllocated": 16,
      "BitsStored": 12,
      "BodyPartExamined": "BRAIN",
      "Columns": 864,
      "EchoNumbers": 1,
      "EchoTime": 30.0,
      "EchoTrainLength": 58,
      "FlipAngle": 62.0,
      "HighBit": 11,
      "ImageOrientationPatient": [0.99411953676519, -0.1069725705317, 0.01682901588372, 0.10817148507116, 0.98819744334938, -0.1084653989771],
      "ImagePositionPatient": [-959.11341112451, -788.58422654638, 18.236521912816],
      "ImageType": [
        "ORIGINAL",
        "PRIMARY",
        "M",
        "ND",
        "MOSAIC"
],
      "ImagedNucleus": "1H",
      "ImagingFrequency": 123.259504,
      "InPlanePhaseEncodingDirection": "COL",
      "MRAcquisitionType": "2D",
      "MagneticFieldStrength": 3.0,
      "Manufacturer": "SIEMENS",
      "ManufacturerModelName": "Prisma",
      "Modality": "MR",
      "NumberOfAverages": 1.0,
      "NumberOfPhaseEncodingSteps": 58,
      "PercentPhaseFieldOfView": 100.0,
      "PercentSampling": 75.0,
      "PerformedProcedureStepStartTime": "145223.508000",
      "PhotometricInterpretation": "MONOCHROME2",
      "PixelBandwidth": 2265.0,
      "PixelRepresentation": 0,
      "PixelSpacing": [2.0, 2.0],
      "ProtocolName": "func_vwfate_run13",
      "RepetitionTime": 1500.0,
      "Rows": 864,
      "SAR": 0.05210782014713,
      "SamplesPerPixel": 1,
      "ScanOptions": [
        "PFP",
        "FS"
],
      "ScanningSequence": "EP",
      "SequenceName": "*epfid2d1_72",
      "SequenceVariant": [
        "SK",
        "OSP"
],
      "SeriesDescription": "func_vwfate_run13",
      "SeriesNumber": 8,
      "SeriesTime": "153143.099000",
      "SliceLocation": -63.518336413833,
      "SliceThickness": 2.0,
      "SmallestImagePixelValue": 0,
      "SoftwareVersions": "syngo MR E11",
      "SpacingBetweenSlices": 2.0000000344387,
      "SpecificCharacterSet": "ISO_IR 100",
      "StudyID": "3",
      "StudyTime": "145223.440000",
      "TransmitCoilName": "Body",
      "VariableFlipAngleFlag": "N",
      "WindowCenterWidthExplanation": "Algo1",
      "dBdt": 0.0},
    "slices": {}
  },
  "time": {
    "samples": {
      "AcquisitionNumber": [1, 2, 3, 4, 5, 6, 7, 8, 9, 10, 11, 12, 13, 14, 15, 16, 17, 18, 19, 20, 21, 22, 23, 24, 25, 26, 27, 28, 29, 30, 31, 32, 33, 34, 35, 36, 37, 38, 39, 40, 41, 42, 43, 44, 45, 46, 47, 48, 49, 50, 51, 52, 53, 54, 55, 56, 57, 58, 59, 60, 61, 62, 63, 64, 65, 66, 67, 68, 69, 70, 71, 72, 73, 74, 75, 76, 77, 78, 79, 80, 81, 82, 83, 84, 85, 86, 87, 88, 89, 90, 91, 92, 93, 94, 95, 96, 97, 98, 99, 100, 101, 102, 103, 104, 105, 106, 107, 108, 109, 110, 111, 112, 113, 114, 115, 116, 117, 118, 119, 120, 121, 122, 123, 124, 125, 126, 127, 128, 129, 130, 131, 132, 133, 134, 135, 136, 137, 138, 139, 140, 141, 142, 143, 144, 145, 146, 147, 148, 149, 150, 151, 152, 153, 154, 155, 156, 157, 158, 159, 160, 161, 162, 163, 164],
      "AcquisitionTime": ["153104.090000", "153105.590000", "153107.090000", "153108.590000", "153110.090000", "153111.590000", "153113.090000", "153114.590000", "153116.090000", "153117.590000", "153119.090000", "153120.590000", "153122.090000", "153123.590000", "153125.090000", "153126.590000", "153128.090000", "153129.590000", "153131.090000", "153132.590000", "153134.090000", "153135.590000", "153137.090000", "153138.590000", "153140.090000", "153141.590000", "153143.090000", "153144.590000", "153146.090000", "153147.590000", "153149.090000", "153150.590000", "153152.090000", "153153.590000", "153155.090000", "153156.590000", "153158.090000", "153159.590000", "153201.090000", "153202.590000", "153204.090000", "153205.590000", "153207.090000", "153208.590000", "153210.090000", "153211.590000", "153213.090000", "153214.590000", "153216.090000", "153217.590000", "153219.090000", "153220.590000", "153222.090000", "153223.590000", "153225.090000", "153226.590000", "153228.090000", "153229.590000", "153231.090000", "153232.590000", "153234.090000", "153235.590000", "153237.090000", "153238.590000", "153240.090000", "153241.590000", "153243.090000", "153244.590000", "153246.090000", "153247.590000", "153249.090000", "153250.590000", "153252.090000", "153253.590000", "153255.090000", "153256.590000", "153258.090000", "153259.590000", "153301.090000", "153302.590000", "153304.090000", "153305.590000", "153307.090000", "153308.590000", "153310.090000", "153311.590000", "153313.090000", "153314.590000", "153316.090000", "153317.590000", "153319.090000", "153320.590000", "153322.090000", "153323.590000", "153325.090000", "153326.590000", "153328.090000", "153329.590000", "153331.090000", "153332.590000", "153334.090000", "153335.590000", "153337.090000", "153338.590000", "153340.090000", "153341.590000", "153343.090000", "153344.590000", "153346.090000", "153347.590000", "153349.090000", "153350.590000", "153352.090000", "153353.590000", "153355.090000", "153356.590000", "153358.090000", "153359.590000", "153401.090000", "153402.590000", "153404.090000", "153405.590000", "153407.090000", "153408.590000", "153410.090000", "153411.590000", "153413.090000", "153414.590000", "153416.090000", "153417.590000", "153419.090000", "153420.590000", "153422.090000", "153423.590000", "153425.090000", "153426.590000", "153428.090000", "153429.590000", "153431.090000", "153432.590000", "153434.090000", "153435.590000", "153437.090000", "153438.590000", "153440.090000", "153441.590000", "153443.090000", "153444.590000", "153446.090000", "153447.590000", "153449.090000", "153450.590000", "153452.090000", "153453.590000", "153455.090000", "153456.590000", "153458.090000", "153459.590000", "153501.090000", "153502.590000", "153504.090000", "153505.590000", "153507.090000", "153508.590000"],
      "ContentTime": ["153143.103000", "153143.107000", "153143.117000", "153143.120000", "153143.124000", "153143.127000", "153143.141000", "153143.144000", "153143.147000", "153143.150000", "153143.153000", "153143.156000", "153143.159000", "153143.162000", "153143.165000", "153143.172000", "153143.175000", "153143.178000", "153143.181000", "153143.184000", "153143.187000", "153143.190000", "153143.193000", "153143.202000", "153143.206000", "153223.098000", "153223.105000", "153223.108000", "153223.111000", "153223.114000", "153223.117000", "153223.120000", "153223.123000", "153223.126000", "153223.129000", "153223.132000", "153223.135000", "153223.138000", "153223.141000", "153223.144000", "153223.147000", "153223.152000", "153223.155000", "153223.158000", "153223.161000", "153223.164000", "153223.167000", "153223.170000", "153223.173000", "153223.176000", "153223.179000", "153223.182000", "153303.097000", "153303.100000", "153303.103000", "153303.106000", "153303.112000", "153303.115000", "153303.118000", "153303.121000", "153303.124000", "153303.127000", "153303.130000", "153303.133000", "153303.136000", "153303.139000", "153303.142000", "153303.145000", "153303.148000", "153303.151000", "153303.154000", "153303.157000", "153303.160000", "153303.163000", "153303.166000", "153303.169000", "153303.172000", "153303.175000", "153303.178000", "153343.098000", "153343.101000", "153343.104000", "153343.107000", "153343.110000", "153343.113000", "153343.117000", "153343.120000", "153343.123000", "153343.126000", "153343.129000", "153343.132000", "153343.135000", "153343.138000", "153343.141000", "153343.144000", "153343.147000", "153343.150000", "153343.153000", "153343.156000", "153343.160000", "153343.163000", "153343.165000", "153343.168000", "153343.171000", "153343.180000", "153423.098000", "153423.101000", "153423.104000", "153423.107000", "153423.110000", "153423.113000", "153423.116000", "153423.119000", "153423.122000", "153423.125000", "153423.128000", "153423.131000", "153423.134000", "153423.137000", "153423.140000", "153423.143000", "153423.160000", "153423.163000", "153423.166000", "153423.168000", "153423.171000", "153423.174000", "153423.177000", "153423.180000", "153423.183000", "153423.186000", "153423.189000", "153503.098000", "153503.101000", "153503.104000", "153503.107000", "153503.110000", "153503.113000", "153503.116000", "153503.119000", "153503.122000", "153503.134000", "153503.138000", "153503.141000", "153503.144000", "153503.147000", "153503.150000", "153503.153000", "153503.156000", "153503.159000", "153503.162000", "153503.165000", "153503.168000", "153503.171000", "153503.174000", "153503.176000", "153503.179000", "153503.182000", "153503.185000", "153510.129000", "153510.133000", "153510.136000", "153510.139000", "153510.142000"],
      "InstanceCreationTime": ["153143.103000", "153143.107000", "153143.117000", "153143.120000", "153143.124000", "153143.127000", "153143.141000", "153143.144000", "153143.147000", "153143.150000", "153143.153000", "153143.156000", "153143.159000", "153143.162000", "153143.165000", "153143.172000", "153143.175000", "153143.178000", "153143.181000", "153143.184000", "153143.187000", "153143.190000", "153143.193000", "153143.202000", "153143.206000", "153223.098000", "153223.105000", "153223.108000", "153223.111000", "153223.114000", "153223.117000", "153223.120000", "153223.123000", "153223.126000", "153223.129000", "153223.132000", "153223.135000", "153223.138000", "153223.141000", "153223.144000", "153223.147000", "153223.152000", "153223.155000", "153223.158000", "153223.161000", "153223.164000", "153223.167000", "153223.170000", "153223.173000", "153223.176000", "153223.179000", "153223.182000", "153303.097000", "153303.100000", "153303.103000", "153303.106000", "153303.112000", "153303.115000", "153303.118000", "153303.121000", "153303.124000", "153303.127000", "153303.130000", "153303.133000", "153303.136000", "153303.139000", "153303.142000", "153303.145000", "153303.148000", "153303.151000", "153303.154000", "153303.157000", "153303.160000", "153303.163000", "153303.166000", "153303.169000", "153303.172000", "153303.175000", "153303.178000", "153343.098000", "153343.101000", "153343.104000", "153343.107000", "153343.110000", "153343.113000", "153343.117000", "153343.120000", "153343.123000", "153343.126000", "153343.129000", "153343.132000", "153343.135000", "153343.138000", "153343.141000", "153343.144000", "153343.147000", "153343.150000", "153343.153000", "153343.156000", "153343.160000", "153343.163000", "153343.165000", "153343.168000", "153343.171000", "153343.180000", "153423.098000", "153423.101000", "153423.104000", "153423.107000", "153423.110000", "153423.113000", "153423.116000", "153423.119000", "153423.122000", "153423.125000", "153423.128000", "153423.131000", "153423.134000", "153423.137000", "153423.140000", "153423.143000", "153423.160000", "153423.163000", "153423.166000", "153423.168000", "153423.171000", "153423.174000", "153423.177000", "153423.180000", "153423.183000", "153423.186000", "153423.189000", "153503.098000", "153503.101000", "153503.104000", "153503.107000", "153503.110000", "153503.113000", "153503.116000", "153503.119000", "153503.122000", "153503.134000", "153503.138000", "153503.141000", "153503.144000", "153503.147000", "153503.150000", "153503.153000", "153503.156000", "153503.159000", "153503.162000", "153503.165000", "153503.168000", "153503.171000", "153503.174000", "153503.176000", "153503.179000", "153503.182000", "153503.185000", "153510.129000", "153510.133000", "153510.136000", "153510.139000", "153510.142000"],
      "InstanceNumber": [1, 2, 3, 4, 5, 6, 7, 8, 9, 10, 11, 12, 13, 14, 15, 16, 17, 18, 19, 20, 21, 22, 23, 24, 25, 26, 27, 28, 29, 30, 31, 32, 33, 34, 35, 36, 37, 38, 39, 40, 41, 42, 43, 44, 45, 46, 47, 48, 49, 50, 51, 52, 53, 54, 55, 56, 57, 58, 59, 60, 61, 62, 63, 64, 65, 66, 67, 68, 69, 70, 71, 72, 73, 74, 75, 76, 77, 78, 79, 80, 81, 82, 83, 84, 85, 86, 87, 88, 89, 90, 91, 92, 93, 94, 95, 96, 97, 98, 99, 100, 101, 102, 103, 104, 105, 106, 107, 108, 109, 110, 111, 112, 113, 114, 115, 116, 117, 118, 119, 120, 121, 122, 123, 124, 125, 126, 127, 128, 129, 130, 131, 132, 133, 134, 135, 136, 137, 138, 139, 140, 141, 142, 143, 144, 145, 146, 147, 148, 149, 150, 151, 152, 153, 154, 155, 156, 157, 158, 159, 160, 161, 162, 163, 164],
      "LargestImagePixelValue": [2755, 2689, 2657, 2628, 2637, 2605, 2626, 2610, 2621, 2613, 2660, 2595, 2614, 2604, 2597, 2601, 2602, 2617, 2597, 2597, 2606, 2589, 2611, 2597, 2627, 2625, 2611, 2613, 2599, 2599, 2609, 2602, 2601, 2620, 2625, 2609, 2593, 2608, 2582, 2585, 2602, 2600, 2599, 2613, 2589, 2593, 2587, 2577, 2606, 2573, 2595, 2592, 2585, 2608, 2597, 2578, 2586, 2590, 2600, 2589, 2595, 2591, 2608, 2598, 2611, 2610, 2591, 2590, 2605, 2607, 2563, 2593, 2568, 2580, 2561, 2592, 2571, 2571, 2584, 2618, 2597, 2602, 2606, 2612, 2588, 2597, 2581, 2596, 2588, 2610, 2608, 2588, 2597, 2576, 2611, 2587, 2584, 2597, 2605, 2601, 2593, 2582, 2595, 2598, 2588, 2579, 2588, 2603, 2596, 2607, 2592, 2612, 2607, 2601, 2602, 2608, 2604, 2607, 2597, 2609, 2609, 2627, 2598, 2600, 2613, 2574, 2601, 2588, 2618, 2595, 2600, 2613, 2602, 2614, 2597, 2616, 2617, 2587, 2612, 2605, 2616, 2663, 2611, 2581, 2600, 2596, 2623, 2632, 2634, 2628, 2621, 2625, 2619, 2610, 2652, 2626, 2611, 2643, 2622, 2614, 2625, 2628, 2626, 2573],
      "WindowCenter": [778.0, 775.0, 774.0, 774.0, 773.0, 773.0, 773.0, 773.0, 773.0, 773.0, 773.0, 773.0, 773.0, 773.0, 773.0, 774.0, 773.0, 773.0, 773.0, 773.0, 773.0, 773.0, 774.0, 774.0, 774.0, 775.0, 775.0, 774.0, 774.0, 774.0, 773.0, 774.0, 774.0, 775.0, 774.0, 773.0, 773.0, 773.0, 773.0, 773.0, 773.0, 773.0, 773.0, 773.0, 773.0, 773.0, 772.0, 772.0, 773.0, 773.0, 773.0, 773.0, 773.0, 773.0, 773.0, 773.0, 773.0, 773.0, 773.0, 773.0, 773.0, 773.0, 772.0, 773.0, 773.0, 773.0, 773.0, 774.0, 773.0, 773.0, 772.0, 773.0, 773.0, 774.0, 774.0, 774.0, 774.0, 774.0, 774.0, 774.0, 773.0, 773.0, 773.0, 774.0, 773.0, 774.0, 773.0, 774.0, 774.0, 774.0, 773.0, 774.0, 774.0, 774.0, 774.0, 774.0, 774.0, 773.0, 773.0, 774.0, 774.0, 774.0, 774.0, 775.0, 774.0, 774.0, 774.0, 774.0, 774.0, 774.0, 774.0, 773.0, 773.0, 773.0, 773.0, 774.0, 774.0, 774.0, 773.0, 773.0, 773.0, 773.0, 773.0, 773.0, 773.0, 773.0, 773.0, 773.0, 774.0, 773.0, 773.0, 773.0, 773.0, 774.0, 773.0, 773.0, 774.0, 773.0, 773.0, 772.0, 772.0, 774.0, 773.0, 774.0, 774.0, 774.0, 775.0, 775.0, 775.0, 775.0, 775.0, 775.0, 774.0, 773.0, 774.0, 774.0, 774.0, 774.0, 773.0, 773.0, 774.0, 774.0, 775.0, 774.0],
      "WindowWidth": [1697.0, 1691.0, 1687.0, 1686.0, 1683.0, 1682.0, 1683.0, 1684.0, 1683.0, 1684.0, 1684.0, 1683.0, 1684.0, 1684.0, 1684.0, 1685.0, 1684.0, 1684.0, 1683.0, 1683.0, 1682.0, 1682.0, 1685.0, 1686.0, 1686.0, 1688.0, 1687.0, 1686.0, 1685.0, 1684.0, 1683.0, 1686.0, 1687.0, 1688.0, 1684.0, 1683.0, 1682.0, 1682.0, 1682.0, 1683.0, 1684.0, 1684.0, 1683.0, 1682.0, 1681.0, 1682.0, 1680.0, 1680.0, 1681.0, 1681.0, 1682.0, 1683.0, 1683.0, 1683.0, 1682.0, 1683.0, 1683.0, 1683.0, 1681.0, 1682.0, 1682.0, 1682.0, 1680.0, 1681.0, 1682.0, 1683.0, 1683.0, 1684.0, 1682.0, 1682.0, 1680.0, 1683.0, 1683.0, 1684.0, 1684.0, 1686.0, 1685.0, 1686.0, 1685.0, 1685.0, 1683.0, 1684.0, 1684.0, 1684.0, 1683.0, 1684.0, 1683.0, 1684.0, 1684.0, 1684.0, 1683.0, 1683.0, 1684.0, 1685.0, 1685.0, 1685.0, 1684.0, 1683.0, 1683.0, 1684.0, 1684.0, 1685.0, 1686.0, 1688.0, 1685.0, 1684.0, 1684.0, 1685.0, 1685.0, 1685.0, 1684.0, 1683.0, 1681.0, 1683.0, 1683.0, 1684.0, 1684.0, 1684.0, 1683.0, 1683.0, 1681.0, 1682.0, 1681.0, 1682.0, 1682.0, 1681.0, 1682.0, 1683.0, 1684.0, 1683.0, 1683.0, 1682.0, 1682.0, 1683.0, 1683.0, 1683.0, 1684.0, 1683.0, 1682.0, 1679.0, 1680.0, 1685.0, 1683.0, 1684.0, 1686.0, 1685.0, 1688.0, 1688.0, 1689.0, 1688.0, 1688.0, 1687.0, 1686.0, 1683.0, 1684.0, 1683.0, 1684.0, 1683.0, 1682.0, 1682.0, 1685.0, 1686.0, 1688.0, 1686.0]
    },
    "slices": {}
  }
}