{
  "AcquisitionMatrixPE": 72,
  "AcquisitionNumber": 1,
  "AcquisitionTime": "15:47:15.135000",
  "BandwidthPerPixelPhaseEncode": 17.943,
  "BaseResolution": 96,
  "BodyPartExamined": "BRAIN",
  "CoilCombinationMethod": "Sum of Squares",
  "ConsistencyInfo": "N4_VE11C_LATEST_20160120",
  "ConversionSoftware": "dcm2niix",
  "ConversionSoftwareVersion": "v1.0.20211006",
  "DerivedVendorReportedEchoSpacing": 0.000552897,
  "DeviceSerialNumber": "166011",
  "EchoTime": 0.03,
  "EchoTrainLength": 58,
  "EffectiveEchoSpacing": 0.000580542,
  "FlipAngle": 62,
  "ImageOrientationPatientDICOM": [0.99412, -0.106973, 0.016829, 0.108171, 0.988197, -0.108465],
  "ImageType": [
    "ORIGINAL",
    "PRIMARY",
    "M",
    "ND",
    "MOSAIC"
],
  "ImagingFrequency": 123.26,
  "InPlanePhaseEncodingDirectionDICOM": "COL",
  "InstitutionAddress": "West 130th Street 610,NY,NYC,US,10025",
  "InstitutionName": "MBBI",
  "MRAcquisitionType": "2D",
  "MagneticFieldStrength": 3,
  "Manufacturer": "Siemens",
  "ManufacturersModelName": "Prisma",
  "Modality": "MR",
  "MultibandAccelerationFactor": 3,
  "PartialFourier": 0.75,
  "PatientPosition": "HFS",
  "PercentPhaseFOV": 100,
  "PercentSampling": 75,
  "PhaseEncodingDirection": "j-",
  "PhaseEncodingSteps": 58,
  "PhaseOversampling": 0.05,
  "PhaseResolution": 0.75,
  "PixelBandwidth": 2265,
  "ProcedureStepDescription": "White^Word_recognition",
  "ProtocolName": "func_language_run1",
  "PulseSequenceDetails": "%SiemensSeq%\\ep2d_bold",
  "ReceiveCoilActiveElements": "HC1-7",
  "ReceiveCoilName": "HeadNeck_64",
  "ReconMatrixPE": 96,
  "RefLinesPE": 40,
  "RepetitionTime": 1.5,
  "SAR": 0.0523276,
  "ScanOptions": "PFP\\FS",
  "ScanningSequence": "EP",
  "SequenceName": "*epfid2d1_72",
  "SequenceVariant": "SK\\OSP",
  "SeriesDescription": "func_language_run1",
  "SeriesNumber": 11,
  "ShimSetting": [-1160, -1360, 639, 540, -94, -161, -121, -33],
  "SliceThickness": 2,
  "SliceTiming": [1.0775, 0, 0.74, 0.0675, 0.8075, 0.135, 0.875, 0.2025, 0.9425, 0.27, 1.01, 0.405, 1.145, 0.4725, 1.2125, 0.54, 1.28, 0.6075, 1.3475, 0.6725, 1.4125, 0.3375, 1.0775, 0, 0.74, 0.0675, 0.8075, 0.135, 0.875, 0.2025, 0.9425, 0.27, 1.01, 0.405, 1.145, 0.4725, 1.2125, 0.54, 1.28, 0.6075, 1.3475, 0.6725, 1.4125, 0.3375, 1.0775, 0, 0.74, 0.0675, 0.8075, 0.135, 0.875, 0.2025, 0.9425, 0.27, 1.01, 0.405, 1.145, 0.4725, 1.2125, 0.54, 1.28, 0.6075, 1.3475, 0.6725, 1.4125, 0.3375],
  "SoftwareVersions": "syngo MR E11",
  "SpacingBetweenSlices": 2,
  "StationName": "AWP166011",
  "TaskName": "langLoc",
  "TotalReadoutTime": 0.0551515,
  "TxRefAmp": 217.042,
  "dcmmeta_affine": [
    [-1.988239049911499, 0.2163429707288742, 0.010055135935544968, 92.00132751464844],
    [0.21394513547420502, 1.9763948917388916, -0.21929599344730377, -75.95398712158203],
    [0.03365803137421608, 0.2169307917356491, 1.9879155158996582, -72.74864959716797],
    [0.0, 0.0, 0.0, 1.0]
],
  "dcmmeta_reorient_transform": [
    [0.0, -1.0, 0.0, 95.0],
    [1.0, 0.0, 0.0, 0.0],
    [0.0, 0.0, 1.0, 0.0],
    [0.0, 0.0, 0.0, 1.0]
],
  "dcmmeta_shape": [96, 96, 66, 239],
  "dcmmeta_slice_dim": 2,
  "dcmmeta_version": 0.6,
  "global": {
    "const": {
      "AcquisitionMatrix": [96, 0, 0, 72],
      "AngioFlag": "N",
      "BitsAllocated": 16,
      "BitsStored": 12,
      "BodyPartExamined": "BRAIN",
      "Columns": 864,
      "EchoNumbers": 1,
      "EchoTime": 30.0,
      "EchoTrainLength": 58,
      "FlipAngle": 62.0,
      "HighBit": 11,
      "ImageOrientationPatient": [0.99411953676519, -0.1069725705317, 0.01682901588372, 0.10817148507116, 0.98819744334938, -0.1084653989771],
      "ImagePositionPatient": [-959.11341112451, -788.58422654638, 18.236521912816],
      "ImageType": [
        "ORIGINAL",
        "PRIMARY",
        "M",
        "ND",
        "MOSAIC"
],
      "ImagedNucleus": "1H",
      "ImagingFrequency": 123.259513,
      "InPlanePhaseEncodingDirection": "COL",
      "MRAcquisitionType": "2D",
      "MagneticFieldStrength": 3.0,
      "Manufacturer": "SIEMENS",
      "ManufacturerModelName": "Prisma",
      "Modality": "MR",
      "NumberOfAverages": 1.0,
      "NumberOfPhaseEncodingSteps": 58,
      "PercentPhaseFieldOfView": 100.0,
      "PercentSampling": 75.0,
      "PerformedProcedureStepStartTime": "145223.508000",
      "PhotometricInterpretation": "MONOCHROME2",
      "PixelBandwidth": 2265.0,
      "PixelRepresentation": 0,
      "PixelSpacing": [2.0, 2.0],
      "ProtocolName": "func_language_run1",
      "RepetitionTime": 1500.0,
      "Rows": 864,
      "SAR": 0.05232756115667,
      "SamplesPerPixel": 1,
      "ScanOptions": [
        "PFP",
        "FS"
],
      "ScanningSequence": "EP",
      "SequenceName": "*epfid2d1_72",
      "SequenceVariant": [
        "SK",
        "OSP"
],
      "SeriesDescription": "func_language_run1",
      "SeriesNumber": 11,
      "SeriesTime": "154803.099000",
      "SliceLocation": -63.518336413833,
      "SliceThickness": 2.0,
      "SmallestImagePixelValue": 0,
      "SoftwareVersions": "syngo MR E11",
      "SpacingBetweenSlices": 2.0000000344387,
      "SpecificCharacterSet": "ISO_IR 100",
      "StudyID": "3",
      "StudyTime": "145223.440000",
      "TransmitCoilName": "Body",
      "VariableFlipAngleFlag": "N",
      "WindowCenterWidthExplanation": "Algo1",
      "dBdt": 0.0},
    "slices": {}
  },
  "time": {
    "samples": {
      "AcquisitionNumber": [1, 2, 3, 4, 5, 6, 7, 8, 9, 10, 11, 12, 13, 14, 15, 16, 17, 18, 19, 20, 21, 22, 23, 24, 25, 26, 27, 28, 29, 30, 31, 32, 33, 34, 35, 36, 37, 38, 39, 40, 41, 42, 43, 44, 45, 46, 47, 48, 49, 50, 51, 52, 53, 54, 55, 56, 57, 58, 59, 60, 61, 62, 63, 64, 65, 66, 67, 68, 69, 70, 71, 72, 73, 74, 75, 76, 77, 78, 79, 80, 81, 82, 83, 84, 85, 86, 87, 88, 89, 90, 91, 92, 93, 94, 95, 96, 97, 98, 99, 100, 101, 102, 103, 104, 105, 106, 107, 108, 109, 110, 111, 112, 113, 114, 115, 116, 117, 118, 119, 120, 121, 122, 123, 124, 125, 126, 127, 128, 129, 130, 131, 132, 133, 134, 135, 136, 137, 138, 139, 140, 141, 142, 143, 144, 145, 146, 147, 148, 149, 150, 151, 152, 153, 154, 155, 156, 157, 158, 159, 160, 161, 162, 163, 164, 165, 166, 167, 168, 169, 170, 171, 172, 173, 174, 175, 176, 177, 178, 179, 180, 181, 182, 183, 184, 185, 186, 187, 188, 189, 190, 191, 192, 193, 194, 195, 196, 197, 198, 199, 200, 201, 202, 203, 204, 205, 206, 207, 208, 209, 210, 211, 212, 213, 214, 215, 216, 217, 218, 219, 220, 221, 222, 223, 224, 225, 226, 227, 228, 229, 230, 231, 232, 233, 234, 235, 236, 237, 238, 239],
      "AcquisitionTime": ["154715.135000", "154716.635000", "154718.135000", "154719.635000", "154721.135000", "154722.635000", "154724.135000", "154725.635000", "154727.135000", "154728.635000", "154730.135000", "154731.635000", "154733.135000", "154734.635000", "154736.135000", "154737.635000", "154739.135000", "154740.635000", "154742.135000", "154743.635000", "154745.135000", "154746.635000", "154748.135000", "154749.635000", "154751.135000", "154752.635000", "154754.135000", "154755.635000", "154757.135000", "154758.635000", "154800.135000", "154801.635000", "154803.135000", "154804.635000", "154806.135000", "154807.635000", "154809.135000", "154810.635000", "154812.135000", "154813.635000", "154815.135000", "154816.635000", "154818.135000", "154819.635000", "154821.135000", "154822.635000", "154824.135000", "154825.635000", "154827.135000", "154828.635000", "154830.135000", "154831.635000", "154833.135000", "154834.635000", "154836.135000", "154837.635000", "154839.135000", "154840.635000", "154842.135000", "154843.635000", "154845.135000", "154846.635000", "154848.135000", "154849.635000", "154851.135000", "154852.635000", "154854.135000", "154855.635000", "154857.135000", "154858.635000", "154900.135000", "154901.635000", "154903.135000", "154904.635000", "154906.135000", "154907.635000", "154909.135000", "154910.635000", "154912.135000", "154913.635000", "154915.135000", "154916.635000", "154918.135000", "154919.635000", "154921.135000", "154922.635000", "154924.135000", "154925.635000", "154927.135000", "154928.635000", "154930.135000", "154931.635000", "154933.135000", "154934.635000", "154936.135000", "154937.635000", "154939.135000", "154940.635000", "154942.135000", "154943.635000", "154945.135000", "154946.635000", "154948.135000", "154949.635000", "154951.135000", "154952.635000", "154954.135000", "154955.635000", "154957.135000", "154958.635000", "155000.135000", "155001.635000", "155003.135000", "155004.635000", "155006.135000", "155007.635000", "155009.135000", "155010.635000", "155012.135000", "155013.635000", "155015.135000", "155016.635000", "155018.135000", "155019.635000", "155021.135000", "155022.635000", "155024.135000", "155025.635000", "155027.135000", "155028.635000", "155030.135000", "155031.635000", "155033.135000", "155034.635000", "155036.135000", "155037.635000", "155039.135000", "155040.635000", "155042.135000", "155043.635000", "155045.135000", "155046.635000", "155048.135000", "155049.635000", "155051.135000", "155052.635000", "155054.135000", "155055.635000", "155057.135000", "155058.635000", "155100.135000", "155101.635000", "155103.135000", "155104.635000", "155106.135000", "155107.635000", "155109.135000", "155110.635000", "155112.135000", "155113.635000", "155115.135000", "155116.635000", "155118.135000", "155119.635000", "155121.135000", "155122.635000", "155124.135000", "155125.635000", "155127.135000", "155128.635000", "155130.135000", "155131.635000", "155133.135000", "155134.635000", "155136.135000", "155137.635000", "155139.135000", "155140.635000", "155142.135000", "155143.635000", "155145.135000", "155146.635000", "155148.135000", "155149.635000", "155151.135000", "155152.635000", "155154.135000", "155155.635000", "155157.135000", "155158.635000", "155200.135000", "155201.635000", "155203.135000", "155204.635000", "155206.135000", "155207.635000", "155209.135000", "155210.635000", "155212.135000", "155213.635000", "155215.135000", "155216.635000", "155218.135000", "155219.635000", "155221.135000", "155222.635000", "155224.135000", "155225.635000", "155227.135000", "155228.635000", "155230.135000", "155231.635000", "155233.135000", "155234.635000", "155236.135000", "155237.635000", "155239.135000", "155240.635000", "155242.135000", "155243.635000", "155245.135000", "155246.635000", "155248.135000", "155249.635000", "155251.135000", "155252.635000", "155254.135000", "155255.635000", "155257.135000", "155258.635000", "155300.135000", "155301.635000", "155303.135000", "155304.635000", "155306.135000", "155307.635000", "155309.135000", "155310.635000", "155312.135000"],
      "ContentTime": ["154803.103000", "154803.107000", "154803.110000", "154803.113000", "154803.116000", "154803.126000", "154803.129000", "154803.132000", "154803.135000", "154803.138000", "154803.141000", "154803.144000", "154803.147000", "154803.150000", "154803.153000", "154803.156000", "154803.159000", "154803.163000", "154803.175000", "154803.178000", "154803.181000", "154803.184000", "154803.187000", "154803.190000", "154803.193000", "154803.196000", "154803.199000", "154803.201000", "154803.205000", "154803.208000", "154803.210000", "154823.098000", "154823.101000", "154823.104000", "154823.107000", "154823.110000", "154823.113000", "154823.116000", "154823.119000", "154823.122000", "154823.125000", "154823.128000", "154823.131000", "154823.134000", "154823.142000", "154903.098000", "154903.101000", "154903.104000", "154903.107000", "154903.110000", "154903.113000", "154903.116000", "154903.119000", "154903.122000", "154903.136000", "154903.139000", "154903.142000", "154903.145000", "154903.148000", "154903.151000", "154903.154000", "154903.157000", "154903.160000", "154903.163000", "154903.166000", "154903.169000", "154903.172000", "154903.175000", "154903.178000", "154903.181000", "154903.184000", "154943.097000", "154943.100000", "154943.103000", "154943.106000", "154943.109000", "154943.112000", "154943.115000", "154943.118000", "154943.121000", "154943.124000", "154943.127000", "154943.130000", "154943.133000", "154943.136000", "154943.138000", "154943.141000", "154943.145000", "154943.156000", "154943.159000", "154943.162000", "154943.165000", "154943.168000", "154943.171000", "154943.174000", "154943.177000", "154943.180000", "154943.183000", "155023.098000", "155023.101000", "155023.104000", "155023.107000", "155023.110000", "155023.113000", "155023.116000", "155023.119000", "155023.122000", "155023.125000", "155023.128000", "155023.131000", "155023.134000", "155023.137000", "155023.140000", "155023.143000", "155023.146000", "155023.149000", "155023.152000", "155023.155000", "155023.158000", "155023.161000", "155023.163000", "155023.167000", "155023.170000", "155023.172000", "155023.175000", "155103.098000", "155103.101000", "155103.104000", "155103.107000", "155103.110000", "155103.113000", "155103.116000", "155103.119000", "155103.122000", "155103.125000", "155103.128000", "155103.131000", "155103.134000", "155103.137000", "155103.140000", "155103.143000", "155103.146000", "155103.149000", "155103.152000", "155103.155000", "155103.158000", "155103.161000", "155103.164000", "155103.167000", "155103.170000", "155103.173000", "155143.097000", "155143.100000", "155143.103000", "155143.106000", "155143.109000", "155143.112000", "155143.115000", "155143.118000", "155143.121000", "155143.124000", "155143.127000", "155143.130000", "155143.133000", "155143.136000", "155143.139000", "155143.142000", "155143.145000", "155143.148000", "155143.151000", "155143.154000", "155143.157000", "155143.160000", "155143.163000", "155143.166000", "155143.169000", "155143.172000", "155143.175000", "155223.098000", "155223.101000", "155223.104000", "155223.107000", "155223.110000", "155223.113000", "155223.116000", "155223.119000", "155223.122000", "155223.125000", "155223.128000", "155223.131000", "155223.134000", "155223.144000", "155223.147000", "155223.150000", "155223.153000", "155223.156000", "155223.159000", "155223.162000", "155223.165000", "155223.168000", "155223.171000", "155223.174000", "155223.177000", "155223.180000", "155223.183000", "155303.098000", "155303.101000", "155303.104000", "155303.108000", "155303.111000", "155303.114000", "155303.117000", "155303.120000", "155303.123000", "155303.126000", "155303.129000", "155303.132000", "155303.135000", "155303.138000", "155303.141000", "155303.144000", "155303.147000", "155303.151000", "155303.154000", "155303.157000", "155303.160000", "155303.163000", "155303.166000", "155303.169000", "155303.172000", "155303.175000", "155313.650000", "155313.654000", "155313.657000", "155313.661000", "155313.664000", "155313.667000", "155313.670000", "155313.673000"],
      "InstanceCreationTime": ["154803.103000", "154803.107000", "154803.110000", "154803.113000", "154803.116000", "154803.126000", "154803.129000", "154803.132000", "154803.135000", "154803.138000", "154803.141000", "154803.144000", "154803.147000", "154803.150000", "154803.153000", "154803.156000", "154803.159000", "154803.163000", "154803.175000", "154803.178000", "154803.181000", "154803.184000", "154803.187000", "154803.190000", "154803.193000", "154803.196000", "154803.199000", "154803.201000", "154803.205000", "154803.208000", "154803.210000", "154823.098000", "154823.101000", "154823.104000", "154823.107000", "154823.110000", "154823.113000", "154823.116000", "154823.119000", "154823.122000", "154823.125000", "154823.128000", "154823.131000", "154823.134000", "154823.142000", "154903.098000", "154903.101000", "154903.104000", "154903.107000", "154903.110000", "154903.113000", "154903.116000", "154903.119000", "154903.122000", "154903.136000", "154903.139000", "154903.142000", "154903.145000", "154903.148000", "154903.151000", "154903.154000", "154903.157000", "154903.160000", "154903.163000", "154903.166000", "154903.169000", "154903.172000", "154903.175000", "154903.178000", "154903.181000", "154903.184000", "154943.097000", "154943.100000", "154943.103000", "154943.106000", "154943.109000", "154943.112000", "154943.115000", "154943.118000", "154943.121000", "154943.124000", "154943.127000", "154943.130000", "154943.133000", "154943.136000", "154943.138000", "154943.141000", "154943.145000", "154943.156000", "154943.159000", "154943.162000", "154943.165000", "154943.168000", "154943.171000", "154943.174000", "154943.177000", "154943.180000", "154943.183000", "155023.098000", "155023.101000", "155023.104000", "155023.107000", "155023.110000", "155023.113000", "155023.116000", "155023.119000", "155023.122000", "155023.125000", "155023.128000", "155023.131000", "155023.134000", "155023.137000", "155023.140000", "155023.143000", "155023.146000", "155023.149000", "155023.152000", "155023.155000", "155023.158000", "155023.161000", "155023.163000", "155023.167000", "155023.170000", "155023.172000", "155023.175000", "155103.098000", "155103.101000", "155103.104000", "155103.107000", "155103.110000", "155103.113000", "155103.116000", "155103.119000", "155103.122000", "155103.125000", "155103.128000", "155103.131000", "155103.134000", "155103.137000", "155103.140000", "155103.143000", "155103.146000", "155103.149000", "155103.152000", "155103.155000", "155103.158000", "155103.161000", "155103.164000", "155103.167000", "155103.170000", "155103.173000", "155143.097000", "155143.100000", "155143.103000", "155143.106000", "155143.109000", "155143.112000", "155143.115000", "155143.118000", "155143.121000", "155143.124000", "155143.127000", "155143.130000", "155143.133000", "155143.136000", "155143.139000", "155143.142000", "155143.145000", "155143.148000", "155143.151000", "155143.154000", "155143.157000", "155143.160000", "155143.163000", "155143.166000", "155143.169000", "155143.172000", "155143.175000", "155223.098000", "155223.101000", "155223.104000", "155223.107000", "155223.110000", "155223.113000", "155223.116000", "155223.119000", "155223.122000", "155223.125000", "155223.128000", "155223.131000", "155223.134000", "155223.144000", "155223.147000", "155223.150000", "155223.153000", "155223.156000", "155223.159000", "155223.162000", "155223.165000", "155223.168000", "155223.171000", "155223.174000", "155223.177000", "155223.180000", "155223.183000", "155303.098000", "155303.101000", "155303.104000", "155303.108000", "155303.111000", "155303.114000", "155303.117000", "155303.120000", "155303.123000", "155303.126000", "155303.129000", "155303.132000", "155303.135000", "155303.138000", "155303.141000", "155303.144000", "155303.147000", "155303.151000", "155303.154000", "155303.157000", "155303.160000", "155303.163000", "155303.166000", "155303.169000", "155303.172000", "155303.175000", "155313.650000", "155313.654000", "155313.657000", "155313.661000", "155313.664000", "155313.667000", "155313.670000", "155313.673000"],
      "InstanceNumber": [1, 2, 3, 4, 5, 6, 7, 8, 9, 10, 11, 12, 13, 14, 15, 16, 17, 18, 19, 20, 21, 22, 23, 24, 25, 26, 27, 28, 29, 30, 31, 32, 33, 34, 35, 36, 37, 38, 39, 40, 41, 42, 43, 44, 45, 46, 47, 48, 49, 50, 51, 52, 53, 54, 55, 56, 57, 58, 59, 60, 61, 62, 63, 64, 65, 66, 67, 68, 69, 70, 71, 72, 73, 74, 75, 76, 77, 78, 79, 80, 81, 82, 83, 84, 85, 86, 87, 88, 89, 90, 91, 92, 93, 94, 95, 96, 97, 98, 99, 100, 101, 102, 103, 104, 105, 106, 107, 108, 109, 110, 111, 112, 113, 114, 115, 116, 117, 118, 119, 120, 121, 122, 123, 124, 125, 126, 127, 128, 129, 130, 131, 132, 133, 134, 135, 136, 137, 138, 139, 140, 141, 142, 143, 144, 145, 146, 147, 148, 149, 150, 151, 152, 153, 154, 155, 156, 157, 158, 159, 160, 161, 162, 163, 164, 165, 166, 167, 168, 169, 170, 171, 172, 173, 174, 175, 176, 177, 178, 179, 180, 181, 182, 183, 184, 185, 186, 187, 188, 189, 190, 191, 192, 193, 194, 195, 196, 197, 198, 199, 200, 201, 202, 203, 204, 205, 206, 207, 208, 209, 210, 211, 212, 213, 214, 215, 216, 217, 218, 219, 220, 221, 222, 223, 224, 225, 226, 227, 228, 229, 230, 231, 232, 233, 234, 235, 236, 237, 238, 239],
      "LargestImagePixelValue": [2909, 2822, 2792, 2756, 2773, 2765, 2773, 2745, 2781, 2745, 2730, 2753, 2752, 2734, 2750, 2768, 2749, 2779, 2744, 2772, 2766, 2796, 2743, 2755, 2746, 2749, 2761, 2759, 2738, 2771, 2760, 2746, 2754, 2772, 2737, 2791, 2784, 2780, 2738, 2783, 2763, 2782, 2745, 2809, 2749, 2783, 2742, 2810, 2752, 2806, 2746, 2784, 2787, 2773, 2683, 2678, 2660, 2672, 2688, 2674, 2687, 2674, 2710, 2679, 2675, 2686, 2688, 2664, 2736, 2749, 2684, 2702, 2708, 2696, 2695, 2715, 2689, 2681, 2695, 2698, 2701, 2691, 2708, 2721, 2738, 2744, 2714, 2713, 2732, 2724, 2743, 2716, 2746, 2734, 2723, 2735, 2746, 2754, 2715, 2735, 2737, 2754, 2729, 2714, 2703, 2729, 2755, 2742, 2728, 2740, 2733, 2774, 2759, 2746, 2728, 2726, 2759, 2746, 2736, 2738, 2737, 2733, 2732, 2739, 2745, 2752, 2748, 2744, 2733, 2731, 2741, 2716, 2740, 2710, 2738, 2719, 2721, 2718, 2716, 2675, 2746, 2722, 2827, 2744, 2999, 2851, 2796, 2753, 2760, 2781, 2742, 2746, 2724, 2725, 2701, 2726, 2690, 2708, 2693, 2714, 2701, 2731, 2706, 2727, 2707, 2732, 2710, 2726, 2674, 2699, 2687, 2689, 2677, 2674, 2661, 2670, 2670, 2684, 2690, 2664, 2678, 2702, 2673, 2666, 2674, 2697, 2711, 2684, 2687, 2689, 2705, 2691, 2708, 2692, 2717, 2695, 2677, 2718, 2695, 2692, 2695, 2682, 2678, 2646, 2650, 2672, 2658, 2635, 2662, 2667, 2667, 2628, 2665, 2671, 2664, 2679, 2813, 2580, 2608, 2626, 2635, 2609, 2646, 2682, 2652, 2649, 2682, 2649, 2628, 2693, 2676, 2662, 2666, 2649, 2643, 2644, 2626, 2691, 2655],
      "WindowCenter": [781.0, 779.0, 778.0, 778.0, 778.0, 778.0, 778.0, 778.0, 778.0, 778.0, 778.0, 778.0, 778.0, 779.0, 779.0, 780.0, 780.0, 780.0, 780.0, 781.0, 781.0, 781.0, 781.0, 781.0, 781.0, 781.0, 781.0, 781.0, 781.0, 781.0, 781.0, 780.0, 780.0, 780.0, 780.0, 780.0, 781.0, 781.0, 781.0, 781.0, 780.0, 779.0, 779.0, 780.0, 780.0, 780.0, 780.0, 781.0, 780.0, 779.0, 780.0, 780.0, 779.0, 778.0, 776.0, 776.0, 775.0, 775.0, 775.0, 775.0, 775.0, 775.0, 775.0, 775.0, 774.0, 774.0, 775.0, 776.0, 778.0, 777.0, 777.0, 777.0, 777.0, 777.0, 778.0, 777.0, 777.0, 778.0, 778.0, 777.0, 777.0, 778.0, 777.0, 778.0, 778.0, 779.0, 778.0, 778.0, 778.0, 778.0, 778.0, 777.0, 777.0, 778.0, 777.0, 778.0, 778.0, 779.0, 778.0, 779.0, 779.0, 779.0, 779.0, 779.0, 779.0, 778.0, 779.0, 779.0, 778.0, 778.0, 780.0, 780.0, 780.0, 778.0, 776.0, 774.0, 773.0, 773.0, 774.0, 776.0, 777.0, 778.0, 777.0, 777.0, 777.0, 777.0, 777.0, 778.0, 779.0, 779.0, 779.0, 778.0, 779.0, 779.0, 779.0, 779.0, 779.0, 779.0, 779.0, 778.0, 779.0, 777.0, 783.0, 773.0, 787.0, 782.0, 780.0, 779.0, 777.0, 777.0, 778.0, 778.0, 778.0, 778.0, 779.0, 779.0, 778.0, 779.0, 780.0, 780.0, 780.0, 780.0, 780.0, 780.0, 780.0, 780.0, 779.0, 779.0, 779.0, 779.0, 779.0, 778.0, 778.0, 778.0, 778.0, 778.0, 778.0, 778.0, 778.0, 777.0, 777.0, 778.0, 778.0, 777.0, 778.0, 778.0, 778.0, 778.0, 778.0, 777.0, 777.0, 778.0, 778.0, 778.0, 778.0, 778.0, 779.0, 780.0, 780.0, 779.0, 778.0, 778.0, 778.0, 778.0, 779.0, 779.0, 778.0, 777.0, 777.0, 777.0, 778.0, 778.0, 777.0, 778.0, 777.0, 771.0, 776.0, 770.0, 773.0, 774.0, 773.0, 771.0, 767.0, 766.0, 766.0, 766.0, 766.0, 767.0, 766.0, 769.0, 769.0, 770.0, 771.0, 771.0, 772.0, 773.0, 774.0, 775.0, 775.0],
      "WindowWidth": [1709.0, 1702.0, 1699.0, 1699.0, 1699.0, 1699.0, 1699.0, 1700.0, 1700.0, 1699.0, 1698.0, 1699.0, 1700.0, 1701.0, 1701.0, 1703.0, 1704.0, 1705.0, 1704.0, 1706.0, 1707.0, 1708.0, 1706.0, 1707.0, 1707.0, 1707.0, 1706.0, 1707.0, 1707.0, 1708.0, 1706.0, 1705.0, 1705.0, 1705.0, 1704.0, 1705.0, 1707.0, 1707.0, 1707.0, 1708.0, 1704.0, 1702.0, 1701.0, 1703.0, 1703.0, 1704.0, 1704.0, 1706.0, 1703.0, 1703.0, 1703.0, 1704.0, 1702.0, 1698.0, 1692.0, 1693.0, 1690.0, 1689.0, 1689.0, 1688.0, 1690.0, 1690.0, 1689.0, 1688.0, 1687.0, 1687.0, 1689.0, 1691.0, 1697.0, 1696.0, 1694.0, 1694.0, 1695.0, 1696.0, 1696.0, 1695.0, 1695.0, 1696.0, 1697.0, 1696.0, 1695.0, 1696.0, 1695.0, 1696.0, 1699.0, 1700.0, 1698.0, 1697.0, 1697.0, 1697.0, 1696.0, 1694.0, 1695.0, 1696.0, 1695.0, 1696.0, 1698.0, 1701.0, 1698.0, 1700.0, 1701.0, 1700.0, 1699.0, 1700.0, 1699.0, 1698.0, 1701.0, 1700.0, 1697.0, 1697.0, 1704.0, 1704.0, 1702.0, 1696.0, 1690.0, 1685.0, 1683.0, 1684.0, 1686.0, 1690.0, 1694.0, 1695.0, 1694.0, 1693.0, 1693.0, 1694.0, 1695.0, 1697.0, 1700.0, 1700.0, 1700.0, 1698.0, 1699.0, 1699.0, 1701.0, 1700.0, 1700.0, 1699.0, 1699.0, 1698.0, 1699.0, 1696.0, 1714.0, 1685.0, 1723.0, 1710.0, 1704.0, 1699.0, 1695.0, 1696.0, 1698.0, 1698.0, 1698.0, 1698.0, 1699.0, 1699.0, 1698.0, 1700.0, 1703.0, 1704.0, 1703.0, 1702.0, 1702.0, 1704.0, 1702.0, 1702.0, 1701.0, 1699.0, 1699.0, 1700.0, 1700.0, 1698.0, 1698.0, 1699.0, 1698.0, 1697.0, 1697.0, 1697.0, 1696.0, 1694.0, 1695.0, 1697.0, 1696.0, 1695.0, 1697.0, 1698.0, 1698.0, 1698.0, 1697.0, 1695.0, 1696.0, 1697.0, 1698.0, 1698.0, 1698.0, 1697.0, 1699.0, 1702.0, 1703.0, 1699.0, 1698.0, 1696.0, 1698.0, 1698.0, 1700.0, 1701.0, 1697.0, 1695.0, 1695.0, 1695.0, 1696.0, 1695.0, 1695.0, 1696.0, 1695.0, 1678.0, 1692.0, 1675.0, 1681.0, 1684.0, 1682.0, 1674.0, 1663.0, 1661.0, 1662.0, 1663.0, 1663.0, 1666.0, 1663.0, 1671.0, 1672.0, 1674.0, 1677.0, 1678.0, 1678.0, 1682.0, 1684.0, 1688.0, 1688.0]
    },
    "slices": {}
  }
}