{
  "AcquisitionMatrixPE": 72,
  "AcquisitionNumber": 1,
  "AcquisitionTime": "16:00:34.357500",
  "BandwidthPerPixelPhaseEncode": 17.943,
  "BaseResolution": 96,
  "BodyPartExamined": "BRAIN",
  "CoilCombinationMethod": "Sum of Squares",
  "ConsistencyInfo": "N4_VE11C_LATEST_20160120",
  "ConversionSoftware": "dcm2niix",
  "ConversionSoftwareVersion": "v1.0.20211006",
  "DerivedVendorReportedEchoSpacing": 0.000552897,
  "DeviceSerialNumber": "166011",
  "EchoTime": 0.03,
  "EchoTrainLength": 58,
  "EffectiveEchoSpacing": 0.000580542,
  "FlipAngle": 62,
  "ImageOrientationPatientDICOM": [0.99412, -0.106973, 0.016829, 0.108171, 0.988197, -0.108465],
  "ImageType": [
    "ORIGINAL",
    "PRIMARY",
    "M",
    "ND",
    "MOSAIC"
],
  "ImagingFrequency": 123.26,
  "InPlanePhaseEncodingDirectionDICOM": "COL",
  "InstitutionAddress": "West 130th Street 610,NY,NYC,US,10025",
  "InstitutionName": "MBBI",
  "MRAcquisitionType": "2D",
  "MagneticFieldStrength": 3,
  "Manufacturer": "Siemens",
  "ManufacturersModelName": "Prisma",
  "Modality": "MR",
  "MultibandAccelerationFactor": 3,
  "PartialFourier": 0.75,
  "PatientPosition": "HFS",
  "PercentPhaseFOV": 100,
  "PercentSampling": 75,
  "PhaseEncodingDirection": "j-",
  "PhaseEncodingSteps": 58,
  "PhaseOversampling": 0.05,
  "PhaseResolution": 0.75,
  "PixelBandwidth": 2265,
  "ProcedureStepDescription": "White^Word_recognition",
  "ProtocolName": "func_language_run3",
  "PulseSequenceDetails": "%SiemensSeq%\\ep2d_bold",
  "ReceiveCoilActiveElements": "HC1-7",
  "ReceiveCoilName": "HeadNeck_64",
  "ReconMatrixPE": 96,
  "RefLinesPE": 40,
  "RepetitionTime": 1.5,
  "SAR": 0.0523276,
  "ScanOptions": "PFP\\FS",
  "ScanningSequence": "EP",
  "SequenceName": "*epfid2d1_72",
  "SequenceVariant": "SK\\OSP",
  "SeriesDescription": "func_language_run3",
  "SeriesNumber": 13,
  "ShimSetting": [-1160, -1360, 639, 540, -94, -161, -121, -33],
  "SliceThickness": 2,
  "SliceTiming": [1.0775, 0, 0.74, 0.0675, 0.8075, 0.135, 0.875, 0.2025, 0.9425, 0.27, 1.01, 0.405, 1.145, 0.4725, 1.2125, 0.54, 1.28, 0.605, 1.345, 0.6725, 1.4125, 0.3375, 1.0775, 0, 0.74, 0.0675, 0.8075, 0.135, 0.875, 0.2025, 0.9425, 0.27, 1.01, 0.405, 1.145, 0.4725, 1.2125, 0.54, 1.28, 0.605, 1.345, 0.6725, 1.4125, 0.3375, 1.0775, 0, 0.74, 0.0675, 0.8075, 0.135, 0.875, 0.2025, 0.9425, 0.27, 1.01, 0.405, 1.145, 0.4725, 1.2125, 0.54, 1.28, 0.605, 1.345, 0.6725, 1.4125, 0.3375],
  "SoftwareVersions": "syngo MR E11",
  "SpacingBetweenSlices": 2,
  "StationName": "AWP166011",
  "TaskName": "langLoc",
  "TotalReadoutTime": 0.0551515,
  "TxRefAmp": 217.042,
  "dcmmeta_affine": [
    [-1.988239049911499, 0.2163429707288742, 0.010055135935544968, 92.00132751464844],
    [0.21394513547420502, 1.9763948917388916, -0.21929599344730377, -75.95398712158203],
    [0.03365803137421608, 0.2169307917356491, 1.9879155158996582, -72.74864959716797],
    [0.0, 0.0, 0.0, 1.0]
],
  "dcmmeta_reorient_transform": [
    [0.0, -1.0, 0.0, 95.0],
    [1.0, 0.0, 0.0, 0.0],
    [0.0, 0.0, 1.0, 0.0],
    [0.0, 0.0, 0.0, 1.0]
],
  "dcmmeta_shape": [96, 96, 66, 239],
  "dcmmeta_slice_dim": 2,
  "dcmmeta_version": 0.6,
  "global": {
    "const": {
      "AcquisitionMatrix": [96, 0, 0, 72],
      "AngioFlag": "N",
      "BitsAllocated": 16,
      "BitsStored": 12,
      "BodyPartExamined": "BRAIN",
      "Columns": 864,
      "EchoNumbers": 1,
      "EchoTime": 30.0,
      "EchoTrainLength": 58,
      "FlipAngle": 62.0,
      "HighBit": 11,
      "ImageOrientationPatient": [0.99411953676519, -0.1069725705317, 0.01682901588372, 0.10817148507116, 0.98819744334938, -0.1084653989771],
      "ImagePositionPatient": [-959.11341112451, -788.58422654638, 18.236521912816],
      "ImageType": [
        "ORIGINAL",
        "PRIMARY",
        "M",
        "ND",
        "MOSAIC"
],
      "ImagedNucleus": "1H",
      "ImagingFrequency": 123.25952,
      "InPlanePhaseEncodingDirection": "COL",
      "MRAcquisitionType": "2D",
      "MagneticFieldStrength": 3.0,
      "Manufacturer": "SIEMENS",
      "ManufacturerModelName": "Prisma",
      "Modality": "MR",
      "NumberOfAverages": 1.0,
      "NumberOfPhaseEncodingSteps": 58,
      "PercentPhaseFieldOfView": 100.0,
      "PercentSampling": 75.0,
      "PerformedProcedureStepStartTime": "145223.508000",
      "PhotometricInterpretation": "MONOCHROME2",
      "PixelBandwidth": 2265.0,
      "PixelRepresentation": 0,
      "PixelSpacing": [2.0, 2.0],
      "ProtocolName": "func_language_run3",
      "RepetitionTime": 1500.0,
      "Rows": 864,
      "SAR": 0.05232756115667,
      "SamplesPerPixel": 1,
      "ScanOptions": [
        "PFP",
        "FS"
],
      "ScanningSequence": "EP",
      "SequenceName": "*epfid2d1_72",
      "SequenceVariant": [
        "SK",
        "OSP"
],
      "SeriesDescription": "func_language_run3",
      "SeriesNumber": 13,
      "SeriesTime": "160109.724000",
      "SliceLocation": -63.518336413833,
      "SliceThickness": 2.0,
      "SmallestImagePixelValue": 0,
      "SoftwareVersions": "syngo MR E11",
      "SpacingBetweenSlices": 2.0000000344387,
      "SpecificCharacterSet": "ISO_IR 100",
      "StudyID": "3",
      "StudyTime": "145223.440000",
      "TransmitCoilName": "Body",
      "VariableFlipAngleFlag": "N",
      "WindowCenterWidthExplanation": "Algo1",
      "dBdt": 0.0},
    "slices": {}
  },
  "time": {
    "samples": {
      "AcquisitionNumber": [1, 2, 3, 4, 5, 6, 7, 8, 9, 10, 11, 12, 13, 14, 15, 16, 17, 18, 19, 20, 21, 22, 23, 24, 25, 26, 27, 28, 29, 30, 31, 32, 33, 34, 35, 36, 37, 38, 39, 40, 41, 42, 43, 44, 45, 46, 47, 48, 49, 50, 51, 52, 53, 54, 55, 56, 57, 58, 59, 60, 61, 62, 63, 64, 65, 66, 67, 68, 69, 70, 71, 72, 73, 74, 75, 76, 77, 78, 79, 80, 81, 82, 83, 84, 85, 86, 87, 88, 89, 90, 91, 92, 93, 94, 95, 96, 97, 98, 99, 100, 101, 102, 103, 104, 105, 106, 107, 108, 109, 110, 111, 112, 113, 114, 115, 116, 117, 118, 119, 120, 121, 122, 123, 124, 125, 126, 127, 128, 129, 130, 131, 132, 133, 134, 135, 136, 137, 138, 139, 140, 141, 142, 143, 144, 145, 146, 147, 148, 149, 150, 151, 152, 153, 154, 155, 156, 157, 158, 159, 160, 161, 162, 163, 164, 165, 166, 167, 168, 169, 170, 171, 172, 173, 174, 175, 176, 177, 178, 179, 180, 181, 182, 183, 184, 185, 186, 187, 188, 189, 190, 191, 192, 193, 194, 195, 196, 197, 198, 199, 200, 201, 202, 203, 204, 205, 206, 207, 208, 209, 210, 211, 212, 213, 214, 215, 216, 217, 218, 219, 220, 221, 222, 223, 224, 225, 226, 227, 228, 229, 230, 231, 232, 233, 234, 235, 236, 237, 238, 239],
      "AcquisitionTime": ["160034.357500", "160035.857500", "160037.357500", "160038.857500", "160040.357500", "160041.857500", "160043.357500", "160044.857500", "160046.357500", "160047.857500", "160049.357500", "160050.857500", "160052.357500", "160053.857500", "160055.357500", "160056.857500", "160058.357500", "160059.857500", "160101.357500", "160102.857500", "160104.357500", "160105.857500", "160107.357500", "160108.857500", "160110.357500", "160111.857500", "160113.357500", "160114.857500", "160116.357500", "160117.857500", "160119.357500", "160120.857500", "160122.357500", "160123.857500", "160125.357500", "160126.857500", "160128.357500", "160129.857500", "160131.357500", "160132.857500", "160134.357500", "160135.857500", "160137.357500", "160138.857500", "160140.357500", "160141.857500", "160143.357500", "160144.857500", "160146.357500", "160147.857500", "160149.357500", "160150.857500", "160152.357500", "160153.857500", "160155.357500", "160156.857500", "160158.357500", "160159.857500", "160201.357500", "160202.857500", "160204.357500", "160205.857500", "160207.357500", "160208.857500", "160210.357500", "160211.857500", "160213.357500", "160214.857500", "160216.357500", "160217.857500", "160219.357500", "160220.857500", "160222.357500", "160223.857500", "160225.357500", "160226.857500", "160228.357500", "160229.857500", "160231.357500", "160232.857500", "160234.357500", "160235.857500", "160237.357500", "160238.857500", "160240.357500", "160241.857500", "160243.357500", "160244.857500", "160246.357500", "160247.857500", "160249.357500", "160250.857500", "160252.357500", "160253.857500", "160255.357500", "160256.857500", "160258.357500", "160259.857500", "160301.357500", "160302.857500", "160304.357500", "160305.857500", "160307.357500", "160308.857500", "160310.357500", "160311.857500", "160313.357500", "160314.857500", "160316.357500", "160317.857500", "160319.357500", "160320.857500", "160322.357500", "160323.857500", "160325.357500", "160326.857500", "160328.357500", "160329.857500", "160331.357500", "160332.857500", "160334.357500", "160335.857500", "160337.357500", "160338.857500", "160340.357500", "160341.857500", "160343.357500", "160344.857500", "160346.357500", "160347.857500", "160349.357500", "160350.857500", "160352.357500", "160353.857500", "160355.357500", "160356.857500", "160358.357500", "160359.857500", "160401.357500", "160402.857500", "160404.357500", "160405.857500", "160407.357500", "160408.857500", "160410.357500", "160411.857500", "160413.357500", "160414.857500", "160416.357500", "160417.857500", "160419.357500", "160420.857500", "160422.357500", "160423.857500", "160425.357500", "160426.857500", "160428.357500", "160429.857500", "160431.357500", "160432.857500", "160434.357500", "160435.857500", "160437.357500", "160438.857500", "160440.357500", "160441.857500", "160443.357500", "160444.857500", "160446.357500", "160447.857500", "160449.357500", "160450.857500", "160452.357500", "160453.857500", "160455.357500", "160456.857500", "160458.357500", "160459.857500", "160501.357500", "160502.857500", "160504.357500", "160505.857500", "160507.357500", "160508.857500", "160510.357500", "160511.857500", "160513.357500", "160514.857500", "160516.357500", "160517.857500", "160519.357500", "160520.857500", "160522.357500", "160523.857500", "160525.357500", "160526.857500", "160528.357500", "160529.857500", "160531.357500", "160532.857500", "160534.357500", "160535.857500", "160537.357500", "160538.857500", "160540.357500", "160541.857500", "160543.357500", "160544.857500", "160546.357500", "160547.857500", "160549.357500", "160550.857500", "160552.357500", "160553.857500", "160555.357500", "160556.857500", "160558.357500", "160559.857500", "160601.357500", "160602.857500", "160604.357500", "160605.857500", "160607.357500", "160608.857500", "160610.357500", "160611.857500", "160613.357500", "160614.857500", "160616.357500", "160617.857500", "160619.357500", "160620.857500", "160622.357500", "160623.857500", "160625.357500", "160626.857500", "160628.357500", "160629.857500", "160631.357500"],
      "ContentTime": ["160109.728000", "160109.732000", "160109.736000", "160109.739000", "160109.742000", "160109.745000", "160109.748000", "160109.751000", "160109.754000", "160109.757000", "160109.760000", "160109.763000", "160109.766000", "160109.769000", "160109.772000", "160109.775000", "160109.778000", "160109.782000", "160109.820000", "160109.823000", "160109.826000", "160109.829000", "160109.832000", "160149.722000", "160149.725000", "160149.728000", "160149.731000", "160149.734000", "160149.737000", "160149.750000", "160149.753000", "160149.756000", "160149.759000", "160149.762000", "160149.765000", "160149.768000", "160149.771000", "160149.774000", "160149.777000", "160149.780000", "160149.783000", "160149.787000", "160149.790000", "160149.793000", "160149.796000", "160149.799000", "160149.802000", "160149.805000", "160149.808000", "160149.811000", "160229.723000", "160229.727000", "160229.730000", "160229.733000", "160229.736000", "160229.739000", "160229.744000", "160229.747000", "160229.750000", "160229.753000", "160229.756000", "160229.759000", "160229.762000", "160229.765000", "160229.768000", "160229.771000", "160229.774000", "160229.777000", "160229.781000", "160229.784000", "160229.787000", "160229.790000", "160229.793000", "160229.796000", "160229.799000", "160229.802000", "160309.723000", "160309.726000", "160309.729000", "160309.732000", "160309.735000", "160309.738000", "160309.741000", "160309.744000", "160309.747000", "160309.750000", "160309.753000", "160309.756000", "160309.759000", "160309.762000", "160309.765000", "160309.768000", "160309.771000", "160309.774000", "160309.777000", "160309.780000", "160309.783000", "160309.786000", "160309.789000", "160309.792000", "160309.795000", "160309.798000", "160309.801000", "160349.723000", "160349.726000", "160349.729000", "160349.732000", "160349.735000", "160349.738000", "160349.741000", "160349.744000", "160349.747000", "160349.750000", "160349.753000", "160349.756000", "160349.759000", "160349.762000", "160349.765000", "160349.768000", "160349.771000", "160349.774000", "160349.777000", "160349.780000", "160349.783000", "160349.787000", "160349.790000", "160349.793000", "160349.796000", "160349.799000", "160349.802000", "160429.723000", "160429.727000", "160429.730000", "160429.733000", "160429.736000", "160429.738000", "160429.741000", "160429.745000", "160429.748000", "160429.751000", "160429.753000", "160429.757000", "160429.760000", "160429.763000", "160429.766000", "160429.769000", "160429.772000", "160429.775000", "160429.778000", "160429.781000", "160429.784000", "160429.787000", "160429.790000", "160429.793000", "160429.796000", "160429.799000", "160509.722000", "160509.725000", "160509.728000", "160509.731000", "160509.734000", "160509.737000", "160509.740000", "160509.743000", "160509.746000", "160509.749000", "160509.752000", "160509.755000", "160509.758000", "160509.761000", "160509.764000", "160509.767000", "160509.770000", "160509.773000", "160509.777000", "160509.780000", "160509.783000", "160509.807000", "160509.810000", "160509.813000", "160509.816000", "160509.819000", "160509.822000", "160549.723000", "160549.726000", "160549.729000", "160549.732000", "160549.735000", "160549.738000", "160549.741000", "160549.744000", "160549.747000", "160549.750000", "160549.753000", "160549.756000", "160549.759000", "160549.762000", "160549.765000", "160549.768000", "160549.771000", "160549.774000", "160549.777000", "160549.780000", "160549.783000", "160549.787000", "160549.790000", "160549.793000", "160549.796000", "160549.799000", "160549.802000", "160629.722000", "160629.726000", "160629.729000", "160629.732000", "160629.735000", "160629.738000", "160629.740000", "160629.744000", "160629.747000", "160629.750000", "160629.752000", "160629.756000", "160629.759000", "160629.762000", "160629.765000", "160629.768000", "160629.771000", "160629.774000", "160629.777000", "160629.780000", "160629.783000", "160629.786000", "160629.789000", "160629.793000", "160629.796000", "160629.799000", "160632.990000", "160632.994000", "160632.996000"],
      "InstanceCreationTime": ["160109.728000", "160109.732000", "160109.736000", "160109.739000", "160109.742000", "160109.745000", "160109.748000", "160109.751000", "160109.754000", "160109.757000", "160109.760000", "160109.763000", "160109.766000", "160109.769000", "160109.772000", "160109.775000", "160109.778000", "160109.782000", "160109.820000", "160109.823000", "160109.826000", "160109.829000", "160109.832000", "160149.722000", "160149.725000", "160149.728000", "160149.731000", "160149.734000", "160149.737000", "160149.750000", "160149.753000", "160149.756000", "160149.759000", "160149.762000", "160149.765000", "160149.768000", "160149.771000", "160149.774000", "160149.777000", "160149.780000", "160149.783000", "160149.787000", "160149.790000", "160149.793000", "160149.796000", "160149.799000", "160149.802000", "160149.805000", "160149.808000", "160149.811000", "160229.723000", "160229.727000", "160229.730000", "160229.733000", "160229.736000", "160229.739000", "160229.744000", "160229.747000", "160229.750000", "160229.753000", "160229.756000", "160229.759000", "160229.762000", "160229.765000", "160229.768000", "160229.771000", "160229.774000", "160229.777000", "160229.781000", "160229.784000", "160229.787000", "160229.790000", "160229.793000", "160229.796000", "160229.799000", "160229.802000", "160309.723000", "160309.726000", "160309.729000", "160309.732000", "160309.735000", "160309.738000", "160309.741000", "160309.744000", "160309.747000", "160309.750000", "160309.753000", "160309.756000", "160309.759000", "160309.762000", "160309.765000", "160309.768000", "160309.771000", "160309.774000", "160309.777000", "160309.780000", "160309.783000", "160309.786000", "160309.789000", "160309.792000", "160309.795000", "160309.798000", "160309.801000", "160349.723000", "160349.726000", "160349.729000", "160349.732000", "160349.735000", "160349.738000", "160349.741000", "160349.744000", "160349.747000", "160349.750000", "160349.753000", "160349.756000", "160349.759000", "160349.762000", "160349.765000", "160349.768000", "160349.771000", "160349.774000", "160349.777000", "160349.780000", "160349.783000", "160349.787000", "160349.790000", "160349.793000", "160349.796000", "160349.799000", "160349.802000", "160429.723000", "160429.727000", "160429.730000", "160429.733000", "160429.736000", "160429.738000", "160429.741000", "160429.745000", "160429.748000", "160429.751000", "160429.753000", "160429.757000", "160429.760000", "160429.763000", "160429.766000", "160429.769000", "160429.772000", "160429.775000", "160429.778000", "160429.781000", "160429.784000", "160429.787000", "160429.790000", "160429.793000", "160429.796000", "160429.799000", "160509.722000", "160509.725000", "160509.728000", "160509.731000", "160509.734000", "160509.737000", "160509.740000", "160509.743000", "160509.746000", "160509.749000", "160509.752000", "160509.755000", "160509.758000", "160509.761000", "160509.764000", "160509.767000", "160509.770000", "160509.773000", "160509.777000", "160509.780000", "160509.783000", "160509.807000", "160509.810000", "160509.813000", "160509.816000", "160509.819000", "160509.822000", "160549.723000", "160549.726000", "160549.729000", "160549.732000", "160549.735000", "160549.738000", "160549.741000", "160549.744000", "160549.747000", "160549.750000", "160549.753000", "160549.756000", "160549.759000", "160549.762000", "160549.765000", "160549.768000", "160549.771000", "160549.774000", "160549.777000", "160549.780000", "160549.783000", "160549.787000", "160549.790000", "160549.793000", "160549.796000", "160549.799000", "160549.802000", "160629.722000", "160629.726000", "160629.729000", "160629.732000", "160629.735000", "160629.738000", "160629.740000", "160629.744000", "160629.747000", "160629.750000", "160629.752000", "160629.756000", "160629.759000", "160629.762000", "160629.765000", "160629.768000", "160629.771000", "160629.774000", "160629.777000", "160629.780000", "160629.783000", "160629.786000", "160629.789000", "160629.793000", "160629.796000", "160629.799000", "160632.990000", "160632.994000", "160632.996000"],
      "InstanceNumber": [1, 2, 3, 4, 5, 6, 7, 8, 9, 10, 11, 12, 13, 14, 15, 16, 17, 18, 19, 20, 21, 22, 23, 24, 25, 26, 27, 28, 29, 30, 31, 32, 33, 34, 35, 36, 37, 38, 39, 40, 41, 42, 43, 44, 45, 46, 47, 48, 49, 50, 51, 52, 53, 54, 55, 56, 57, 58, 59, 60, 61, 62, 63, 64, 65, 66, 67, 68, 69, 70, 71, 72, 73, 74, 75, 76, 77, 78, 79, 80, 81, 82, 83, 84, 85, 86, 87, 88, 89, 90, 91, 92, 93, 94, 95, 96, 97, 98, 99, 100, 101, 102, 103, 104, 105, 106, 107, 108, 109, 110, 111, 112, 113, 114, 115, 116, 117, 118, 119, 120, 121, 122, 123, 124, 125, 126, 127, 128, 129, 130, 131, 132, 133, 134, 135, 136, 137, 138, 139, 140, 141, 142, 143, 144, 145, 146, 147, 148, 149, 150, 151, 152, 153, 154, 155, 156, 157, 158, 159, 160, 161, 162, 163, 164, 165, 166, 167, 168, 169, 170, 171, 172, 173, 174, 175, 176, 177, 178, 179, 180, 181, 182, 183, 184, 185, 186, 187, 188, 189, 190, 191, 192, 193, 194, 195, 196, 197, 198, 199, 200, 201, 202, 203, 204, 205, 206, 207, 208, 209, 210, 211, 212, 213, 214, 215, 216, 217, 218, 219, 220, 221, 222, 223, 224, 225, 226, 227, 228, 229, 230, 231, 232, 233, 234, 235, 236, 237, 238, 239],
      "LargestImagePixelValue": [2909, 2823, 2744, 2728, 2715, 2724, 2708, 2710, 2692, 2720, 2739, 2712, 2702, 2719, 2714, 2736, 2732, 2727, 2724, 2713, 2746, 2712, 2698, 2703, 2683, 2686, 2701, 2812, 2700, 2675, 2679, 2679, 2686, 2712, 2677, 2705, 2691, 2694, 2690, 2687, 2689, 2689, 2708, 2697, 2675, 2717, 2706, 2683, 2714, 2691, 2720, 2697, 2681, 2655, 2717, 2662, 2630, 2648, 2659, 2700, 2684, 2686, 2680, 2685, 2708, 2680, 2673, 2675, 2717, 2680, 2683, 2690, 2679, 2730, 2723, 2761, 2760, 2795, 2793, 2774, 2774, 2785, 2728, 2738, 2768, 2747, 2766, 2730, 2763, 2743, 2776, 2746, 2783, 2746, 2750, 2766, 2765, 2784, 2774, 2785, 2770, 2747, 2714, 2701, 2731, 2729, 2748, 2715, 2730, 2720, 2709, 2724, 2717, 2696, 2750, 2706, 2732, 2714, 2744, 2732, 2780, 2689, 2804, 2765, 2805, 2732, 3005, 2799, 2731, 2748, 2736, 2751, 2740, 2742, 2754, 2758, 2743, 2787, 2790, 2767, 2805, 2800, 2800, 2732, 2780, 2755, 2796, 2788, 2744, 2740, 2731, 2781, 2767, 2755, 2769, 2772, 2772, 2748, 2773, 2762, 2789, 2769, 2783, 2781, 2754, 2818, 2759, 2686, 2696, 2673, 2705, 2674, 2823, 2710, 2702, 2706, 2706, 2693, 2743, 2707, 2743, 2745, 2718, 2754, 2706, 2723, 2720, 2701, 2758, 2704, 2723, 2737, 2794, 2737, 2722, 2710, 2741, 2738, 2713, 2712, 2746, 2736, 2725, 2769, 2778, 2767, 2760, 2725, 2766, 2658, 2674, 2756, 2696, 2681, 2700, 2716, 2697, 2723, 2755, 2905, 2855, 2713, 2741, 2769, 2750, 2786, 2772, 2789, 2790, 2764, 2789, 2785, 2737, 2808, 2771, 2746, 2762, 2781, 2725],
      "WindowCenter": [785.0, 783.0, 782.0, 781.0, 782.0, 781.0, 780.0, 781.0, 781.0, 781.0, 781.0, 781.0, 781.0, 781.0, 781.0, 781.0, 782.0, 781.0, 780.0, 780.0, 780.0, 779.0, 779.0, 778.0, 779.0, 779.0, 780.0, 781.0, 781.0, 780.0, 781.0, 781.0, 781.0, 780.0, 780.0, 781.0, 781.0, 780.0, 780.0, 780.0, 780.0, 780.0, 780.0, 780.0, 779.0, 779.0, 779.0, 780.0, 780.0, 780.0, 781.0, 781.0, 781.0, 779.0, 780.0, 779.0, 779.0, 778.0, 777.0, 778.0, 778.0, 778.0, 777.0, 778.0, 778.0, 778.0, 779.0, 780.0, 781.0, 780.0, 781.0, 780.0, 779.0, 778.0, 776.0, 775.0, 775.0, 776.0, 776.0, 777.0, 778.0, 779.0, 779.0, 779.0, 779.0, 780.0, 782.0, 783.0, 783.0, 781.0, 780.0, 780.0, 781.0, 782.0, 782.0, 781.0, 780.0, 778.0, 778.0, 778.0, 778.0, 779.0, 779.0, 779.0, 780.0, 779.0, 778.0, 776.0, 778.0, 778.0, 778.0, 778.0, 778.0, 778.0, 778.0, 778.0, 779.0, 780.0, 781.0, 783.0, 784.0, 780.0, 781.0, 781.0, 780.0, 771.0, 782.0, 783.0, 784.0, 784.0, 784.0, 783.0, 782.0, 781.0, 781.0, 780.0, 779.0, 779.0, 779.0, 780.0, 780.0, 781.0, 782.0, 782.0, 782.0, 783.0, 784.0, 784.0, 784.0, 784.0, 783.0, 783.0, 784.0, 784.0, 784.0, 783.0, 781.0, 781.0, 781.0, 781.0, 781.0, 782.0, 783.0, 782.0, 781.0, 781.0, 781.0, 775.0, 778.0, 776.0, 777.0, 775.0, 776.0, 777.0, 777.0, 777.0, 775.0, 773.0, 774.0, 773.0, 773.0, 773.0, 773.0, 774.0, 776.0, 778.0, 777.0, 777.0, 778.0, 779.0, 779.0, 780.0, 782.0, 779.0, 779.0, 780.0, 781.0, 780.0, 779.0, 779.0, 779.0, 779.0, 779.0, 780.0, 782.0, 782.0, 781.0, 775.0, 780.0, 778.0, 777.0, 779.0, 778.0, 776.0, 776.0, 777.0, 778.0, 779.0, 769.0, 787.0, 786.0, 783.0, 782.0, 781.0, 780.0, 777.0, 777.0, 777.0, 778.0, 779.0, 780.0, 780.0, 780.0, 781.0, 781.0, 781.0, 782.0, 782.0, 781.0],
      "WindowWidth": [1721.0, 1713.0, 1710.0, 1708.0, 1710.0, 1707.0, 1706.0, 1707.0, 1707.0, 1708.0, 1708.0, 1707.0, 1706.0, 1707.0, 1707.0, 1707.0, 1709.0, 1707.0, 1706.0, 1705.0, 1705.0, 1703.0, 1700.0, 1699.0, 1701.0, 1701.0, 1703.0, 1707.0, 1707.0, 1705.0, 1707.0, 1708.0, 1707.0, 1704.0, 1704.0, 1707.0, 1707.0, 1705.0, 1705.0, 1705.0, 1704.0, 1705.0, 1705.0, 1703.0, 1702.0, 1702.0, 1702.0, 1703.0, 1704.0, 1704.0, 1707.0, 1708.0, 1707.0, 1700.0, 1705.0, 1702.0, 1700.0, 1697.0, 1696.0, 1698.0, 1698.0, 1697.0, 1695.0, 1697.0, 1699.0, 1697.0, 1699.0, 1703.0, 1705.0, 1704.0, 1705.0, 1704.0, 1700.0, 1698.0, 1693.0, 1690.0, 1689.0, 1691.0, 1693.0, 1694.0, 1697.0, 1699.0, 1699.0, 1701.0, 1701.0, 1705.0, 1711.0, 1712.0, 1711.0, 1707.0, 1705.0, 1705.0, 1707.0, 1709.0, 1709.0, 1706.0, 1704.0, 1699.0, 1698.0, 1698.0, 1700.0, 1701.0, 1702.0, 1702.0, 1704.0, 1702.0, 1699.0, 1693.0, 1698.0, 1698.0, 1698.0, 1699.0, 1699.0, 1699.0, 1699.0, 1699.0, 1701.0, 1704.0, 1707.0, 1714.0, 1714.0, 1705.0, 1708.0, 1706.0, 1705.0, 1680.0, 1713.0, 1714.0, 1716.0, 1715.0, 1714.0, 1712.0, 1709.0, 1708.0, 1707.0, 1704.0, 1700.0, 1700.0, 1701.0, 1703.0, 1705.0, 1708.0, 1709.0, 1709.0, 1710.0, 1712.0, 1715.0, 1717.0, 1717.0, 1715.0, 1714.0, 1714.0, 1715.0, 1714.0, 1714.0, 1711.0, 1708.0, 1706.0, 1706.0, 1707.0, 1707.0, 1710.0, 1712.0, 1710.0, 1708.0, 1707.0, 1706.0, 1690.0, 1696.0, 1692.0, 1693.0, 1688.0, 1693.0, 1695.0, 1695.0, 1693.0, 1688.0, 1682.0, 1684.0, 1681.0, 1682.0, 1683.0, 1685.0, 1688.0, 1692.0, 1696.0, 1696.0, 1696.0, 1700.0, 1702.0, 1702.0, 1702.0, 1709.0, 1701.0, 1701.0, 1705.0, 1705.0, 1704.0, 1702.0, 1700.0, 1699.0, 1701.0, 1702.0, 1703.0, 1709.0, 1709.0, 1707.0, 1690.0, 1703.0, 1696.0, 1695.0, 1701.0, 1698.0, 1693.0, 1693.0, 1695.0, 1698.0, 1701.0, 1676.0, 1725.0, 1722.0, 1714.0, 1711.0, 1707.0, 1702.0, 1696.0, 1696.0, 1697.0, 1699.0, 1700.0, 1703.0, 1703.0, 1704.0, 1707.0, 1707.0, 1706.0, 1708.0, 1709.0, 1706.0]
    },
    "slices": {}
  }
}