{
  "AcquisitionMatrixPE": 72,
  "AcquisitionNumber": 1,
  "AcquisitionTime": "19:01:26.055000",
  "BandwidthPerPixelPhaseEncode": 17.943,
  "BaseResolution": 96,
  "BodyPartExamined": "BRAIN",
  "CoilCombinationMethod": "Sum of Squares",
  "ConsistencyInfo": "N4_VE11C_LATEST_20160120",
  "ConversionSoftware": "dcm2niix",
  "ConversionSoftwareVersion": "v1.0.20211006",
  "DerivedVendorReportedEchoSpacing": 0.000552897,
  "DeviceSerialNumber": "166011",
  "EchoTime": 0.03,
  "EchoTrainLength": 58,
  "EffectiveEchoSpacing": 0.000580542,
  "FlipAngle": 62,
  "ImageOrientationPatientDICOM": [0.997759, -0.00788598, 0.0664503, 0.016545, 0.991273, -0.130786],
  "ImageType": [
    "ORIGINAL",
    "PRIMARY",
    "M",
    "ND",
    "MOSAIC"
],
  "ImagingFrequency": 123.26,
  "InPlanePhaseEncodingDirectionDICOM": "COL",
  "InstitutionAddress": "West 130th Street 610,NY,NYC,US,10025",
  "InstitutionName": "MBBI",
  "MRAcquisitionType": "2D",
  "MagneticFieldStrength": 3,
  "Manufacturer": "Siemens",
  "ManufacturersModelName": "Prisma",
  "Modality": "MR",
  "MultibandAccelerationFactor": 3,
  "PartialFourier": 0.75,
  "PatientPosition": "HFS",
  "PercentPhaseFOV": 100,
  "PercentSampling": 75,
  "PhaseEncodingDirection": "j-",
  "PhaseEncodingSteps": 58,
  "PhaseOversampling": 0.05,
  "PhaseResolution": 0.75,
  "PixelBandwidth": 2265,
  "ProcedureStepDescription": "White^Word_recognition",
  "ProtocolName": "func_vwfate_run10",
  "PulseSequenceDetails": "%SiemensSeq%\\ep2d_bold",
  "ReceiveCoilActiveElements": "HC1-7",
  "ReceiveCoilName": "HeadNeck_64",
  "ReconMatrixPE": 96,
  "RefLinesPE": 40,
  "RepetitionTime": 1.5,
  "SAR": 0.0426563,
  "ScanOptions": "PFP\\FS",
  "ScanningSequence": "EP",
  "SequenceName": "*epfid2d1_72",
  "SequenceVariant": "SK\\OSP",
  "SeriesDescription": "func_vwfate_run10",
  "SeriesNumber": 12,
  "ShimSetting": [-1132, -1375, 673, 597, -69, 23, -91, -40],
  "SliceThickness": 2,
  "SliceTiming": [1.0775, 0, 0.74, 0.0675, 0.8075, 0.135, 0.875, 0.2025, 0.9425, 0.27, 1.01, 0.405, 1.145, 0.4725, 1.2125, 0.54, 1.28, 0.605, 1.345, 0.6725, 1.4125, 0.3375, 1.0775, 0, 0.74, 0.0675, 0.8075, 0.135, 0.875, 0.2025, 0.9425, 0.27, 1.01, 0.405, 1.145, 0.4725, 1.2125, 0.54, 1.28, 0.605, 1.345, 0.6725, 1.4125, 0.3375, 1.0775, 0, 0.74, 0.0675, 0.8075, 0.135, 0.875, 0.2025, 0.9425, 0.27, 1.01, 0.405, 1.145, 0.4725, 1.2125, 0.54, 1.28, 0.605, 1.345, 0.6725, 1.4125, 0.3375],
  "SoftwareVersions": "syngo MR E11",
  "SpacingBetweenSlices": 2,
  "StationName": "AWP166011",
  "TaskName": "vwfate",
  "TotalReadoutTime": 0.0551515,
  "TxRefAmp": 216.195,
  "dcmmeta_affine": [
    [-1.9955171346664429, 0.033089958131313324, 0.1296779364347458, 95.30524444580078],
    [0.01577196642756462, 1.982545256614685, -0.2631836235523224, -70.84117889404297],
    [0.13290055096149445, 0.26157107949256897, 1.9783625602722168, -80.67530822753906],
    [0.0, 0.0, 0.0, 1.0]
],
  "dcmmeta_reorient_transform": [
    [0.0, -1.0, 0.0, 95.0],
    [1.0, 0.0, 0.0, 0.0],
    [0.0, 0.0, 1.0, 0.0],
    [0.0, 0.0, 0.0, 1.0]
],
  "dcmmeta_shape": [96, 96, 66, 164],
  "dcmmeta_slice_dim": 2,
  "dcmmeta_version": 0.6,
  "global": {
    "const": {
      "AcquisitionMatrix": [96, 0, 0, 72],
      "AngioFlag": "N",
      "BitsAllocated": 16,
      "BitsStored": 12,
      "BodyPartExamined": "BRAIN",
      "Columns": 864,
      "EchoNumbers": 1,
      "EchoTime": 30.0,
      "EchoTrainLength": 58,
      "FlipAngle": 62.0,
      "HighBit": 11,
      "ImageOrientationPatient": [0.99775857389171, -0.0078859830859, 0.06645027837673, 0.01654497895572, 0.99127261960221, -0.1307855393319],
      "ImagePositionPatient": [-877.43391939849, -872.74155298881, -6.416573762041],
      "ImageType": [
        "ORIGINAL",
        "PRIMARY",
        "M",
        "ND",
        "MOSAIC"
],
      "ImagedNucleus": "1H",
      "ImagingFrequency": 123.259543,
      "InPlanePhaseEncodingDirection": "COL",
      "MRAcquisitionType": "2D",
      "MagneticFieldStrength": 3.0,
      "Manufacturer": "SIEMENS",
      "ManufacturerModelName": "Prisma",
      "Modality": "MR",
      "NumberOfAverages": 1.0,
      "NumberOfPhaseEncodingSteps": 58,
      "PercentPhaseFieldOfView": 100.0,
      "PercentSampling": 75.0,
      "PerformedProcedureStepStartTime": "181558.666000",
      "PhotometricInterpretation": "MONOCHROME2",
      "PixelBandwidth": 2265.0,
      "PixelRepresentation": 0,
      "PixelSpacing": [2.0, 2.0],
      "ProtocolName": "func_vwfate_run10",
      "RepetitionTime": 1500.0,
      "Rows": 864,
      "SAR": 0.04265625007314,
      "SamplesPerPixel": 1,
      "ScanOptions": [
        "PFP",
        "FS"
],
      "ScanningSequence": "EP",
      "SequenceName": "*epfid2d1_72",
      "SequenceVariant": [
        "SK",
        "OSP"
],
      "SeriesDescription": "func_vwfate_run10",
      "SeriesNumber": 12,
      "SeriesTime": "190159.003000",
      "SliceLocation": -64.300885720631,
      "SliceThickness": 2.0,
      "SmallestImagePixelValue": 0,
      "SoftwareVersions": "syngo MR E11",
      "SpacingBetweenSlices": 2.0000000502021,
      "SpecificCharacterSet": "ISO_IR 100",
      "StudyID": "2",
      "StudyTime": "181558.613000",
      "TransmitCoilName": "Body",
      "VariableFlipAngleFlag": "N",
      "WindowCenterWidthExplanation": "Algo1",
      "dBdt": 0.0},
    "slices": {}
  },
  "time": {
    "samples": {
      "AcquisitionNumber": [1, 2, 3, 4, 5, 6, 7, 8, 9, 10, 11, 12, 13, 14, 15, 16, 17, 18, 19, 20, 21, 22, 23, 24, 25, 26, 27, 28, 29, 30, 31, 32, 33, 34, 35, 36, 37, 38, 39, 40, 41, 42, 43, 44, 45, 46, 47, 48, 49, 50, 51, 52, 53, 54, 55, 56, 57, 58, 59, 60, 61, 62, 63, 64, 65, 66, 67, 68, 69, 70, 71, 72, 73, 74, 75, 76, 77, 78, 79, 80, 81, 82, 83, 84, 85, 86, 87, 88, 89, 90, 91, 92, 93, 94, 95, 96, 97, 98, 99, 100, 101, 102, 103, 104, 105, 106, 107, 108, 109, 110, 111, 112, 113, 114, 115, 116, 117, 118, 119, 120, 121, 122, 123, 124, 125, 126, 127, 128, 129, 130, 131, 132, 133, 134, 135, 136, 137, 138, 139, 140, 141, 142, 143, 144, 145, 146, 147, 148, 149, 150, 151, 152, 153, 154, 155, 156, 157, 158, 159, 160, 161, 162, 163, 164],
      "AcquisitionTime": ["190126.055000", "190127.555000", "190129.055000", "190130.555000", "190132.055000", "190133.555000", "190135.055000", "190136.555000", "190138.055000", "190139.555000", "190141.055000", "190142.555000", "190144.055000", "190145.555000", "190147.055000", "190148.555000", "190150.055000", "190151.555000", "190153.055000", "190154.555000", "190156.055000", "190157.555000", "190159.055000", "190200.555000", "190202.055000", "190203.555000", "190205.055000", "190206.555000", "190208.055000", "190209.555000", "190211.055000", "190212.555000", "190214.055000", "190215.555000", "190217.055000", "190218.555000", "190220.055000", "190221.555000", "190223.055000", "190224.555000", "190226.055000", "190227.555000", "190229.055000", "190230.555000", "190232.055000", "190233.555000", "190235.055000", "190236.555000", "190238.055000", "190239.555000", "190241.055000", "190242.555000", "190244.055000", "190245.555000", "190247.055000", "190248.555000", "190250.055000", "190251.555000", "190253.055000", "190254.555000", "190256.055000", "190257.555000", "190259.055000", "190300.555000", "190302.055000", "190303.555000", "190305.055000", "190306.555000", "190308.055000", "190309.555000", "190311.055000", "190312.555000", "190314.055000", "190315.555000", "190317.055000", "190318.555000", "190320.055000", "190321.555000", "190323.055000", "190324.555000", "190326.055000", "190327.555000", "190329.055000", "190330.555000", "190332.055000", "190333.555000", "190335.055000", "190336.555000", "190338.055000", "190339.555000", "190341.055000", "190342.555000", "190344.055000", "190345.555000", "190347.055000", "190348.555000", "190350.055000", "190351.555000", "190353.055000", "190354.555000", "190356.055000", "190357.555000", "190359.055000", "190400.555000", "190402.055000", "190403.555000", "190405.055000", "190406.555000", "190408.055000", "190409.555000", "190411.055000", "190412.555000", "190414.055000", "190415.555000", "190417.055000", "190418.555000", "190420.055000", "190421.555000", "190423.055000", "190424.555000", "190426.055000", "190427.555000", "190429.055000", "190430.555000", "190432.055000", "190433.555000", "190435.055000", "190436.555000", "190438.055000", "190439.555000", "190441.055000", "190442.555000", "190444.055000", "190445.555000", "190447.055000", "190448.555000", "190450.055000", "190451.555000", "190453.055000", "190454.555000", "190456.055000", "190457.555000", "190459.055000", "190500.555000", "190502.055000", "190503.555000", "190505.055000", "190506.555000", "190508.055000", "190509.555000", "190511.055000", "190512.555000", "190514.055000", "190515.555000", "190517.055000", "190518.555000", "190520.055000", "190521.555000", "190523.055000", "190524.555000", "190526.055000", "190527.555000", "190529.055000", "190530.555000"],
      "ContentTime": ["190159.007000", "190159.015000", "190159.019000", "190159.022000", "190159.025000", "190159.029000", "190159.032000", "190159.034000", "190159.037000", "190159.041000", "190159.044000", "190159.047000", "190159.050000", "190159.058000", "190159.061000", "190159.064000", "190159.067000", "190159.070000", "190159.073000", "190159.076000", "190159.079000", "190159.083000", "190239.002000", "190239.006000", "190239.010000", "190239.013000", "190239.016000", "190239.027000", "190239.030000", "190239.033000", "190239.036000", "190239.039000", "190239.042000", "190239.045000", "190239.048000", "190239.051000", "190239.055000", "190239.058000", "190239.061000", "190239.064000", "190239.067000", "190239.070000", "190239.073000", "190239.076000", "190239.079000", "190239.082000", "190239.085000", "190239.088000", "190319.002000", "190319.005000", "190319.009000", "190319.012000", "190319.015000", "190319.018000", "190319.021000", "190319.024000", "190319.027000", "190319.030000", "190319.033000", "190319.036000", "190319.049000", "190319.052000", "190319.056000", "190319.059000", "190319.062000", "190319.065000", "190319.068000", "190319.071000", "190319.074000", "190319.077000", "190319.080000", "190319.083000", "190319.086000", "190319.089000", "190319.092000", "190359.002000", "190359.006000", "190359.009000", "190359.012000", "190359.016000", "190359.019000", "190359.022000", "190359.025000", "190359.028000", "190359.031000", "190359.034000", "190359.037000", "190359.040000", "190359.043000", "190359.046000", "190359.049000", "190359.052000", "190359.056000", "190359.059000", "190359.062000", "190359.065000", "190359.068000", "190359.071000", "190359.074000", "190359.077000", "190359.080000", "190359.083000", "190439.002000", "190439.005000", "190439.009000", "190439.012000", "190439.015000", "190439.018000", "190439.021000", "190439.024000", "190439.027000", "190439.030000", "190439.033000", "190439.036000", "190439.039000", "190439.042000", "190439.045000", "190439.048000", "190439.051000", "190439.054000", "190439.057000", "190439.060000", "190439.063000", "190439.066000", "190439.069000", "190439.072000", "190439.076000", "190439.079000", "190519.002000", "190519.005000", "190519.008000", "190519.011000", "190519.014000", "190519.018000", "190519.033000", "190519.036000", "190519.039000", "190519.065000", "190519.068000", "190519.071000", "190519.074000", "190519.077000", "190519.080000", "190519.083000", "190519.086000", "190519.089000", "190519.092000", "190519.095000", "190519.098000", "190519.101000", "190519.105000", "190519.108000", "190519.111000", "190519.114000", "190519.117000", "190531.609000", "190531.613000", "190531.616000", "190531.619000", "190531.622000", "190531.626000", "190531.629000", "190531.632000", "190531.635000"],
      "InstanceCreationTime": ["190159.007000", "190159.015000", "190159.019000", "190159.022000", "190159.025000", "190159.029000", "190159.032000", "190159.034000", "190159.037000", "190159.041000", "190159.044000", "190159.047000", "190159.050000", "190159.058000", "190159.061000", "190159.064000", "190159.067000", "190159.070000", "190159.073000", "190159.076000", "190159.079000", "190159.083000", "190239.002000", "190239.006000", "190239.010000", "190239.013000", "190239.016000", "190239.027000", "190239.030000", "190239.033000", "190239.036000", "190239.039000", "190239.042000", "190239.045000", "190239.048000", "190239.051000", "190239.055000", "190239.058000", "190239.061000", "190239.064000", "190239.067000", "190239.070000", "190239.073000", "190239.076000", "190239.079000", "190239.082000", "190239.085000", "190239.088000", "190319.002000", "190319.005000", "190319.009000", "190319.012000", "190319.015000", "190319.018000", "190319.021000", "190319.024000", "190319.027000", "190319.030000", "190319.033000", "190319.036000", "190319.049000", "190319.052000", "190319.056000", "190319.059000", "190319.062000", "190319.065000", "190319.068000", "190319.071000", "190319.074000", "190319.077000", "190319.080000", "190319.083000", "190319.086000", "190319.089000", "190319.092000", "190359.002000", "190359.006000", "190359.009000", "190359.012000", "190359.016000", "190359.019000", "190359.022000", "190359.025000", "190359.028000", "190359.031000", "190359.034000", "190359.037000", "190359.040000", "190359.043000", "190359.046000", "190359.049000", "190359.052000", "190359.056000", "190359.059000", "190359.062000", "190359.065000", "190359.068000", "190359.071000", "190359.074000", "190359.077000", "190359.080000", "190359.083000", "190439.002000", "190439.005000", "190439.009000", "190439.012000", "190439.015000", "190439.018000", "190439.021000", "190439.024000", "190439.027000", "190439.030000", "190439.033000", "190439.036000", "190439.039000", "190439.042000", "190439.045000", "190439.048000", "190439.051000", "190439.054000", "190439.057000", "190439.060000", "190439.063000", "190439.066000", "190439.069000", "190439.072000", "190439.076000", "190439.079000", "190519.002000", "190519.005000", "190519.008000", "190519.011000", "190519.014000", "190519.018000", "190519.033000", "190519.036000", "190519.039000", "190519.065000", "190519.068000", "190519.071000", "190519.074000", "190519.077000", "190519.080000", "190519.083000", "190519.086000", "190519.089000", "190519.092000", "190519.095000", "190519.098000", "190519.101000", "190519.105000", "190519.108000", "190519.111000", "190519.114000", "190519.117000", "190531.609000", "190531.613000", "190531.616000", "190531.619000", "190531.622000", "190531.626000", "190531.629000", "190531.632000", "190531.635000"],
      "InstanceNumber": [1, 2, 3, 4, 5, 6, 7, 8, 9, 10, 11, 12, 13, 14, 15, 16, 17, 18, 19, 20, 21, 22, 23, 24, 25, 26, 27, 28, 29, 30, 31, 32, 33, 34, 35, 36, 37, 38, 39, 40, 41, 42, 43, 44, 45, 46, 47, 48, 49, 50, 51, 52, 53, 54, 55, 56, 57, 58, 59, 60, 61, 62, 63, 64, 65, 66, 67, 68, 69, 70, 71, 72, 73, 74, 75, 76, 77, 78, 79, 80, 81, 82, 83, 84, 85, 86, 87, 88, 89, 90, 91, 92, 93, 94, 95, 96, 97, 98, 99, 100, 101, 102, 103, 104, 105, 106, 107, 108, 109, 110, 111, 112, 113, 114, 115, 116, 117, 118, 119, 120, 121, 122, 123, 124, 125, 126, 127, 128, 129, 130, 131, 132, 133, 134, 135, 136, 137, 138, 139, 140, 141, 142, 143, 144, 145, 146, 147, 148, 149, 150, 151, 152, 153, 154, 155, 156, 157, 158, 159, 160, 161, 162, 163, 164],
      "LargestImagePixelValue": [2475, 2436, 2434, 2407, 2414, 2417, 2406, 2406, 2422, 2412, 2416, 2415, 2436, 2396, 2403, 2421, 2427, 2449, 2415, 2431, 2415, 2416, 2410, 2397, 2387, 2410, 2380, 2394, 2408, 2433, 2408, 2394, 2393, 2392, 2416, 2388, 2396, 2401, 2408, 2421, 2400, 2417, 2362, 2388, 2395, 2393, 2413, 2364, 2392, 2383, 2384, 2362, 2384, 2384, 2392, 2389, 2399, 2390, 2382, 2380, 2381, 2350, 2385, 2391, 2388, 2357, 2359, 2316, 2324, 2331, 2347, 2290, 2324, 2339, 2340, 2340, 2358, 2337, 2347, 2332, 2348, 2336, 2347, 2343, 2348, 2362, 2335, 2323, 2326, 2317, 2345, 2350, 2342, 2377, 2373, 2373, 2365, 2344, 2359, 2327, 2347, 2339, 2336, 2312, 2312, 2294, 2299, 2306, 2355, 2328, 2327, 2296, 2313, 2318, 2335, 2329, 2306, 2314, 2325, 2312, 2308, 2279, 2298, 2312, 2337, 2344, 2397, 2346, 2321, 2297, 2415, 2374, 2385, 2387, 2359, 2339, 2321, 2305, 2315, 2312, 2333, 2321, 2330, 2311, 2342, 2329, 2344, 2315, 2342, 2304, 2333, 2337, 2310, 2289, 2326, 2279, 2309, 2274, 2273, 2264, 2279, 2283, 2296, 2300],
      "WindowCenter": [702.0, 700.0, 700.0, 700.0, 702.0, 703.0, 704.0, 705.0, 705.0, 705.0, 706.0, 707.0, 707.0, 705.0, 705.0, 705.0, 706.0, 707.0, 709.0, 708.0, 707.0, 705.0, 705.0, 705.0, 704.0, 705.0, 705.0, 705.0, 704.0, 704.0, 704.0, 704.0, 705.0, 705.0, 706.0, 706.0, 706.0, 706.0, 706.0, 706.0, 706.0, 706.0, 705.0, 705.0, 704.0, 705.0, 706.0, 705.0, 706.0, 706.0, 705.0, 707.0, 707.0, 707.0, 706.0, 706.0, 706.0, 706.0, 706.0, 705.0, 705.0, 705.0, 705.0, 705.0, 706.0, 706.0, 707.0, 707.0, 707.0, 706.0, 704.0, 703.0, 703.0, 704.0, 707.0, 707.0, 706.0, 704.0, 703.0, 703.0, 703.0, 705.0, 705.0, 706.0, 707.0, 707.0, 707.0, 706.0, 705.0, 705.0, 705.0, 706.0, 708.0, 708.0, 706.0, 705.0, 705.0, 705.0, 706.0, 705.0, 705.0, 705.0, 705.0, 704.0, 704.0, 703.0, 704.0, 705.0, 707.0, 708.0, 706.0, 705.0, 705.0, 705.0, 705.0, 704.0, 703.0, 704.0, 705.0, 705.0, 705.0, 704.0, 705.0, 705.0, 705.0, 707.0, 707.0, 706.0, 705.0, 703.0, 704.0, 704.0, 705.0, 705.0, 705.0, 705.0, 705.0, 704.0, 704.0, 704.0, 706.0, 706.0, 706.0, 705.0, 705.0, 705.0, 707.0, 706.0, 705.0, 703.0, 704.0, 705.0, 705.0, 705.0, 705.0, 705.0, 705.0, 705.0, 705.0, 704.0, 704.0, 705.0, 705.0, 706.0],
      "WindowWidth": [1505.0, 1501.0, 1500.0, 1501.0, 1506.0, 1508.0, 1510.0, 1513.0, 1513.0, 1514.0, 1516.0, 1518.0, 1518.0, 1514.0, 1513.0, 1514.0, 1515.0, 1520.0, 1523.0, 1522.0, 1517.0, 1514.0, 1513.0, 1512.0, 1512.0, 1514.0, 1513.0, 1512.0, 1510.0, 1511.0, 1512.0, 1511.0, 1513.0, 1514.0, 1516.0, 1517.0, 1516.0, 1516.0, 1515.0, 1517.0, 1516.0, 1516.0, 1513.0, 1512.0, 1512.0, 1513.0, 1516.0, 1515.0, 1517.0, 1516.0, 1513.0, 1520.0, 1520.0, 1518.0, 1516.0, 1515.0, 1516.0, 1517.0, 1516.0, 1514.0, 1514.0, 1513.0, 1513.0, 1512.0, 1515.0, 1515.0, 1518.0, 1518.0, 1519.0, 1515.0, 1511.0, 1508.0, 1509.0, 1512.0, 1518.0, 1519.0, 1515.0, 1511.0, 1509.0, 1509.0, 1509.0, 1512.0, 1515.0, 1516.0, 1518.0, 1519.0, 1518.0, 1515.0, 1514.0, 1514.0, 1514.0, 1517.0, 1523.0, 1521.0, 1516.0, 1512.0, 1513.0, 1514.0, 1516.0, 1514.0, 1513.0, 1513.0, 1514.0, 1512.0, 1511.0, 1510.0, 1512.0, 1513.0, 1520.0, 1521.0, 1517.0, 1514.0, 1514.0, 1513.0, 1512.0, 1510.0, 1510.0, 1513.0, 1513.0, 1513.0, 1513.0, 1513.0, 1513.0, 1515.0, 1515.0, 1518.0, 1520.0, 1517.0, 1514.0, 1509.0, 1512.0, 1512.0, 1515.0, 1515.0, 1514.0, 1513.0, 1513.0, 1511.0, 1511.0, 1511.0, 1516.0, 1517.0, 1516.0, 1513.0, 1514.0, 1514.0, 1520.0, 1518.0, 1513.0, 1509.0, 1511.0, 1513.0, 1515.0, 1513.0, 1513.0, 1513.0, 1514.0, 1513.0, 1514.0, 1512.0, 1512.0, 1513.0, 1515.0, 1515.0]
    },
    "slices": {}
  }
}