{
  "AcquisitionMatrixPE": 72,
  "AcquisitionNumber": 1,
  "AcquisitionTime": "18:55:39.050000",
  "BandwidthPerPixelPhaseEncode": 17.943,
  "BaseResolution": 96,
  "BodyPartExamined": "BRAIN",
  "CoilCombinationMethod": "Sum of Squares",
  "ConsistencyInfo": "N4_VE11C_LATEST_20160120",
  "ConversionSoftware": "dcm2niix",
  "ConversionSoftwareVersion": "v1.0.20211006",
  "DerivedVendorReportedEchoSpacing": 0.000552897,
  "DeviceSerialNumber": "166011",
  "EchoTime": 0.03,
  "EchoTrainLength": 58,
  "EffectiveEchoSpacing": 0.000580542,
  "FlipAngle": 62,
  "ImageOrientationPatientDICOM": [0.997759, -0.00788598, 0.0664503, 0.016545, 0.991273, -0.130786],
  "ImageType": [
    "ORIGINAL",
    "PRIMARY",
    "M",
    "ND",
    "MOSAIC"
],
  "ImagingFrequency": 123.26,
  "InPlanePhaseEncodingDirectionDICOM": "COL",
  "InstitutionAddress": "West 130th Street 610,NY,NYC,US,10025",
  "InstitutionName": "MBBI",
  "MRAcquisitionType": "2D",
  "MagneticFieldStrength": 3,
  "Manufacturer": "Siemens",
  "ManufacturersModelName": "Prisma",
  "Modality": "MR",
  "MultibandAccelerationFactor": 3,
  "PartialFourier": 0.75,
  "PatientPosition": "HFS",
  "PercentPhaseFOV": 100,
  "PercentSampling": 75,
  "PhaseEncodingDirection": "j-",
  "PhaseEncodingSteps": 58,
  "PhaseOversampling": 0.05,
  "PhaseResolution": 0.75,
  "PixelBandwidth": 2265,
  "ProcedureStepDescription": "White^Word_recognition",
  "ProtocolName": "func_vwfate_run9",
  "PulseSequenceDetails": "%SiemensSeq%\\ep2d_bold",
  "ReceiveCoilActiveElements": "HC1-7",
  "ReceiveCoilName": "HeadNeck_64",
  "ReconMatrixPE": 96,
  "RefLinesPE": 40,
  "RepetitionTime": 1.5,
  "SAR": 0.0426563,
  "ScanOptions": "PFP\\FS",
  "ScanningSequence": "EP",
  "SequenceName": "*epfid2d1_72",
  "SequenceVariant": "SK\\OSP",
  "SeriesDescription": "func_vwfate_run9",
  "SeriesNumber": 11,
  "ShimSetting": [-1132, -1375, 673, 597, -69, 23, -91, -40],
  "SliceThickness": 2,
  "SliceTiming": [1.0775, 0, 0.74, 0.0675, 0.8075, 0.135, 0.875, 0.2025, 0.9425, 0.27, 1.01, 0.405, 1.145, 0.4725, 1.2125, 0.5375, 1.2775, 0.605, 1.345, 0.6725, 1.4125, 0.3375, 1.0775, 0, 0.74, 0.0675, 0.8075, 0.135, 0.875, 0.2025, 0.9425, 0.27, 1.01, 0.405, 1.145, 0.4725, 1.2125, 0.5375, 1.2775, 0.605, 1.345, 0.6725, 1.4125, 0.3375, 1.0775, 0, 0.74, 0.0675, 0.8075, 0.135, 0.875, 0.2025, 0.9425, 0.27, 1.01, 0.405, 1.145, 0.4725, 1.2125, 0.5375, 1.2775, 0.605, 1.345, 0.6725, 1.4125, 0.3375],
  "SoftwareVersions": "syngo MR E11",
  "SpacingBetweenSlices": 2,
  "StationName": "AWP166011",
  "TaskName": "vwfate",
  "TotalReadoutTime": 0.0551515,
  "TxRefAmp": 216.195,
  "dcmmeta_affine": [
    [-1.9955171346664429, 0.033089958131313324, 0.1296779364347458, 95.30524444580078],
    [0.01577196642756462, 1.982545256614685, -0.2631836235523224, -70.84117889404297],
    [0.13290055096149445, 0.26157107949256897, 1.9783625602722168, -80.67530822753906],
    [0.0, 0.0, 0.0, 1.0]
],
  "dcmmeta_reorient_transform": [
    [0.0, -1.0, 0.0, 95.0],
    [1.0, 0.0, 0.0, 0.0],
    [0.0, 0.0, 1.0, 0.0],
    [0.0, 0.0, 0.0, 1.0]
],
  "dcmmeta_shape": [96, 96, 66, 164],
  "dcmmeta_slice_dim": 2,
  "dcmmeta_version": 0.6,
  "global": {
    "const": {
      "AcquisitionMatrix": [96, 0, 0, 72],
      "AngioFlag": "N",
      "BitsAllocated": 16,
      "BitsStored": 12,
      "BodyPartExamined": "BRAIN",
      "Columns": 864,
      "EchoNumbers": 1,
      "EchoTime": 30.0,
      "EchoTrainLength": 58,
      "FlipAngle": 62.0,
      "HighBit": 11,
      "ImageOrientationPatient": [0.99775857389171, -0.0078859830859, 0.06645027837673, 0.01654497895572, 0.99127261960221, -0.1307855393319],
      "ImagePositionPatient": [-877.43391939849, -872.74155298881, -6.416573762041],
      "ImageType": [
        "ORIGINAL",
        "PRIMARY",
        "M",
        "ND",
        "MOSAIC"
],
      "ImagedNucleus": "1H",
      "ImagingFrequency": 123.259542,
      "InPlanePhaseEncodingDirection": "COL",
      "MRAcquisitionType": "2D",
      "MagneticFieldStrength": 3.0,
      "Manufacturer": "SIEMENS",
      "ManufacturerModelName": "Prisma",
      "Modality": "MR",
      "NumberOfAverages": 1.0,
      "NumberOfPhaseEncodingSteps": 58,
      "PercentPhaseFieldOfView": 100.0,
      "PercentSampling": 75.0,
      "PerformedProcedureStepStartTime": "181558.666000",
      "PhotometricInterpretation": "MONOCHROME2",
      "PixelBandwidth": 2265.0,
      "PixelRepresentation": 0,
      "PixelSpacing": [2.0, 2.0],
      "ProtocolName": "func_vwfate_run9",
      "RepetitionTime": 1500.0,
      "Rows": 864,
      "SAR": 0.04265625007314,
      "SamplesPerPixel": 1,
      "ScanOptions": [
        "PFP",
        "FS"
],
      "ScanningSequence": "EP",
      "SequenceName": "*epfid2d1_72",
      "SequenceVariant": [
        "SK",
        "OSP"
],
      "SeriesDescription": "func_vwfate_run9",
      "SeriesNumber": 11,
      "SeriesTime": "185618.907000",
      "SliceLocation": -64.300885720631,
      "SliceThickness": 2.0,
      "SmallestImagePixelValue": 0,
      "SoftwareVersions": "syngo MR E11",
      "SpacingBetweenSlices": 2.0000000502021,
      "SpecificCharacterSet": "ISO_IR 100",
      "StudyID": "2",
      "StudyTime": "181558.613000",
      "TransmitCoilName": "Body",
      "VariableFlipAngleFlag": "N",
      "WindowCenterWidthExplanation": "Algo1",
      "dBdt": 0.0},
    "slices": {}
  },
  "time": {
    "samples": {
      "AcquisitionNumber": [1, 2, 3, 4, 5, 6, 7, 8, 9, 10, 11, 12, 13, 14, 15, 16, 17, 18, 19, 20, 21, 22, 23, 24, 25, 26, 27, 28, 29, 30, 31, 32, 33, 34, 35, 36, 37, 38, 39, 40, 41, 42, 43, 44, 45, 46, 47, 48, 49, 50, 51, 52, 53, 54, 55, 56, 57, 58, 59, 60, 61, 62, 63, 64, 65, 66, 67, 68, 69, 70, 71, 72, 73, 74, 75, 76, 77, 78, 79, 80, 81, 82, 83, 84, 85, 86, 87, 88, 89, 90, 91, 92, 93, 94, 95, 96, 97, 98, 99, 100, 101, 102, 103, 104, 105, 106, 107, 108, 109, 110, 111, 112, 113, 114, 115, 116, 117, 118, 119, 120, 121, 122, 123, 124, 125, 126, 127, 128, 129, 130, 131, 132, 133, 134, 135, 136, 137, 138, 139, 140, 141, 142, 143, 144, 145, 146, 147, 148, 149, 150, 151, 152, 153, 154, 155, 156, 157, 158, 159, 160, 161, 162, 163, 164],
      "AcquisitionTime": ["185539.050000", "185540.550000", "185542.050000", "185543.550000", "185545.050000", "185546.550000", "185548.050000", "185549.550000", "185551.050000", "185552.550000", "185554.050000", "185555.550000", "185557.050000", "185558.550000", "185600.050000", "185601.550000", "185603.050000", "185604.550000", "185606.050000", "185607.550000", "185609.050000", "185610.550000", "185612.050000", "185613.550000", "185615.050000", "185616.550000", "185618.050000", "185619.550000", "185621.050000", "185622.550000", "185624.050000", "185625.550000", "185627.050000", "185628.550000", "185630.050000", "185631.550000", "185633.050000", "185634.550000", "185636.050000", "185637.550000", "185639.050000", "185640.550000", "185642.050000", "185643.550000", "185645.050000", "185646.550000", "185648.050000", "185649.550000", "185651.050000", "185652.550000", "185654.050000", "185655.550000", "185657.050000", "185658.550000", "185700.050000", "185701.550000", "185703.050000", "185704.550000", "185706.050000", "185707.550000", "185709.050000", "185710.550000", "185712.050000", "185713.550000", "185715.050000", "185716.550000", "185718.050000", "185719.550000", "185721.050000", "185722.550000", "185724.050000", "185725.550000", "185727.050000", "185728.550000", "185730.050000", "185731.550000", "185733.050000", "185734.550000", "185736.050000", "185737.550000", "185739.050000", "185740.550000", "185742.050000", "185743.550000", "185745.050000", "185746.550000", "185748.050000", "185749.550000", "185751.050000", "185752.550000", "185754.050000", "185755.550000", "185757.050000", "185758.550000", "185800.050000", "185801.550000", "185803.050000", "185804.550000", "185806.050000", "185807.550000", "185809.050000", "185810.550000", "185812.050000", "185813.550000", "185815.050000", "185816.550000", "185818.050000", "185819.550000", "185821.050000", "185822.550000", "185824.050000", "185825.550000", "185827.050000", "185828.550000", "185830.050000", "185831.550000", "185833.050000", "185834.550000", "185836.050000", "185837.550000", "185839.050000", "185840.550000", "185842.050000", "185843.550000", "185845.050000", "185846.550000", "185848.050000", "185849.550000", "185851.050000", "185852.550000", "185854.050000", "185855.550000", "185857.050000", "185858.550000", "185900.050000", "185901.550000", "185903.050000", "185904.550000", "185906.050000", "185907.550000", "185909.050000", "185910.550000", "185912.050000", "185913.550000", "185915.050000", "185916.550000", "185918.050000", "185919.550000", "185921.050000", "185922.550000", "185924.050000", "185925.550000", "185927.050000", "185928.550000", "185930.050000", "185931.550000", "185933.050000", "185934.550000", "185936.050000", "185937.550000", "185939.050000", "185940.550000", "185942.050000", "185943.550000"],
      "ContentTime": ["185618.911000", "185618.915000", "185618.918000", "185618.930000", "185618.933000", "185618.937000", "185618.941000", "185618.944000", "185618.947000", "185618.950000", "185618.953000", "185618.956000", "185618.960000", "185618.963000", "185618.966000", "185618.974000", "185618.978000", "185618.981000", "185618.984000", "185618.987000", "185618.990000", "185618.993000", "185618.996000", "185619.000000", "185619.003000", "185619.006000", "185658.906000", "185658.909000", "185658.912000", "185658.915000", "185658.919000", "185658.922000", "185658.924000", "185658.927000", "185658.931000", "185658.934000", "185658.937000", "185658.947000", "185658.951000", "185658.954000", "185658.957000", "185658.960000", "185658.963000", "185658.966000", "185658.975000", "185658.978000", "185658.982000", "185658.985000", "185658.988000", "185658.991000", "185658.994000", "185658.997000", "185659.001000", "185738.907000", "185738.910000", "185738.913000", "185738.916000", "185738.919000", "185738.922000", "185738.925000", "185738.929000", "185738.932000", "185738.935000", "185738.938000", "185738.941000", "185738.944000", "185738.947000", "185738.950000", "185738.953000", "185738.956000", "185738.959000", "185738.962000", "185738.965000", "185738.968000", "185738.971000", "185738.974000", "185738.977000", "185738.980000", "185738.983000", "185738.986000", "185818.906000", "185818.909000", "185818.912000", "185818.915000", "185818.918000", "185818.922000", "185818.926000", "185818.929000", "185818.932000", "185818.935000", "185818.938000", "185818.941000", "185818.944000", "185818.947000", "185818.950000", "185818.953000", "185818.956000", "185818.959000", "185818.962000", "185818.965000", "185818.968000", "185818.972000", "185818.975000", "185818.978000", "185818.981000", "185818.984000", "185858.906000", "185858.909000", "185858.912000", "185858.915000", "185858.918000", "185858.921000", "185858.925000", "185858.928000", "185858.931000", "185858.934000", "185858.937000", "185858.940000", "185858.943000", "185858.946000", "185858.949000", "185858.952000", "185858.955000", "185858.958000", "185858.961000", "185858.964000", "185858.968000", "185858.971000", "185858.974000", "185858.977000", "185858.980000", "185858.983000", "185858.986000", "185938.906000", "185938.909000", "185938.912000", "185938.915000", "185938.919000", "185938.922000", "185938.925000", "185938.928000", "185938.931000", "185938.934000", "185938.937000", "185938.940000", "185938.943000", "185938.946000", "185938.949000", "185938.952000", "185938.955000", "185938.959000", "185938.962000", "185938.965000", "185938.968000", "185938.971000", "185938.974000", "185938.977000", "185938.980000", "185938.983000", "185938.986000", "185944.713000", "185944.716000", "185944.719000", "185944.723000"],
      "InstanceCreationTime": ["185618.911000", "185618.915000", "185618.918000", "185618.930000", "185618.933000", "185618.937000", "185618.941000", "185618.944000", "185618.947000", "185618.950000", "185618.953000", "185618.956000", "185618.960000", "185618.963000", "185618.966000", "185618.974000", "185618.978000", "185618.981000", "185618.984000", "185618.987000", "185618.990000", "185618.993000", "185618.996000", "185619.000000", "185619.003000", "185619.006000", "185658.906000", "185658.909000", "185658.912000", "185658.915000", "185658.919000", "185658.922000", "185658.924000", "185658.927000", "185658.931000", "185658.934000", "185658.937000", "185658.947000", "185658.951000", "185658.954000", "185658.957000", "185658.960000", "185658.963000", "185658.966000", "185658.975000", "185658.978000", "185658.982000", "185658.985000", "185658.988000", "185658.991000", "185658.994000", "185658.997000", "185659.001000", "185738.907000", "185738.910000", "185738.913000", "185738.916000", "185738.919000", "185738.922000", "185738.925000", "185738.929000", "185738.932000", "185738.935000", "185738.938000", "185738.941000", "185738.944000", "185738.947000", "185738.950000", "185738.953000", "185738.956000", "185738.959000", "185738.962000", "185738.965000", "185738.968000", "185738.971000", "185738.974000", "185738.977000", "185738.980000", "185738.983000", "185738.986000", "185818.906000", "185818.909000", "185818.912000", "185818.915000", "185818.918000", "185818.922000", "185818.926000", "185818.929000", "185818.932000", "185818.935000", "185818.938000", "185818.941000", "185818.944000", "185818.947000", "185818.950000", "185818.953000", "185818.956000", "185818.959000", "185818.962000", "185818.965000", "185818.968000", "185818.972000", "185818.975000", "185818.978000", "185818.981000", "185818.984000", "185858.906000", "185858.909000", "185858.912000", "185858.915000", "185858.918000", "185858.921000", "185858.925000", "185858.928000", "185858.931000", "185858.934000", "185858.937000", "185858.940000", "185858.943000", "185858.946000", "185858.949000", "185858.952000", "185858.955000", "185858.958000", "185858.961000", "185858.964000", "185858.968000", "185858.971000", "185858.974000", "185858.977000", "185858.980000", "185858.983000", "185858.986000", "185938.906000", "185938.909000", "185938.912000", "185938.915000", "185938.919000", "185938.922000", "185938.925000", "185938.928000", "185938.931000", "185938.934000", "185938.937000", "185938.940000", "185938.943000", "185938.946000", "185938.949000", "185938.952000", "185938.955000", "185938.959000", "185938.962000", "185938.965000", "185938.968000", "185938.971000", "185938.974000", "185938.977000", "185938.980000", "185938.983000", "185938.986000", "185944.713000", "185944.716000", "185944.719000", "185944.723000"],
      "InstanceNumber": [1, 2, 3, 4, 5, 6, 7, 8, 9, 10, 11, 12, 13, 14, 15, 16, 17, 18, 19, 20, 21, 22, 23, 24, 25, 26, 27, 28, 29, 30, 31, 32, 33, 34, 35, 36, 37, 38, 39, 40, 41, 42, 43, 44, 45, 46, 47, 48, 49, 50, 51, 52, 53, 54, 55, 56, 57, 58, 59, 60, 61, 62, 63, 64, 65, 66, 67, 68, 69, 70, 71, 72, 73, 74, 75, 76, 77, 78, 79, 80, 81, 82, 83, 84, 85, 86, 87, 88, 89, 90, 91, 92, 93, 94, 95, 96, 97, 98, 99, 100, 101, 102, 103, 104, 105, 106, 107, 108, 109, 110, 111, 112, 113, 114, 115, 116, 117, 118, 119, 120, 121, 122, 123, 124, 125, 126, 127, 128, 129, 130, 131, 132, 133, 134, 135, 136, 137, 138, 139, 140, 141, 142, 143, 144, 145, 146, 147, 148, 149, 150, 151, 152, 153, 154, 155, 156, 157, 158, 159, 160, 161, 162, 163, 164],
      "LargestImagePixelValue": [2468, 2445, 2419, 2415, 2408, 2433, 2433, 2382, 2407, 2424, 2425, 2442, 2441, 2446, 2460, 2435, 2453, 2426, 2456, 2427, 2438, 2402, 2436, 2438, 2450, 2425, 2395, 2428, 2447, 2458, 2427, 2440, 2490, 2469, 2461, 2455, 2450, 2465, 2474, 2452, 2454, 2453, 2451, 2459, 2459, 2428, 2427, 2446, 2436, 2425, 2430, 2424, 2459, 2435, 2433, 2440, 2409, 2431, 2443, 2429, 2442, 2401, 2436, 2402, 2446, 2445, 2464, 2444, 2423, 2426, 2423, 2424, 2432, 2415, 2400, 2404, 2423, 2411, 2418, 2394, 2403, 2385, 2406, 2395, 2404, 2369, 2402, 2385, 2369, 2361, 2371, 2389, 2357, 2375, 2376, 2401, 2397, 2381, 2361, 2345, 2383, 2373, 2379, 2357, 2374, 2356, 2342, 2344, 2336, 2347, 2353, 2338, 2354, 2351, 2342, 2326, 2340, 2366, 2382, 2336, 2397, 2344, 2381, 2375, 2409, 2375, 2348, 2353, 2388, 2382, 2388, 2365, 2387, 2362, 2373, 2395, 2384, 2384, 2364, 2345, 2363, 2359, 2283, 2424, 2387, 2388, 2352, 2408, 2375, 2334, 2347, 2350, 2346, 2343, 2363, 2328, 2357, 2336, 2328, 2332, 2341, 2328, 2324, 2299],
      "WindowCenter": [707.0, 706.0, 705.0, 704.0, 704.0, 704.0, 704.0, 704.0, 703.0, 704.0, 705.0, 704.0, 705.0, 705.0, 705.0, 704.0, 704.0, 704.0, 705.0, 705.0, 705.0, 704.0, 705.0, 705.0, 705.0, 705.0, 704.0, 706.0, 706.0, 707.0, 706.0, 705.0, 707.0, 707.0, 705.0, 705.0, 704.0, 706.0, 708.0, 708.0, 707.0, 706.0, 705.0, 705.0, 706.0, 706.0, 706.0, 706.0, 705.0, 705.0, 704.0, 704.0, 705.0, 705.0, 705.0, 705.0, 705.0, 705.0, 705.0, 705.0, 706.0, 705.0, 705.0, 705.0, 706.0, 705.0, 706.0, 707.0, 706.0, 706.0, 705.0, 704.0, 705.0, 705.0, 705.0, 705.0, 705.0, 704.0, 708.0, 708.0, 706.0, 704.0, 704.0, 703.0, 703.0, 704.0, 705.0, 705.0, 704.0, 703.0, 703.0, 703.0, 703.0, 703.0, 706.0, 706.0, 706.0, 704.0, 703.0, 703.0, 705.0, 706.0, 706.0, 705.0, 705.0, 704.0, 704.0, 704.0, 704.0, 705.0, 705.0, 705.0, 705.0, 705.0, 704.0, 704.0, 704.0, 704.0, 704.0, 705.0, 705.0, 705.0, 705.0, 705.0, 706.0, 705.0, 704.0, 704.0, 704.0, 706.0, 707.0, 707.0, 705.0, 703.0, 703.0, 703.0, 704.0, 704.0, 704.0, 704.0, 704.0, 704.0, 702.0, 704.0, 704.0, 705.0, 705.0, 705.0, 707.0, 706.0, 704.0, 704.0, 704.0, 704.0, 704.0, 705.0, 705.0, 705.0, 705.0, 705.0, 705.0, 704.0, 704.0, 704.0],
      "WindowWidth": [1520.0, 1517.0, 1514.0, 1512.0, 1510.0, 1511.0, 1511.0, 1510.0, 1509.0, 1511.0, 1513.0, 1512.0, 1514.0, 1514.0, 1513.0, 1510.0, 1510.0, 1512.0, 1515.0, 1514.0, 1513.0, 1512.0, 1514.0, 1514.0, 1514.0, 1514.0, 1512.0, 1516.0, 1516.0, 1520.0, 1516.0, 1513.0, 1519.0, 1518.0, 1515.0, 1512.0, 1512.0, 1515.0, 1521.0, 1522.0, 1520.0, 1516.0, 1515.0, 1515.0, 1517.0, 1515.0, 1515.0, 1516.0, 1514.0, 1512.0, 1510.0, 1510.0, 1513.0, 1514.0, 1514.0, 1514.0, 1514.0, 1515.0, 1514.0, 1514.0, 1515.0, 1514.0, 1515.0, 1514.0, 1515.0, 1514.0, 1516.0, 1518.0, 1517.0, 1516.0, 1513.0, 1512.0, 1513.0, 1513.0, 1513.0, 1513.0, 1514.0, 1511.0, 1521.0, 1522.0, 1517.0, 1512.0, 1511.0, 1510.0, 1510.0, 1511.0, 1513.0, 1512.0, 1511.0, 1509.0, 1508.0, 1508.0, 1509.0, 1510.0, 1517.0, 1517.0, 1516.0, 1512.0, 1509.0, 1510.0, 1514.0, 1516.0, 1517.0, 1515.0, 1514.0, 1511.0, 1511.0, 1512.0, 1512.0, 1513.0, 1513.0, 1514.0, 1514.0, 1513.0, 1512.0, 1510.0, 1512.0, 1512.0, 1513.0, 1513.0, 1515.0, 1514.0, 1513.0, 1514.0, 1516.0, 1515.0, 1512.0, 1511.0, 1511.0, 1515.0, 1519.0, 1519.0, 1515.0, 1509.0, 1509.0, 1509.0, 1510.0, 1511.0, 1512.0, 1511.0, 1511.0, 1511.0, 1507.0, 1511.0, 1511.0, 1513.0, 1513.0, 1515.0, 1519.0, 1516.0, 1512.0, 1510.0, 1510.0, 1510.0, 1512.0, 1513.0, 1514.0, 1515.0, 1514.0, 1513.0, 1513.0, 1512.0, 1512.0, 1513.0]
    },
    "slices": {}
  }
}