{
  "AcquisitionMatrixPE": 72,
  "AcquisitionNumber": 1,
  "AcquisitionTime": "19:19:18.302500",
  "BandwidthPerPixelPhaseEncode": 17.943,
  "BaseResolution": 96,
  "BodyPartExamined": "BRAIN",
  "CoilCombinationMethod": "Sum of Squares",
  "ConsistencyInfo": "N4_VE11C_LATEST_20160120",
  "ConversionSoftware": "dcm2niix",
  "ConversionSoftwareVersion": "v1.0.20211006",
  "DerivedVendorReportedEchoSpacing": 0.000552897,
  "DeviceSerialNumber": "166011",
  "EchoTime": 0.03,
  "EchoTrainLength": 58,
  "EffectiveEchoSpacing": 0.000580542,
  "FlipAngle": 62,
  "ImageOrientationPatientDICOM": [0.997759, -0.00788598, 0.0664503, 0.016545, 0.991273, -0.130786],
  "ImageType": [
    "ORIGINAL",
    "PRIMARY",
    "M",
    "ND",
    "MOSAIC"
],
  "ImagingFrequency": 123.26,
  "InPlanePhaseEncodingDirectionDICOM": "COL",
  "InstitutionAddress": "West 130th Street 610,NY,NYC,US,10025",
  "InstitutionName": "MBBI",
  "MRAcquisitionType": "2D",
  "MagneticFieldStrength": 3,
  "Manufacturer": "Siemens",
  "ManufacturersModelName": "Prisma",
  "Modality": "MR",
  "MultibandAccelerationFactor": 3,
  "PartialFourier": 0.75,
  "PatientPosition": "HFS",
  "PercentPhaseFOV": 100,
  "PercentSampling": 75,
  "PhaseEncodingDirection": "j-",
  "PhaseEncodingSteps": 58,
  "PhaseOversampling": 0.05,
  "PhaseResolution": 0.75,
  "PixelBandwidth": 2265,
  "ProcedureStepDescription": "White^Word_recognition",
  "ProtocolName": "func_vwfate_run12",
  "PulseSequenceDetails": "%SiemensSeq%\\ep2d_bold",
  "ReceiveCoilActiveElements": "HC1-7",
  "ReceiveCoilName": "HeadNeck_64",
  "ReconMatrixPE": 96,
  "RefLinesPE": 40,
  "RepetitionTime": 1.5,
  "SAR": 0.0426563,
  "ScanOptions": "PFP\\FS",
  "ScanningSequence": "EP",
  "SequenceName": "*epfid2d1_72",
  "SequenceVariant": "SK\\OSP",
  "SeriesDescription": "func_vwfate_run12",
  "SeriesNumber": 15,
  "ShimSetting": [-1132, -1375, 673, 597, -69, 23, -91, -40],
  "SliceThickness": 2,
  "SliceTiming": [1.0775, 0, 0.74, 0.0675, 0.8075, 0.135, 0.875, 0.2025, 0.9425, 0.27, 1.01, 0.405, 1.145, 0.47, 1.21, 0.5375, 1.2775, 0.605, 1.345, 0.6725, 1.4125, 0.3375, 1.0775, 0, 0.74, 0.0675, 0.8075, 0.135, 0.875, 0.2025, 0.9425, 0.27, 1.01, 0.405, 1.145, 0.47, 1.21, 0.5375, 1.2775, 0.605, 1.345, 0.6725, 1.4125, 0.3375, 1.0775, 0, 0.74, 0.0675, 0.8075, 0.135, 0.875, 0.2025, 0.9425, 0.27, 1.01, 0.405, 1.145, 0.47, 1.21, 0.5375, 1.2775, 0.605, 1.345, 0.6725, 1.4125, 0.3375],
  "SoftwareVersions": "syngo MR E11",
  "SpacingBetweenSlices": 2,
  "StationName": "AWP166011",
  "TaskName": "vwfate",
  "TotalReadoutTime": 0.0551515,
  "TxRefAmp": 216.195,
  "dcmmeta_affine": [
    [-1.9955171346664429, 0.033089958131313324, 0.1296779364347458, 95.30524444580078],
    [0.01577196642756462, 1.982545256614685, -0.2631836235523224, -70.84117889404297],
    [0.13290055096149445, 0.26157107949256897, 1.9783625602722168, -80.67530822753906],
    [0.0, 0.0, 0.0, 1.0]
],
  "dcmmeta_reorient_transform": [
    [0.0, -1.0, 0.0, 95.0],
    [1.0, 0.0, 0.0, 0.0],
    [0.0, 0.0, 1.0, 0.0],
    [0.0, 0.0, 0.0, 1.0]
],
  "dcmmeta_shape": [96, 96, 66, 164],
  "dcmmeta_slice_dim": 2,
  "dcmmeta_version": 0.6,
  "global": {
    "const": {
      "AcquisitionMatrix": [96, 0, 0, 72],
      "AngioFlag": "N",
      "BitsAllocated": 16,
      "BitsStored": 12,
      "BodyPartExamined": "BRAIN",
      "Columns": 864,
      "EchoNumbers": 1,
      "EchoTime": 30.0,
      "EchoTrainLength": 58,
      "FlipAngle": 62.0,
      "HighBit": 11,
      "ImageOrientationPatient": [0.99775857389171, -0.0078859830859, 0.06645027837673, 0.01654497895572, 0.99127261960221, -0.1307855393319],
      "ImagePositionPatient": [-877.43391939849, -872.74155298881, -6.416573762041],
      "ImageType": [
        "ORIGINAL",
        "PRIMARY",
        "M",
        "ND",
        "MOSAIC"
],
      "ImagedNucleus": "1H",
      "ImagingFrequency": 123.259546,
      "InPlanePhaseEncodingDirection": "COL",
      "MRAcquisitionType": "2D",
      "MagneticFieldStrength": 3.0,
      "Manufacturer": "SIEMENS",
      "ManufacturerModelName": "Prisma",
      "Modality": "MR",
      "NumberOfAverages": 1.0,
      "NumberOfPhaseEncodingSteps": 58,
      "PercentPhaseFieldOfView": 100.0,
      "PercentSampling": 75.0,
      "PerformedProcedureStepStartTime": "181558.666000",
      "PhotometricInterpretation": "MONOCHROME2",
      "PixelBandwidth": 2265.0,
      "PixelRepresentation": 0,
      "PixelSpacing": [2.0, 2.0],
      "ProtocolName": "func_vwfate_run12",
      "RepetitionTime": 1500.0,
      "Rows": 864,
      "SAR": 0.04265625007314,
      "SamplesPerPixel": 1,
      "ScanOptions": [
        "PFP",
        "FS"
],
      "ScanningSequence": "EP",
      "SequenceName": "*epfid2d1_72",
      "SequenceVariant": [
        "SK",
        "OSP"
],
      "SeriesDescription": "func_vwfate_run12",
      "SeriesNumber": 15,
      "SeriesTime": "191959.003000",
      "SliceLocation": -64.300885720631,
      "SliceThickness": 2.0,
      "SmallestImagePixelValue": 0,
      "SoftwareVersions": "syngo MR E11",
      "SpacingBetweenSlices": 2.0000000502021,
      "SpecificCharacterSet": "ISO_IR 100",
      "StudyID": "2",
      "StudyTime": "181558.613000",
      "TransmitCoilName": "Body",
      "VariableFlipAngleFlag": "N",
      "WindowCenterWidthExplanation": "Algo1",
      "dBdt": 0.0},
    "slices": {}
  },
  "time": {
    "samples": {
      "AcquisitionNumber": [1, 2, 3, 4, 5, 6, 7, 8, 9, 10, 11, 12, 13, 14, 15, 16, 17, 18, 19, 20, 21, 22, 23, 24, 25, 26, 27, 28, 29, 30, 31, 32, 33, 34, 35, 36, 37, 38, 39, 40, 41, 42, 43, 44, 45, 46, 47, 48, 49, 50, 51, 52, 53, 54, 55, 56, 57, 58, 59, 60, 61, 62, 63, 64, 65, 66, 67, 68, 69, 70, 71, 72, 73, 74, 75, 76, 77, 78, 79, 80, 81, 82, 83, 84, 85, 86, 87, 88, 89, 90, 91, 92, 93, 94, 95, 96, 97, 98, 99, 100, 101, 102, 103, 104, 105, 106, 107, 108, 109, 110, 111, 112, 113, 114, 115, 116, 117, 118, 119, 120, 121, 122, 123, 124, 125, 126, 127, 128, 129, 130, 131, 132, 133, 134, 135, 136, 137, 138, 139, 140, 141, 142, 143, 144, 145, 146, 147, 148, 149, 150, 151, 152, 153, 154, 155, 156, 157, 158, 159, 160, 161, 162, 163, 164],
      "AcquisitionTime": ["191918.302500", "191919.802500", "191921.302500", "191922.802500", "191924.302500", "191925.802500", "191927.302500", "191928.802500", "191930.302500", "191931.802500", "191933.302500", "191934.802500", "191936.302500", "191937.802500", "191939.302500", "191940.802500", "191942.302500", "191943.802500", "191945.302500", "191946.802500", "191948.302500", "191949.802500", "191951.302500", "191952.802500", "191954.302500", "191955.802500", "191957.302500", "191958.802500", "192000.302500", "192001.802500", "192003.302500", "192004.802500", "192006.302500", "192007.802500", "192009.302500", "192010.802500", "192012.302500", "192013.802500", "192015.302500", "192016.802500", "192018.302500", "192019.802500", "192021.302500", "192022.802500", "192024.302500", "192025.802500", "192027.302500", "192028.802500", "192030.302500", "192031.802500", "192033.302500", "192034.802500", "192036.302500", "192037.802500", "192039.302500", "192040.802500", "192042.302500", "192043.802500", "192045.302500", "192046.802500", "192048.302500", "192049.802500", "192051.302500", "192052.802500", "192054.302500", "192055.802500", "192057.302500", "192058.802500", "192100.302500", "192101.802500", "192103.302500", "192104.802500", "192106.302500", "192107.802500", "192109.302500", "192110.802500", "192112.302500", "192113.802500", "192115.302500", "192116.802500", "192118.302500", "192119.802500", "192121.302500", "192122.802500", "192124.302500", "192125.802500", "192127.302500", "192128.802500", "192130.302500", "192131.802500", "192133.302500", "192134.802500", "192136.302500", "192137.802500", "192139.302500", "192140.802500", "192142.302500", "192143.802500", "192145.302500", "192146.802500", "192148.302500", "192149.802500", "192151.302500", "192152.802500", "192154.302500", "192155.802500", "192157.302500", "192158.802500", "192200.302500", "192201.802500", "192203.302500", "192204.802500", "192206.302500", "192207.802500", "192209.302500", "192210.802500", "192212.302500", "192213.802500", "192215.302500", "192216.802500", "192218.302500", "192219.802500", "192221.302500", "192222.802500", "192224.302500", "192225.802500", "192227.302500", "192228.802500", "192230.302500", "192231.802500", "192233.302500", "192234.802500", "192236.302500", "192237.802500", "192239.302500", "192240.802500", "192242.302500", "192243.802500", "192245.302500", "192246.802500", "192248.302500", "192249.802500", "192251.302500", "192252.802500", "192254.302500", "192255.802500", "192257.302500", "192258.802500", "192300.302500", "192301.802500", "192303.302500", "192304.802500", "192306.302500", "192307.802500", "192309.302500", "192310.802500", "192312.302500", "192313.802500", "192315.302500", "192316.802500", "192318.302500", "192319.802500", "192321.302500", "192322.802500"],
      "ContentTime": ["191959.007000", "191959.011000", "191959.020000", "191959.023000", "191959.026000", "191959.033000", "191959.036000", "191959.039000", "191959.042000", "191959.046000", "191959.049000", "191959.052000", "191959.057000", "191959.060000", "191959.063000", "191959.066000", "191959.069000", "191959.072000", "191959.075000", "191959.078000", "191959.081000", "191959.085000", "191959.088000", "191959.098000", "191959.101000", "191959.104000", "191959.107000", "192039.002000", "192039.006000", "192039.009000", "192039.019000", "192039.022000", "192039.025000", "192039.028000", "192039.032000", "192039.035000", "192039.038000", "192039.044000", "192039.047000", "192039.050000", "192039.053000", "192039.056000", "192039.059000", "192039.062000", "192039.065000", "192039.068000", "192039.071000", "192039.074000", "192039.077000", "192039.080000", "192039.084000", "192039.086000", "192039.089000", "192119.002000", "192119.006000", "192119.009000", "192119.011000", "192119.014000", "192119.018000", "192119.021000", "192119.024000", "192119.027000", "192119.044000", "192119.047000", "192119.050000", "192119.053000", "192119.056000", "192119.069000", "192119.072000", "192119.074000", "192119.078000", "192119.081000", "192119.084000", "192119.087000", "192119.090000", "192119.093000", "192119.096000", "192119.099000", "192119.102000", "192119.105000", "192159.002000", "192159.005000", "192159.008000", "192159.011000", "192159.015000", "192159.018000", "192159.021000", "192159.024000", "192159.027000", "192159.030000", "192159.033000", "192159.036000", "192159.039000", "192159.042000", "192159.045000", "192159.048000", "192159.052000", "192159.055000", "192159.058000", "192159.061000", "192159.064000", "192159.067000", "192159.070000", "192159.073000", "192159.076000", "192159.079000", "192159.082000", "192239.002000", "192239.005000", "192239.008000", "192239.011000", "192239.014000", "192239.018000", "192239.022000", "192239.025000", "192239.028000", "192239.031000", "192239.034000", "192239.038000", "192239.041000", "192239.044000", "192239.047000", "192239.050000", "192239.053000", "192239.056000", "192239.059000", "192239.062000", "192239.065000", "192239.068000", "192239.071000", "192239.077000", "192239.080000", "192239.083000", "192319.003000", "192319.006000", "192319.009000", "192319.012000", "192319.016000", "192319.019000", "192319.022000", "192319.025000", "192319.028000", "192319.031000", "192319.034000", "192319.037000", "192319.040000", "192319.043000", "192319.046000", "192319.049000", "192319.053000", "192319.056000", "192319.059000", "192319.062000", "192319.065000", "192319.068000", "192319.071000", "192319.074000", "192319.077000", "192319.080000", "192319.083000", "192324.025000", "192324.029000", "192324.033000", "192324.036000"],
      "InstanceCreationTime": ["191959.007000", "191959.011000", "191959.020000", "191959.023000", "191959.026000", "191959.033000", "191959.036000", "191959.039000", "191959.042000", "191959.046000", "191959.049000", "191959.052000", "191959.057000", "191959.060000", "191959.063000", "191959.066000", "191959.069000", "191959.072000", "191959.075000", "191959.078000", "191959.081000", "191959.085000", "191959.088000", "191959.098000", "191959.101000", "191959.104000", "191959.107000", "192039.002000", "192039.006000", "192039.009000", "192039.019000", "192039.022000", "192039.025000", "192039.028000", "192039.032000", "192039.035000", "192039.038000", "192039.044000", "192039.047000", "192039.050000", "192039.053000", "192039.056000", "192039.059000", "192039.062000", "192039.065000", "192039.068000", "192039.071000", "192039.074000", "192039.077000", "192039.080000", "192039.084000", "192039.086000", "192039.089000", "192119.002000", "192119.006000", "192119.009000", "192119.011000", "192119.014000", "192119.018000", "192119.021000", "192119.024000", "192119.027000", "192119.044000", "192119.047000", "192119.050000", "192119.053000", "192119.056000", "192119.069000", "192119.072000", "192119.074000", "192119.078000", "192119.081000", "192119.084000", "192119.087000", "192119.090000", "192119.093000", "192119.096000", "192119.099000", "192119.102000", "192119.105000", "192159.002000", "192159.005000", "192159.008000", "192159.011000", "192159.015000", "192159.018000", "192159.021000", "192159.024000", "192159.027000", "192159.030000", "192159.033000", "192159.036000", "192159.039000", "192159.042000", "192159.045000", "192159.048000", "192159.052000", "192159.055000", "192159.058000", "192159.061000", "192159.064000", "192159.067000", "192159.070000", "192159.073000", "192159.076000", "192159.079000", "192159.082000", "192239.002000", "192239.005000", "192239.008000", "192239.011000", "192239.014000", "192239.018000", "192239.022000", "192239.025000", "192239.028000", "192239.031000", "192239.034000", "192239.038000", "192239.041000", "192239.044000", "192239.047000", "192239.050000", "192239.053000", "192239.056000", "192239.059000", "192239.062000", "192239.065000", "192239.068000", "192239.071000", "192239.077000", "192239.080000", "192239.083000", "192319.003000", "192319.006000", "192319.009000", "192319.012000", "192319.016000", "192319.019000", "192319.022000", "192319.025000", "192319.028000", "192319.031000", "192319.034000", "192319.037000", "192319.040000", "192319.043000", "192319.046000", "192319.049000", "192319.053000", "192319.056000", "192319.059000", "192319.062000", "192319.065000", "192319.068000", "192319.071000", "192319.074000", "192319.077000", "192319.080000", "192319.083000", "192324.025000", "192324.029000", "192324.033000", "192324.036000"],
      "InstanceNumber": [1, 2, 3, 4, 5, 6, 7, 8, 9, 10, 11, 12, 13, 14, 15, 16, 17, 18, 19, 20, 21, 22, 23, 24, 25, 26, 27, 28, 29, 30, 31, 32, 33, 34, 35, 36, 37, 38, 39, 40, 41, 42, 43, 44, 45, 46, 47, 48, 49, 50, 51, 52, 53, 54, 55, 56, 57, 58, 59, 60, 61, 62, 63, 64, 65, 66, 67, 68, 69, 70, 71, 72, 73, 74, 75, 76, 77, 78, 79, 80, 81, 82, 83, 84, 85, 86, 87, 88, 89, 90, 91, 92, 93, 94, 95, 96, 97, 98, 99, 100, 101, 102, 103, 104, 105, 106, 107, 108, 109, 110, 111, 112, 113, 114, 115, 116, 117, 118, 119, 120, 121, 122, 123, 124, 125, 126, 127, 128, 129, 130, 131, 132, 133, 134, 135, 136, 137, 138, 139, 140, 141, 142, 143, 144, 145, 146, 147, 148, 149, 150, 151, 152, 153, 154, 155, 156, 157, 158, 159, 160, 161, 162, 163, 164],
      "LargestImagePixelValue": [2459, 2402, 2390, 2381, 2360, 2348, 2351, 2359, 2364, 2383, 2372, 2368, 2341, 2360, 2361, 2367, 2362, 2375, 2358, 2372, 2376, 2387, 2364, 2362, 2390, 2415, 2385, 2380, 2361, 2377, 2365, 2371, 2359, 2344, 2434, 2417, 2386, 2371, 2398, 2352, 2389, 2381, 2393, 2365, 2395, 2390, 2389, 2391, 2397, 2397, 2404, 2381, 2396, 2379, 2400, 2373, 2403, 2370, 2373, 2372, 2356, 2370, 2386, 2376, 2387, 2400, 2375, 2401, 2386, 2401, 2378, 2397, 2406, 2395, 2401, 2409, 2389, 2415, 2388, 2393, 2370, 2400, 2359, 2395, 2381, 2380, 2372, 2383, 2389, 2392, 2358, 2383, 2374, 2391, 2389, 2402, 2422, 2428, 2397, 2395, 2412, 2403, 2373, 2402, 2384, 2393, 2373, 2385, 2353, 2298, 2359, 2309, 2337, 2302, 2328, 2324, 2315, 2320, 2317, 2345, 2359, 2363, 2321, 2356, 2373, 2372, 2361, 2347, 2374, 2382, 2379, 2374, 2389, 2355, 2352, 2355, 2366, 2375, 2369, 2373, 2372, 2369, 2356, 2348, 2357, 2349, 2378, 2329, 2382, 2394, 2370, 2348, 2325, 2346, 2343, 2362, 2307, 2353, 2358, 2344, 2317, 2323, 2336, 2359],
      "WindowCenter": [709.0, 707.0, 705.0, 703.0, 702.0, 702.0, 703.0, 703.0, 703.0, 703.0, 703.0, 702.0, 702.0, 702.0, 703.0, 703.0, 702.0, 702.0, 702.0, 703.0, 703.0, 702.0, 703.0, 703.0, 707.0, 706.0, 704.0, 703.0, 703.0, 703.0, 703.0, 703.0, 703.0, 703.0, 706.0, 705.0, 704.0, 703.0, 703.0, 705.0, 706.0, 706.0, 704.0, 703.0, 703.0, 704.0, 704.0, 705.0, 706.0, 707.0, 707.0, 705.0, 704.0, 704.0, 704.0, 704.0, 705.0, 706.0, 704.0, 703.0, 702.0, 703.0, 704.0, 705.0, 705.0, 705.0, 704.0, 704.0, 703.0, 703.0, 702.0, 703.0, 703.0, 703.0, 703.0, 704.0, 704.0, 704.0, 704.0, 704.0, 704.0, 703.0, 702.0, 703.0, 702.0, 703.0, 704.0, 704.0, 704.0, 704.0, 703.0, 704.0, 704.0, 704.0, 704.0, 705.0, 706.0, 706.0, 704.0, 702.0, 703.0, 702.0, 702.0, 703.0, 702.0, 702.0, 702.0, 702.0, 702.0, 702.0, 705.0, 704.0, 704.0, 700.0, 698.0, 697.0, 697.0, 697.0, 697.0, 698.0, 700.0, 700.0, 700.0, 700.0, 701.0, 702.0, 702.0, 703.0, 704.0, 705.0, 704.0, 704.0, 704.0, 704.0, 704.0, 705.0, 705.0, 705.0, 704.0, 705.0, 705.0, 705.0, 705.0, 704.0, 705.0, 705.0, 707.0, 707.0, 709.0, 708.0, 706.0, 703.0, 701.0, 700.0, 701.0, 703.0, 703.0, 705.0, 703.0, 702.0, 701.0, 702.0, 702.0, 705.0],
      "WindowWidth": [1524.0, 1520.0, 1513.0, 1509.0, 1506.0, 1505.0, 1508.0, 1508.0, 1507.0, 1508.0, 1507.0, 1506.0, 1507.0, 1507.0, 1508.0, 1507.0, 1507.0, 1507.0, 1507.0, 1508.0, 1507.0, 1507.0, 1507.0, 1510.0, 1520.0, 1515.0, 1511.0, 1508.0, 1508.0, 1508.0, 1508.0, 1509.0, 1509.0, 1509.0, 1516.0, 1514.0, 1511.0, 1508.0, 1507.0, 1513.0, 1517.0, 1515.0, 1510.0, 1508.0, 1509.0, 1510.0, 1512.0, 1515.0, 1515.0, 1518.0, 1517.0, 1514.0, 1510.0, 1510.0, 1510.0, 1512.0, 1514.0, 1515.0, 1511.0, 1507.0, 1506.0, 1508.0, 1511.0, 1514.0, 1514.0, 1512.0, 1510.0, 1510.0, 1509.0, 1509.0, 1506.0, 1507.0, 1508.0, 1508.0, 1508.0, 1510.0, 1511.0, 1512.0, 1510.0, 1512.0, 1511.0, 1509.0, 1506.0, 1507.0, 1506.0, 1509.0, 1510.0, 1511.0, 1510.0, 1510.0, 1509.0, 1511.0, 1511.0, 1511.0, 1511.0, 1512.0, 1515.0, 1515.0, 1510.0, 1507.0, 1507.0, 1506.0, 1506.0, 1508.0, 1507.0, 1506.0, 1505.0, 1505.0, 1506.0, 1507.0, 1514.0, 1511.0, 1510.0, 1500.0, 1494.0, 1491.0, 1491.0, 1492.0, 1493.0, 1495.0, 1499.0, 1501.0, 1500.0, 1501.0, 1502.0, 1505.0, 1506.0, 1508.0, 1511.0, 1512.0, 1512.0, 1512.0, 1511.0, 1510.0, 1512.0, 1513.0, 1514.0, 1513.0, 1512.0, 1513.0, 1513.0, 1513.0, 1513.0, 1512.0, 1513.0, 1514.0, 1518.0, 1518.0, 1525.0, 1522.0, 1514.0, 1509.0, 1503.0, 1500.0, 1504.0, 1507.0, 1508.0, 1513.0, 1509.0, 1506.0, 1504.0, 1505.0, 1506.0, 1513.0]
    },
    "slices": {}
  }
}