{
  "AcquisitionMatrixPE": 72,
  "AcquisitionNumber": 1,
  "AcquisitionTime": "19:07:19.792500",
  "BandwidthPerPixelPhaseEncode": 17.943,
  "BaseResolution": 96,
  "BodyPartExamined": "BRAIN",
  "CoilCombinationMethod": "Sum of Squares",
  "ConsistencyInfo": "N4_VE11C_LATEST_20160120",
  "ConversionSoftware": "dcm2niix",
  "ConversionSoftwareVersion": "v1.0.20211006",
  "DerivedVendorReportedEchoSpacing": 0.000552897,
  "DeviceSerialNumber": "166011",
  "EchoTime": 0.03,
  "EchoTrainLength": 58,
  "EffectiveEchoSpacing": 0.000580542,
  "FlipAngle": 62,
  "ImageOrientationPatientDICOM": [0.997759, -0.00788598, 0.0664503, 0.016545, 0.991273, -0.130786],
  "ImageType": [
    "ORIGINAL",
    "PRIMARY",
    "M",
    "ND",
    "MOSAIC"
],
  "ImagingFrequency": 123.26,
  "InPlanePhaseEncodingDirectionDICOM": "COL",
  "InstitutionAddress": "West 130th Street 610,NY,NYC,US,10025",
  "InstitutionName": "MBBI",
  "MRAcquisitionType": "2D",
  "MagneticFieldStrength": 3,
  "Manufacturer": "Siemens",
  "ManufacturersModelName": "Prisma",
  "Modality": "MR",
  "MultibandAccelerationFactor": 3,
  "PartialFourier": 0.75,
  "PatientPosition": "HFS",
  "PercentPhaseFOV": 100,
  "PercentSampling": 75,
  "PhaseEncodingDirection": "j-",
  "PhaseEncodingSteps": 58,
  "PhaseOversampling": 0.05,
  "PhaseResolution": 0.75,
  "PixelBandwidth": 2265,
  "ProcedureStepDescription": "White^Word_recognition",
  "ProtocolName": "func_catLoc_run4",
  "PulseSequenceDetails": "%SiemensSeq%\\ep2d_bold",
  "ReceiveCoilActiveElements": "HC1-7",
  "ReceiveCoilName": "HeadNeck_64",
  "ReconMatrixPE": 96,
  "RefLinesPE": 40,
  "RepetitionTime": 1.5,
  "SAR": 0.0427897,
  "ScanOptions": "PFP\\FS",
  "ScanningSequence": "EP",
  "SequenceName": "*epfid2d1_72",
  "SequenceVariant": "SK\\OSP",
  "SeriesDescription": "func_catLoc_run4",
  "SeriesNumber": 13,
  "ShimSetting": [-1132, -1375, 673, 597, -69, 23, -91, -40],
  "SliceThickness": 2,
  "SliceTiming": [1.075, 0, 0.74, 0.0675, 0.8075, 0.135, 0.875, 0.2, 0.94, 0.2675, 1.0075, 0.4025, 1.1425, 0.47, 1.21, 0.5375, 1.2775, 0.605, 1.345, 0.6725, 1.4125, 0.335, 1.075, 0, 0.74, 0.0675, 0.8075, 0.135, 0.875, 0.2, 0.94, 0.2675, 1.0075, 0.4025, 1.1425, 0.47, 1.21, 0.5375, 1.2775, 0.605, 1.345, 0.6725, 1.4125, 0.335, 1.075, 0, 0.74, 0.0675, 0.8075, 0.135, 0.875, 0.2, 0.94, 0.2675, 1.0075, 0.4025, 1.1425, 0.47, 1.21, 0.5375, 1.2775, 0.605, 1.345, 0.6725, 1.4125, 0.335],
  "SoftwareVersions": "syngo MR E11",
  "SpacingBetweenSlices": 2,
  "StationName": "AWP166011",
  "TaskName": "catLoc",
  "TotalReadoutTime": 0.0551515,
  "TxRefAmp": 216.195,
  "dcmmeta_affine": [
    [-1.9955171346664429, 0.033089958131313324, 0.1296779364347458, 95.30524444580078],
    [0.01577196642756462, 1.982545256614685, -0.2631836235523224, -70.84117889404297],
    [0.13290055096149445, 0.26157107949256897, 1.9783625602722168, -80.67530822753906],
    [0.0, 0.0, 0.0, 1.0]
],
  "dcmmeta_reorient_transform": [
    [0.0, -1.0, 0.0, 95.0],
    [1.0, 0.0, 0.0, 0.0],
    [0.0, 0.0, 1.0, 0.0],
    [0.0, 0.0, 0.0, 1.0]
],
  "dcmmeta_shape": [96, 96, 66, 214],
  "dcmmeta_slice_dim": 2,
  "dcmmeta_version": 0.6,
  "global": {
    "const": {
      "AcquisitionMatrix": [96, 0, 0, 72],
      "AngioFlag": "N",
      "BitsAllocated": 16,
      "BitsStored": 12,
      "BodyPartExamined": "BRAIN",
      "Columns": 864,
      "EchoNumbers": 1,
      "EchoTime": 30.0,
      "EchoTrainLength": 58,
      "FlipAngle": 62.0,
      "HighBit": 11,
      "ImageOrientationPatient": [0.99775857389171, -0.0078859830859, 0.06645027837673, 0.01654497895572, 0.99127261960221, -0.1307855393319],
      "ImagePositionPatient": [-877.43391939849, -872.74155298881, -6.416573762041],
      "ImageType": [
        "ORIGINAL",
        "PRIMARY",
        "M",
        "ND",
        "MOSAIC"
],
      "ImagedNucleus": "1H",
      "ImagingFrequency": 123.259543,
      "InPlanePhaseEncodingDirection": "COL",
      "MRAcquisitionType": "2D",
      "MagneticFieldStrength": 3.0,
      "Manufacturer": "SIEMENS",
      "ManufacturerModelName": "Prisma",
      "Modality": "MR",
      "NumberOfAverages": 1.0,
      "NumberOfPhaseEncodingSteps": 58,
      "PercentPhaseFieldOfView": 100.0,
      "PercentSampling": 75.0,
      "PerformedProcedureStepStartTime": "181558.666000",
      "PhotometricInterpretation": "MONOCHROME2",
      "PixelBandwidth": 2265.0,
      "PixelRepresentation": 0,
      "PixelSpacing": [2.0, 2.0],
      "ProtocolName": "func_catLoc_run4",
      "RepetitionTime": 1500.0,
      "Rows": 864,
      "SAR": 0.04278974196706,
      "SamplesPerPixel": 1,
      "ScanOptions": [
        "PFP",
        "FS"
],
      "ScanningSequence": "EP",
      "SequenceName": "*epfid2d1_72",
      "SequenceVariant": [
        "SK",
        "OSP"
],
      "SeriesDescription": "func_catLoc_run4",
      "SeriesNumber": 13,
      "SeriesTime": "190722.616000",
      "SliceLocation": -64.300885720631,
      "SliceThickness": 2.0,
      "SmallestImagePixelValue": 0,
      "SoftwareVersions": "syngo MR E11",
      "SpacingBetweenSlices": 2.0000000502021,
      "SpecificCharacterSet": "ISO_IR 100",
      "StudyID": "2",
      "StudyTime": "181558.613000",
      "TransmitCoilName": "Body",
      "VariableFlipAngleFlag": "N",
      "WindowCenterWidthExplanation": "Algo1",
      "dBdt": 0.0},
    "slices": {}
  },
  "time": {
    "samples": {
      "AcquisitionNumber": [1, 2, 3, 4, 5, 6, 7, 8, 9, 10, 11, 12, 13, 14, 15, 16, 17, 18, 19, 20, 21, 22, 23, 24, 25, 26, 27, 28, 29, 30, 31, 32, 33, 34, 35, 36, 37, 38, 39, 40, 41, 42, 43, 44, 45, 46, 47, 48, 49, 50, 51, 52, 53, 54, 55, 56, 57, 58, 59, 60, 61, 62, 63, 64, 65, 66, 67, 68, 69, 70, 71, 72, 73, 74, 75, 76, 77, 78, 79, 80, 81, 82, 83, 84, 85, 86, 87, 88, 89, 90, 91, 92, 93, 94, 95, 96, 97, 98, 99, 100, 101, 102, 103, 104, 105, 106, 107, 108, 109, 110, 111, 112, 113, 114, 115, 116, 117, 118, 119, 120, 121, 122, 123, 124, 125, 126, 127, 128, 129, 130, 131, 132, 133, 134, 135, 136, 137, 138, 139, 140, 141, 142, 143, 144, 145, 146, 147, 148, 149, 150, 151, 152, 153, 154, 155, 156, 157, 158, 159, 160, 161, 162, 163, 164, 165, 166, 167, 168, 169, 170, 171, 172, 173, 174, 175, 176, 177, 178, 179, 180, 181, 182, 183, 184, 185, 186, 187, 188, 189, 190, 191, 192, 193, 194, 195, 196, 197, 198, 199, 200, 201, 202, 203, 204, 205, 206, 207, 208, 209, 210, 211, 212, 213, 214],
      "AcquisitionTime": ["190719.792500", "190721.292500", "190722.792500", "190724.292500", "190725.792500", "190727.292500", "190728.792500", "190730.292500", "190731.792500", "190733.292500", "190734.792500", "190736.292500", "190737.792500", "190739.292500", "190740.792500", "190742.292500", "190743.792500", "190745.292500", "190746.792500", "190748.292500", "190749.792500", "190751.292500", "190752.792500", "190754.292500", "190755.792500", "190757.292500", "190758.792500", "190800.292500", "190801.792500", "190803.292500", "190804.792500", "190806.292500", "190807.792500", "190809.292500", "190810.792500", "190812.292500", "190813.792500", "190815.292500", "190816.792500", "190818.292500", "190819.792500", "190821.292500", "190822.792500", "190824.292500", "190825.792500", "190827.292500", "190828.792500", "190830.292500", "190831.792500", "190833.292500", "190834.792500", "190836.292500", "190837.792500", "190839.292500", "190840.792500", "190842.292500", "190843.792500", "190845.292500", "190846.792500", "190848.292500", "190849.792500", "190851.292500", "190852.792500", "190854.292500", "190855.792500", "190857.292500", "190858.792500", "190900.292500", "190901.792500", "190903.292500", "190904.792500", "190906.292500", "190907.792500", "190909.292500", "190910.792500", "190912.292500", "190913.792500", "190915.292500", "190916.792500", "190918.292500", "190919.792500", "190921.292500", "190922.792500", "190924.292500", "190925.792500", "190927.292500", "190928.792500", "190930.292500", "190931.792500", "190933.292500", "190934.792500", "190936.292500", "190937.792500", "190939.292500", "190940.792500", "190942.292500", "190943.792500", "190945.292500", "190946.792500", "190948.292500", "190949.792500", "190951.292500", "190952.792500", "190954.292500", "190955.792500", "190957.292500", "190958.792500", "191000.292500", "191001.792500", "191003.292500", "191004.792500", "191006.292500", "191007.792500", "191009.292500", "191010.792500", "191012.292500", "191013.792500", "191015.292500", "191016.792500", "191018.292500", "191019.792500", "191021.292500", "191022.792500", "191024.292500", "191025.792500", "191027.292500", "191028.792500", "191030.292500", "191031.792500", "191033.292500", "191034.792500", "191036.292500", "191037.792500", "191039.292500", "191040.792500", "191042.292500", "191043.792500", "191045.292500", "191046.792500", "191048.292500", "191049.792500", "191051.292500", "191052.792500", "191054.292500", "191055.792500", "191057.292500", "191058.792500", "191100.292500", "191101.792500", "191103.292500", "191104.792500", "191106.292500", "191107.792500", "191109.292500", "191110.792500", "191112.292500", "191113.792500", "191115.292500", "191116.792500", "191118.292500", "191119.792500", "191121.292500", "191122.792500", "191124.292500", "191125.792500", "191127.292500", "191128.792500", "191130.292500", "191131.792500", "191133.292500", "191134.792500", "191136.292500", "191137.792500", "191139.292500", "191140.792500", "191142.292500", "191143.792500", "191145.292500", "191146.792500", "191148.292500", "191149.792500", "191151.292500", "191152.792500", "191154.292500", "191155.792500", "191157.292500", "191158.792500", "191200.292500", "191201.792500", "191203.292500", "191204.792500", "191206.292500", "191207.792500", "191209.292500", "191210.792500", "191212.292500", "191213.792500", "191215.292500", "191216.792500", "191218.292500", "191219.792500", "191221.292500", "191222.792500", "191224.292500", "191225.792500", "191227.292500", "191228.792500", "191230.292500", "191231.792500", "191233.292500", "191234.792500", "191236.292500", "191237.792500", "191239.292500"],
      "ContentTime": ["190722.620000", "190722.624000", "190802.615000", "190802.618000", "190802.626000", "190802.629000", "190802.637000", "190802.640000", "190802.644000", "190802.647000", "190802.650000", "190802.653000", "190802.656000", "190802.659000", "190802.662000", "190802.665000", "190802.668000", "190802.671000", "190802.674000", "190802.679000", "190802.682000", "190802.685000", "190802.688000", "190802.691000", "190802.695000", "190802.698000", "190802.701000", "190802.704000", "190842.615000", "190842.618000", "190842.621000", "190842.624000", "190842.627000", "190842.630000", "190842.634000", "190842.637000", "190842.640000", "190842.643000", "190842.646000", "190842.649000", "190842.652000", "190842.655000", "190842.658000", "190842.671000", "190842.674000", "190842.677000", "190842.680000", "190842.683000", "190842.686000", "190842.689000", "190842.692000", "190842.695000", "190842.698000", "190842.701000", "190842.704000", "190922.615000", "190922.618000", "190922.621000", "190922.624000", "190922.627000", "190922.631000", "190922.633000", "190922.637000", "190922.640000", "190922.643000", "190922.646000", "190922.649000", "190922.652000", "190922.655000", "190922.658000", "190922.661000", "190922.664000", "190922.667000", "190922.670000", "190922.673000", "190922.676000", "190922.679000", "190922.682000", "190922.685000", "190922.688000", "190922.691000", "190922.694000", "191002.615000", "191002.618000", "191002.621000", "191002.625000", "191002.628000", "191002.647000", "191002.650000", "191002.653000", "191002.656000", "191002.659000", "191002.663000", "191002.666000", "191002.669000", "191002.672000", "191002.675000", "191002.678000", "191002.681000", "191002.684000", "191002.687000", "191002.690000", "191002.693000", "191002.696000", "191002.699000", "191002.702000", "191002.705000", "191002.708000", "191042.615000", "191042.618000", "191042.621000", "191042.624000", "191042.628000", "191042.630000", "191042.634000", "191042.637000", "191042.640000", "191042.643000", "191042.646000", "191042.649000", "191042.652000", "191042.655000", "191042.658000", "191042.661000", "191042.664000", "191042.667000", "191042.670000", "191042.673000", "191042.676000", "191042.679000", "191042.682000", "191042.685000", "191042.688000", "191042.691000", "191042.694000", "191122.615000", "191122.619000", "191122.622000", "191122.625000", "191122.628000", "191122.631000", "191122.634000", "191122.637000", "191122.640000", "191122.643000", "191122.646000", "191122.649000", "191122.652000", "191122.656000", "191122.659000", "191122.662000", "191122.665000", "191122.668000", "191122.671000", "191122.674000", "191122.677000", "191122.680000", "191122.683000", "191122.686000", "191122.689000", "191122.692000", "191122.695000", "191202.615000", "191202.618000", "191202.621000", "191202.624000", "191202.627000", "191202.630000", "191202.634000", "191202.637000", "191202.640000", "191202.643000", "191202.646000", "191202.649000", "191202.652000", "191202.655000", "191202.658000", "191202.661000", "191202.664000", "191202.667000", "191202.670000", "191202.673000", "191202.676000", "191202.679000", "191202.683000", "191202.686000", "191202.689000", "191202.692000", "191240.279000", "191240.283000", "191240.286000", "191240.290000", "191240.293000", "191240.296000", "191240.300000", "191240.303000", "191240.306000", "191240.309000", "191240.313000", "191240.316000", "191240.319000", "191240.323000", "191240.326000", "191240.329000", "191240.333000", "191240.336000", "191240.339000", "191240.342000", "191240.347000", "191240.350000", "191240.353000", "191240.356000", "191240.359000", "191240.362000"],
      "InstanceCreationTime": ["190722.620000", "190722.624000", "190802.615000", "190802.618000", "190802.626000", "190802.629000", "190802.637000", "190802.640000", "190802.644000", "190802.647000", "190802.650000", "190802.653000", "190802.656000", "190802.659000", "190802.662000", "190802.665000", "190802.668000", "190802.671000", "190802.674000", "190802.679000", "190802.682000", "190802.685000", "190802.688000", "190802.691000", "190802.695000", "190802.698000", "190802.701000", "190802.704000", "190842.615000", "190842.618000", "190842.621000", "190842.624000", "190842.627000", "190842.630000", "190842.634000", "190842.637000", "190842.640000", "190842.643000", "190842.646000", "190842.649000", "190842.652000", "190842.655000", "190842.658000", "190842.671000", "190842.674000", "190842.677000", "190842.680000", "190842.683000", "190842.686000", "190842.689000", "190842.692000", "190842.695000", "190842.698000", "190842.701000", "190842.704000", "190922.615000", "190922.618000", "190922.621000", "190922.624000", "190922.627000", "190922.631000", "190922.633000", "190922.637000", "190922.640000", "190922.643000", "190922.646000", "190922.649000", "190922.652000", "190922.655000", "190922.658000", "190922.661000", "190922.664000", "190922.667000", "190922.670000", "190922.673000", "190922.676000", "190922.679000", "190922.682000", "190922.685000", "190922.688000", "190922.691000", "190922.694000", "191002.615000", "191002.618000", "191002.621000", "191002.625000", "191002.628000", "191002.647000", "191002.650000", "191002.653000", "191002.656000", "191002.659000", "191002.663000", "191002.666000", "191002.669000", "191002.672000", "191002.675000", "191002.678000", "191002.681000", "191002.684000", "191002.687000", "191002.690000", "191002.693000", "191002.696000", "191002.699000", "191002.702000", "191002.705000", "191002.708000", "191042.615000", "191042.618000", "191042.621000", "191042.624000", "191042.628000", "191042.630000", "191042.634000", "191042.637000", "191042.640000", "191042.643000", "191042.646000", "191042.649000", "191042.652000", "191042.655000", "191042.658000", "191042.661000", "191042.664000", "191042.667000", "191042.670000", "191042.673000", "191042.676000", "191042.679000", "191042.682000", "191042.685000", "191042.688000", "191042.691000", "191042.694000", "191122.615000", "191122.619000", "191122.622000", "191122.625000", "191122.628000", "191122.631000", "191122.634000", "191122.637000", "191122.640000", "191122.643000", "191122.646000", "191122.649000", "191122.652000", "191122.656000", "191122.659000", "191122.662000", "191122.665000", "191122.668000", "191122.671000", "191122.674000", "191122.677000", "191122.680000", "191122.683000", "191122.686000", "191122.689000", "191122.692000", "191122.695000", "191202.615000", "191202.618000", "191202.621000", "191202.624000", "191202.627000", "191202.630000", "191202.634000", "191202.637000", "191202.640000", "191202.643000", "191202.646000", "191202.649000", "191202.652000", "191202.655000", "191202.658000", "191202.661000", "191202.664000", "191202.667000", "191202.670000", "191202.673000", "191202.676000", "191202.679000", "191202.683000", "191202.686000", "191202.689000", "191202.692000", "191240.279000", "191240.283000", "191240.286000", "191240.290000", "191240.293000", "191240.296000", "191240.300000", "191240.303000", "191240.306000", "191240.309000", "191240.313000", "191240.316000", "191240.319000", "191240.323000", "191240.326000", "191240.329000", "191240.333000", "191240.336000", "191240.339000", "191240.342000", "191240.347000", "191240.350000", "191240.353000", "191240.356000", "191240.359000", "191240.362000"],
      "InstanceNumber": [1, 2, 3, 4, 5, 6, 7, 8, 9, 10, 11, 12, 13, 14, 15, 16, 17, 18, 19, 20, 21, 22, 23, 24, 25, 26, 27, 28, 29, 30, 31, 32, 33, 34, 35, 36, 37, 38, 39, 40, 41, 42, 43, 44, 45, 46, 47, 48, 49, 50, 51, 52, 53, 54, 55, 56, 57, 58, 59, 60, 61, 62, 63, 64, 65, 66, 67, 68, 69, 70, 71, 72, 73, 74, 75, 76, 77, 78, 79, 80, 81, 82, 83, 84, 85, 86, 87, 88, 89, 90, 91, 92, 93, 94, 95, 96, 97, 98, 99, 100, 101, 102, 103, 104, 105, 106, 107, 108, 109, 110, 111, 112, 113, 114, 115, 116, 117, 118, 119, 120, 121, 122, 123, 124, 125, 126, 127, 128, 129, 130, 131, 132, 133, 134, 135, 136, 137, 138, 139, 140, 141, 142, 143, 144, 145, 146, 147, 148, 149, 150, 151, 152, 153, 154, 155, 156, 157, 158, 159, 160, 161, 162, 163, 164, 165, 166, 167, 168, 169, 170, 171, 172, 173, 174, 175, 176, 177, 178, 179, 180, 181, 182, 183, 184, 185, 186, 187, 188, 189, 190, 191, 192, 193, 194, 195, 196, 197, 198, 199, 200, 201, 202, 203, 204, 205, 206, 207, 208, 209, 210, 211, 212, 213, 214],
      "LargestImagePixelValue": [2509, 2434, 2388, 2403, 2405, 2374, 2392, 2390, 2391, 2455, 2486, 2403, 2446, 2449, 2440, 2420, 2431, 2433, 2446, 2424, 2439, 2439, 2434, 2423, 2420, 2415, 2429, 2424, 2416, 2411, 2434, 2417, 2440, 2448, 2427, 2396, 2418, 2435, 2454, 2416, 2438, 2442, 2439, 2428, 2433, 2457, 2433, 2447, 2439, 2436, 2432, 2429, 2428, 2414, 2411, 2440, 2418, 2431, 2408, 2429, 2374, 2408, 2391, 2423, 2409, 2419, 2397, 2405, 2399, 2414, 2383, 2404, 2388, 2447, 2394, 2406, 2402, 2385, 2416, 2409, 2417, 2403, 2419, 2399, 2421, 2400, 2427, 2395, 2397, 2404, 2375, 2397, 2405, 2402, 2397, 2410, 2417, 2427, 2416, 2411, 2411, 2379, 2413, 2339, 2294, 2274, 2324, 2309, 2300, 2307, 2304, 2314, 2326, 2308, 2309, 2306, 2296, 2303, 2323, 2299, 2334, 2307, 2309, 2349, 2337, 2341, 2320, 2333, 2326, 2329, 2288, 2357, 2318, 2354, 2323, 2374, 2332, 2328, 2342, 2327, 2310, 2338, 2328, 2318, 2324, 2315, 2351, 2327, 2314, 2305, 2331, 2303, 2306, 2321, 2301, 2310, 2328, 2322, 2292, 2316, 2331, 2307, 2328, 2290, 2291, 2280, 2293, 2288, 2330, 2301, 2309, 2331, 2299, 2299, 2364, 2416, 2405, 2392, 2386, 2354, 2334, 2349, 2385, 2355, 2332, 2318, 2331, 2331, 2311, 2315, 2350, 2313, 2309, 2312, 2289, 2316, 2313, 2298, 2311, 2314, 2309, 2329, 2310, 2279, 2271, 2302, 2281, 2300, 2275, 2280, 2293, 2288, 2291, 2469],
      "WindowCenter": [708.0, 705.0, 703.0, 703.0, 704.0, 704.0, 704.0, 704.0, 704.0, 703.0, 706.0, 706.0, 707.0, 707.0, 705.0, 704.0, 704.0, 704.0, 706.0, 706.0, 706.0, 705.0, 705.0, 704.0, 705.0, 705.0, 705.0, 705.0, 705.0, 704.0, 705.0, 705.0, 705.0, 706.0, 705.0, 705.0, 705.0, 706.0, 707.0, 706.0, 707.0, 706.0, 706.0, 705.0, 705.0, 706.0, 705.0, 704.0, 704.0, 704.0, 704.0, 704.0, 704.0, 705.0, 704.0, 704.0, 704.0, 704.0, 705.0, 707.0, 708.0, 707.0, 705.0, 704.0, 704.0, 705.0, 706.0, 706.0, 705.0, 705.0, 704.0, 704.0, 704.0, 705.0, 707.0, 707.0, 706.0, 705.0, 704.0, 703.0, 704.0, 704.0, 705.0, 706.0, 706.0, 705.0, 704.0, 704.0, 705.0, 704.0, 705.0, 706.0, 705.0, 704.0, 703.0, 703.0, 703.0, 704.0, 704.0, 705.0, 705.0, 705.0, 705.0, 706.0, 706.0, 704.0, 703.0, 701.0, 699.0, 699.0, 699.0, 699.0, 699.0, 699.0, 700.0, 701.0, 701.0, 705.0, 706.0, 706.0, 705.0, 704.0, 704.0, 705.0, 707.0, 707.0, 706.0, 705.0, 705.0, 705.0, 706.0, 708.0, 707.0, 706.0, 706.0, 706.0, 706.0, 706.0, 706.0, 706.0, 707.0, 707.0, 707.0, 706.0, 706.0, 706.0, 707.0, 707.0, 706.0, 705.0, 705.0, 705.0, 705.0, 706.0, 705.0, 705.0, 705.0, 705.0, 705.0, 706.0, 707.0, 707.0, 707.0, 706.0, 706.0, 705.0, 705.0, 705.0, 707.0, 707.0, 707.0, 707.0, 706.0, 706.0, 706.0, 706.0, 706.0, 708.0, 708.0, 707.0, 705.0, 704.0, 704.0, 705.0, 705.0, 705.0, 706.0, 705.0, 705.0, 705.0, 706.0, 706.0, 706.0, 706.0, 705.0, 705.0, 705.0, 705.0, 705.0, 705.0, 705.0, 705.0, 705.0, 705.0, 705.0, 705.0, 704.0, 704.0, 704.0, 706.0, 707.0, 708.0, 707.0, 706.0],
      "WindowWidth": [1522.0, 1515.0, 1510.0, 1509.0, 1510.0, 1510.0, 1511.0, 1511.0, 1511.0, 1508.0, 1516.0, 1516.0, 1519.0, 1517.0, 1514.0, 1511.0, 1512.0, 1512.0, 1515.0, 1516.0, 1516.0, 1514.0, 1513.0, 1512.0, 1512.0, 1515.0, 1514.0, 1514.0, 1513.0, 1511.0, 1512.0, 1513.0, 1515.0, 1516.0, 1515.0, 1512.0, 1514.0, 1517.0, 1518.0, 1515.0, 1517.0, 1516.0, 1516.0, 1514.0, 1514.0, 1516.0, 1514.0, 1512.0, 1510.0, 1509.0, 1512.0, 1512.0, 1512.0, 1513.0, 1511.0, 1511.0, 1511.0, 1512.0, 1514.0, 1518.0, 1522.0, 1520.0, 1515.0, 1512.0, 1511.0, 1513.0, 1516.0, 1516.0, 1514.0, 1512.0, 1511.0, 1511.0, 1511.0, 1515.0, 1518.0, 1518.0, 1517.0, 1513.0, 1511.0, 1508.0, 1510.0, 1511.0, 1515.0, 1515.0, 1516.0, 1514.0, 1511.0, 1511.0, 1512.0, 1512.0, 1514.0, 1517.0, 1514.0, 1511.0, 1508.0, 1509.0, 1509.0, 1511.0, 1512.0, 1513.0, 1513.0, 1513.0, 1513.0, 1517.0, 1515.0, 1510.0, 1507.0, 1502.0, 1498.0, 1497.0, 1497.0, 1497.0, 1497.0, 1498.0, 1500.0, 1502.0, 1505.0, 1513.0, 1518.0, 1516.0, 1514.0, 1510.0, 1512.0, 1515.0, 1520.0, 1518.0, 1515.0, 1514.0, 1514.0, 1514.0, 1517.0, 1520.0, 1518.0, 1516.0, 1515.0, 1516.0, 1515.0, 1516.0, 1516.0, 1517.0, 1519.0, 1519.0, 1518.0, 1516.0, 1516.0, 1515.0, 1520.0, 1518.0, 1516.0, 1513.0, 1512.0, 1513.0, 1514.0, 1515.0, 1514.0, 1514.0, 1513.0, 1513.0, 1513.0, 1517.0, 1519.0, 1518.0, 1518.0, 1517.0, 1515.0, 1514.0, 1514.0, 1514.0, 1518.0, 1519.0, 1519.0, 1520.0, 1517.0, 1517.0, 1517.0, 1516.0, 1516.0, 1520.0, 1520.0, 1518.0, 1513.0, 1511.0, 1512.0, 1513.0, 1514.0, 1515.0, 1516.0, 1513.0, 1513.0, 1514.0, 1516.0, 1516.0, 1516.0, 1515.0, 1514.0, 1515.0, 1514.0, 1514.0, 1514.0, 1514.0, 1513.0, 1512.0, 1512.0, 1514.0, 1515.0, 1514.0, 1512.0, 1511.0, 1511.0, 1516.0, 1520.0, 1521.0, 1519.0, 1516.0]
    },
    "slices": {}
  }
}