{
  "AcquisitionMatrixPE": 70,
  "AcquisitionNumber": 1,
  "AcquisitionTime": "18:53:45.787500",
  "BaseResolution": 70,
  "BodyPartExamined": "BRAIN",
  "CoilCombinationMethod": "Sum of Squares",
  "ConsistencyInfo": "N4_VE11C_LATEST_20160120",
  "ConversionSoftware": "dcm2niix",
  "ConversionSoftwareVersion": "v1.0.20211006",
  "DeviceSerialNumber": "166011",
  "EchoNumber": 2,
  "EchoTime": 0.00738,
  "EchoTime1": 0.00492,
  "EchoTime2": 0.00738,
  "FlipAngle": 60,
  "ImageOrientationPatientDICOM": [
    0.999874,
    -0.00961446,
    0.0126646,
    0.0118673,
    0.981336,
    -0.191935
  ],
  "ImageType": [
    "ORIGINAL",
    "PRIMARY",
    "P",
    "ND",
    "PHASE"
  ],
  "ImagingFrequency": 123.26,
  "InPlanePhaseEncodingDirectionDICOM": "ROW",
  "InstitutionAddress": "West 130th Street 610,NY,NYC,US,10025",
  "InstitutionName": "MBBI",
  "IntendedFor": [
    "ses-2/func/sub-163_ses-2_task-catLoc_run-01_bold.nii.gz",
    "ses-2/func/sub-163_ses-2_task-catLoc_run-02_bold.nii.gz",
    "ses-2/func/sub-163_ses-2_task-vwfate_run-01_bold.nii.gz",
    "ses-2/func/sub-163_ses-2_task-vwfate_run-02_bold.nii.gz",
    "ses-2/func/sub-163_ses-2_task-vwfate_run-03_bold.nii.gz",
    "ses-2/func/sub-163_ses-2_task-vwfate_run-04_bold.nii.gz",
    "ses-2/func/sub-163_ses-2_task-vwfate_run-05_bold.nii.gz",
    "ses-2/func/sub-163_ses-2_task-vwfate_run-06_bold.nii.gz"
  ],
  "MRAcquisitionType": "2D",
  "MagneticFieldStrength": 3,
  "Manufacturer": "Siemens",
  "ManufacturersModelName": "Prisma",
  "MatrixCoilMode": "SENSE",
  "Modality": "MR",
  "MultibandAccelerationFactor": 2,
  "PartialFourier": 1,
  "PatientPosition": "HFS",
  "PercentPhaseFOV": 100,
  "PercentSampling": 100,
  "PhaseEncodingDirection": "i",
  "PhaseEncodingSteps": 70,
  "PhaseResolution": 1,
  "PixelBandwidth": 595,
  "ProcedureStepDescription": "White^Word_recognition",
  "ProtocolName": "fmap_gre_field_mapping",
  "PulseSequenceDetails": "%SiemensSeq%\\gre_field_mapping",
  "ReceiveCoilActiveElements": "HC1-7",
  "ReceiveCoilName": "HeadNeck_64",
  "ReconMatrixPE": 70,
  "RepetitionTime": 0.52,
  "SAR": 0.102581,
  "ScanningSequence": "GR",
  "SequenceName": "*fm2d2r",
  "SequenceVariant": "SP",
  "SeriesDescription": "fmap_gre_field_mapping",
  "SeriesNumber": 17,
  "ShimSetting": [
    -1135,
    -1361,
    663,
    589,
    -26,
    9,
    65,
    15
  ],
  "SliceThickness": 3,
  "SliceTiming": [
    0.25,
    0,
    0.26562,
    0.01562,
    0.28125,
    0.01562,
    0.29688,
    0.03125,
    0.3125,
    0.04688,
    0.3125,
    0.0625,
    0.32812,
    0.07812,
    0.34375,
    0.07812,
    0.35938,
    0.09375,
    0.375,
    0.10938,
    0.375,
    0.125,
    0.39062,
    0.14062,
    0.40625,
    0.14062,
    0.42188,
    0.15625,
    0.4375,
    0.17188,
    0.4375,
    0.1875,
    0.45312,
    0.1875,
    0.46875,
    0.20312,
    0.48438,
    0.21875,
    0.48438,
    0.23438,
    0.5,
    0.25
  ],
  "SoftwareVersions": "syngo MR E11",
  "SpacingBetweenSlices": 3,
  "StationName": "AWP166011",
  "TxRefAmp": 231.124,
  "dcmmeta_affine": [
    [
      -2.9996206760406494,
      0.035601887851953506,
      0.03174853324890137,
      105.05341339111328
    ],
    [
      0.02884339541196823,
      2.9440078735351562,
      -0.5761823654174805,
      -63.53532791137695
    ],
    [
      0.03799377381801605,
      0.5758043527603149,
      2.9439773559570312,
      -92.6585464477539
    ],
    [
      0.0,
      0.0,
      0.0,
      1.0
    ]
  ],
  "dcmmeta_reorient_transform": [
    [
      0.0,
      -1.0,
      0.0,
      69.0
    ],
    [
      1.0,
      0.0,
      0.0,
      0.0
    ],
    [
      0.0,
      0.0,
      -1.0,
      41.0
    ],
    [
      0.0,
      0.0,
      0.0,
      1.0
    ]
  ],
  "dcmmeta_shape": [
    70,
    70,
    42
  ],
  "dcmmeta_slice_dim": 2,
  "dcmmeta_version": 0.6,
  "global": {
    "const": {
      "AcquisitionMatrix": [
        0,
        70,
        70,
        0
      ],
      "AcquisitionNumber": 1,
      "AngioFlag": "N",
      "BitsAllocated": 16,
      "BitsStored": 12,
      "BodyPartExamined": "BRAIN",
      "Columns": 70,
      "EchoNumbers": 2,
      "EchoTime": 7.38,
      "EchoTrainLength": 0,
      "FlipAngle": 60.0,
      "HighBit": 11,
      "ImageOrientationPatient": [
        0.99987357710677,
        -0.0096144648913,
        0.01266459113278,
        0.01186729565961,
        0.98133592994509,
        -0.1919347803097
      ],
      "ImageType": [
        "ORIGINAL",
        "PRIMARY",
        "P",
        "ND"
      ],
      "ImagedNucleus": "1H",
      "ImagingFrequency": 123.259558,
      "InPlanePhaseEncodingDirection": "ROW",
      "MRAcquisitionType": "2D",
      "MagneticFieldStrength": 3.0,
      "Manufacturer": "SIEMENS",
      "ManufacturerModelName": "Prisma",
      "Modality": "MR",
      "NumberOfAverages": 1.0,
      "NumberOfPhaseEncodingSteps": 70,
      "PercentPhaseFieldOfView": 100.0,
      "PercentSampling": 100.0,
      "PerformedProcedureStepStartTime": "174347.314000",
      "PhotometricInterpretation": "MONOCHROME2",
      "PixelBandwidth": 595.0,
      "PixelRepresentation": 0,
      "PixelSpacing": [
        3.0,
        3.0
      ],
      "ProtocolName": "fmap_gre_field_mapping",
      "RepetitionTime": 520.0,
      "RescaleIntercept": -4096.0,
      "RescaleSlope": 2.0,
      "RescaleType": "US",
      "Rows": 70,
      "SAR": 0.10258109559132,
      "SamplesPerPixel": 1,
      "ScanningSequence": "GR",
      "SequenceName": "*fm2d2r",
      "SequenceVariant": "SP",
      "SeriesDescription": "fmap_gre_field_mapping",
      "SeriesNumber": 17,
      "SeriesTime": "185458.440000",
      "SliceThickness": 3.0,
      "SoftwareVersions": "syngo MR E11",
      "SpacingBetweenSlices": 3.0,
      "SpecificCharacterSet": "ISO_IR 100",
      "StudyID": "1",
      "StudyTime": "174347.248000",
      "TransmitCoilName": "Body",
      "VariableFlipAngleFlag": "N",
      "WindowCenterWidthExplanation": "Algo1",
      "dBdt": 0.0
    },
    "slices": {
      "AcquisitionTime": [
        "185345.787500",
        "185345.527500",
        "185345.800000",
        "185345.540000",
        "185345.812500",
        "185345.552500",
        "185345.825000",
        "185345.565000",
        "185345.837500",
        "185345.577500",
        "185345.850000",
        "185345.590000",
        "185345.862500",
        "185345.602500",
        "185345.875000",
        "185345.615000",
        "185345.887500",
        "185345.627500",
        "185345.900000",
        "185345.640000",
        "185345.912500",
        "185345.652500",
        "185345.925000",
        "185345.665000",
        "185345.937500",
        "185345.677500",
        "185345.950000",
        "185345.690000",
        "185345.962500",
        "185345.702500",
        "185345.972500",
        "185345.712500",
        "185345.985000",
        "185345.725000",
        "185345.997500",
        "185345.737500",
        "185346.010000",
        "185345.750000",
        "185346.022500",
        "185345.762500",
        "185346.035000",
        "185345.775000"
      ],
      "ContentTime": [
        "185458.496000",
        "185458.444000",
        "185458.498000",
        "185458.451000",
        "185458.500000",
        "185458.453000",
        "185458.502000",
        "185458.455000",
        "185458.504000",
        "185458.457000",
        "185458.506000",
        "185458.460000",
        "185458.508000",
        "185458.462000",
        "185458.511000",
        "185458.464000",
        "185458.513000",
        "185458.466000",
        "185458.515000",
        "185458.468000",
        "185458.517000",
        "185458.470000",
        "185458.519000",
        "185458.473000",
        "185458.521000",
        "185458.475000",
        "185458.523000",
        "185458.477000",
        "185458.525000",
        "185458.479000",
        "185458.527000",
        "185458.483000",
        "185458.529000",
        "185458.485000",
        "185458.532000",
        "185458.487000",
        "185458.534000",
        "185458.489000",
        "185458.536000",
        "185458.491000",
        "185458.538000",
        "185458.494000"
      ],
      "CsaImage.ICE_Dims": [
        "X_2_1_1_1_1_1_22_1_1_1_1_133",
        "X_2_1_1_1_1_1_1_1_1_2_1_133",
        "X_2_1_1_1_1_1_23_1_1_3_1_133",
        "X_2_1_1_1_1_1_2_1_1_4_1_133",
        "X_2_1_1_1_1_1_24_1_1_5_1_133",
        "X_2_1_1_1_1_1_3_1_1_6_1_133",
        "X_2_1_1_1_1_1_25_1_1_7_1_133",
        "X_2_1_1_1_1_1_4_1_1_8_1_133",
        "X_2_1_1_1_1_1_26_1_1_9_1_133",
        "X_2_1_1_1_1_1_5_1_1_10_1_133",
        "X_2_1_1_1_1_1_27_1_1_11_1_133",
        "X_2_1_1_1_1_1_6_1_1_12_1_133",
        "X_2_1_1_1_1_1_28_1_1_13_1_133",
        "X_2_1_1_1_1_1_7_1_1_14_1_133",
        "X_2_1_1_1_1_1_29_1_1_15_1_133",
        "X_2_1_1_1_1_1_8_1_1_16_1_133",
        "X_2_1_1_1_1_1_30_1_1_17_1_133",
        "X_2_1_1_1_1_1_9_1_1_18_1_133",
        "X_2_1_1_1_1_1_31_1_1_19_1_133",
        "X_2_1_1_1_1_1_10_1_1_20_1_133",
        "X_2_1_1_1_1_1_32_1_1_21_1_133",
        "X_2_1_1_1_1_1_11_1_1_22_1_133",
        "X_2_1_1_1_1_1_33_1_1_23_1_133",
        "X_2_1_1_1_1_1_12_1_1_24_1_133",
        "X_2_1_1_1_1_1_34_1_1_25_1_133",
        "X_2_1_1_1_1_1_13_1_1_26_1_133",
        "X_2_1_1_1_1_1_35_1_1_27_1_133",
        "X_2_1_1_1_1_1_14_1_1_28_1_133",
        "X_2_1_1_1_1_1_36_1_1_29_1_133",
        "X_2_1_1_1_1_1_15_1_1_30_1_133",
        "X_2_1_1_1_1_1_37_1_1_31_1_133",
        "X_2_1_1_1_1_1_16_1_1_32_1_133",
        "X_2_1_1_1_1_1_38_1_1_33_1_133",
        "X_2_1_1_1_1_1_17_1_1_34_1_133",
        "X_2_1_1_1_1_1_39_1_1_35_1_133",
        "X_2_1_1_1_1_1_18_1_1_36_1_133",
        "X_2_1_1_1_1_1_40_1_1_37_1_133",
        "X_2_1_1_1_1_1_19_1_1_38_1_133",
        "X_2_1_1_1_1_1_41_1_1_39_1_133",
        "X_2_1_1_1_1_1_20_1_1_40_1_133",
        "X_2_1_1_1_1_1_42_1_1_41_1_133",
        "X_2_1_1_1_1_1_21_1_1_42_1_133"
      ],
      "CsaImage.ProtocolSliceNumber": [
        0,
        1,
        2,
        3,
        4,
        5,
        6,
        7,
        8,
        9,
        10,
        11,
        12,
        13,
        14,
        15,
        16,
        17,
        18,
        19,
        20,
        21,
        22,
        23,
        24,
        25,
        26,
        27,
        28,
        29,
        30,
        31,
        32,
        33,
        34,
        35,
        36,
        37,
        38,
        39,
        40,
        41
      ],
      "CsaImage.SlicePosition_PCS": [
        [
          -107.5099412,
          -139.60121129,
          -52.92807209
        ],
        [
          -107.54168985,
          -139.02502797,
          -49.98409474
        ],
        [
          -107.57343838,
          -138.44884465,
          -47.04011738
        ],
        [
          -107.60518704,
          -137.87266515,
          -44.09613621
        ],
        [
          -107.63693557,
          -137.29648183,
          -41.15215885
        ],
        [
          -107.66868422,
          -136.72029851,
          -38.2081815
        ],
        [
          -107.70043276,
          -136.14411519,
          -35.26420414
        ],
        [
          -107.73218141,
          -135.56793568,
          -32.32022297
        ],
        [
          -107.76393006,
          -134.99175237,
          -29.37624561
        ],
        [
          -107.79567859,
          -134.41556905,
          -26.43226826
        ],
        [
          -107.82742725,
          -133.83938573,
          -23.4882909
        ],
        [
          -107.85917578,
          -133.26320432,
          -20.54431355
        ],
        [
          -107.89092443,
          -132.687021,
          -17.60033619
        ],
        [
          -107.92267308,
          -132.11083959,
          -14.65635884
        ],
        [
          -107.95442162,
          -131.53465627,
          -11.71237957
        ],
        [
          -107.98617027,
          -130.95847485,
          -8.76840222
        ],
        [
          -108.0179188,
          -130.38229154,
          -5.82442295
        ],
        [
          -108.04966746,
          -129.80611012,
          -2.8804456
        ],
        [
          -108.08141599,
          -129.2299268,
          0.06353176
        ],
        [
          -108.11316464,
          -128.65374539,
          3.00751007
        ],
        [
          -108.14491329,
          -128.07756207,
          5.95148838
        ],
        [
          -108.17666183,
          -127.50138066,
          8.89546573
        ],
        [
          -108.20841048,
          -126.92519734,
          11.83944404
        ],
        [
          -108.24015901,
          -126.34901593,
          14.78342188
        ],
        [
          -108.27190755,
          -125.77283261,
          17.72739971
        ],
        [
          -108.30365632,
          -125.1966512,
          20.67137754
        ],
        [
          -108.33540485,
          -124.62046788,
          23.61535538
        ],
        [
          -108.36715338,
          -124.04428647,
          26.55933321
        ],
        [
          -108.39890216,
          -123.46810315,
          29.50331104
        ],
        [
          -108.43065069,
          -122.89191983,
          32.44728935
        ],
        [
          -108.46239922,
          -122.31573842,
          35.39126766
        ],
        [
          -108.49414776,
          -121.7395551,
          38.33524502
        ],
        [
          -108.52589653,
          -121.16337369,
          41.27922237
        ],
        [
          -108.55764506,
          -120.58719037,
          44.22320164
        ],
        [
          -108.58939359,
          -120.01100896,
          47.16717899
        ],
        [
          -108.62114237,
          -119.43482564,
          50.11115635
        ],
        [
          -108.6528909,
          -118.85864423,
          53.05513561
        ],
        [
          -108.68463943,
          -118.28246091,
          55.99911297
        ],
        [
          -108.7163882,
          -117.70627854,
          58.94309032
        ],
        [
          -108.74813674,
          -117.13009618,
          61.88706768
        ],
        [
          -108.77988527,
          -116.55391381,
          64.83104503
        ],
        [
          -108.8116338,
          -115.97773145,
          67.77502239
        ]
      ],
      "CsaImage.TimeAfterStart": [
        0.7825,
        0.5225,
        0.795,
        0.535,
        0.8075,
        0.5475,
        0.82,
        0.56,
        0.8325,
        0.5725,
        0.845,
        0.585,
        0.8575,
        0.5975,
        0.87,
        0.61,
        0.8825,
        0.6225,
        0.895,
        0.635,
        0.9075,
        0.6475,
        0.92,
        0.66,
        0.9325,
        0.6725,
        0.945,
        0.685,
        0.9575,
        0.6975,
        0.9675,
        0.7075,
        0.98,
        0.72,
        0.9925,
        0.7325,
        1.005,
        0.745,
        1.0175,
        0.7575,
        1.03,
        0.77
      ],
      "ImagePositionPatient": [
        [
          -107.50994119854,
          -139.60121128915,
          -52.928072091991
        ],
        [
          -107.541689851,
          -139.02502797006,
          -49.984094736034
        ],
        [
          -107.57343838424,
          -138.44884465097,
          -47.040117380077
        ],
        [
          -107.6051870367,
          -137.87266514657,
          -44.096136209422
        ],
        [
          -107.63693556995,
          -137.29648182748,
          -41.152158853465
        ],
        [
          -107.66868422241,
          -136.72029850839,
          -38.208181497508
        ],
        [
          -107.70043275566,
          -136.1441151893,
          -35.264204141551
        ],
        [
          -107.73218140812,
          -135.5679356849,
          -32.320222970897
        ],
        [
          -107.76393006058,
          -134.99175236581,
          -29.37624561494
        ],
        [
          -107.79567859382,
          -134.41556904672,
          -26.432268258983
        ],
        [
          -107.82742724628,
          -133.83938572763,
          -23.488290903026
        ],
        [
          -107.85917577953,
          -133.26320431588,
          -20.544313547069
        ],
        [
          -107.89092443199,
          -132.68702099679,
          -17.600336191112
        ],
        [
          -107.92267308445,
          -132.11083958505,
          -14.656358835155
        ],
        [
          -107.9544216177,
          -131.53465626596,
          -11.712379571849
        ],
        [
          -107.98617027015,
          -130.95847485421,
          -8.7684022158921
        ],
        [
          -108.0179188034,
          -130.38229153512,
          -5.8244229525865
        ],
        [
          -108.04966745586,
          -129.80611012338,
          -2.8804455966294
        ],
        [
          -108.08141598911,
          -129.22992680429,
          0.06353175932761
        ],
        [
          -108.11316464157,
          -128.65374539254,
          3.007510068959
        ],
        [
          -108.14491329403,
          -128.07756207345,
          5.9514883785903
        ],
        [
          -108.17666182728,
          -127.50138066171,
          8.8954657345473
        ],
        [
          -108.20841047973,
          -126.92519734262,
          11.839444044179
        ],
        [
          -108.24015901298,
          -126.34901593087,
          14.783421876973
        ],
        [
          -108.27190754623,
          -125.77283261178,
          17.727399709767
        ],
        [
          -108.3036563179,
          -125.19665120004,
          20.671377542561
        ],
        [
          -108.33540485115,
          -124.62046788095,
          23.615355375355
        ],
        [
          -108.3671533844,
          -124.0442864692,
          26.55933320815
        ],
        [
          -108.39890215606,
          -123.46810315011,
          29.503311040944
        ],
        [
          -108.43065068931,
          -122.89191983102,
          32.447289350575
        ],
        [
          -108.46239922256,
          -122.31573841928,
          35.391267660207
        ],
        [
          -108.49414775581,
          -121.73955510018,
          38.335245016164
        ],
        [
          -108.52589652748,
          -121.16337368844,
          41.279222372121
        ],
        [
          -108.55764506073,
          -120.58719036935,
          44.223201635426
        ],
        [
          -108.58939359398,
          -120.01100895761,
          47.167178991383
        ],
        [
          -108.62114236564,
          -119.43482563851,
          50.11115634734
        ],
        [
          -108.65289089889,
          -118.85864422677,
          53.055135610646
        ],
        [
          -108.68463943214,
          -118.28246090768,
          55.999112966603
        ],
        [
          -108.71638820381,
          -117.70627854226,
          58.94309032256
        ],
        [
          -108.74813673706,
          -117.13009617684,
          61.887067678517
        ],
        [
          -108.77988527031,
          -116.55391381143,
          64.831045034474
        ],
        [
          -108.81163380356,
          -115.97773144601,
          67.775022390431
        ]
      ],
      "InstanceCreationTime": [
        "185458.496000",
        "185458.444000",
        "185458.498000",
        "185458.451000",
        "185458.500000",
        "185458.453000",
        "185458.502000",
        "185458.455000",
        "185458.504000",
        "185458.457000",
        "185458.506000",
        "185458.460000",
        "185458.508000",
        "185458.462000",
        "185458.511000",
        "185458.464000",
        "185458.513000",
        "185458.466000",
        "185458.515000",
        "185458.468000",
        "185458.517000",
        "185458.470000",
        "185458.519000",
        "185458.473000",
        "185458.521000",
        "185458.475000",
        "185458.523000",
        "185458.477000",
        "185458.525000",
        "185458.479000",
        "185458.527000",
        "185458.483000",
        "185458.529000",
        "185458.485000",
        "185458.532000",
        "185458.487000",
        "185458.534000",
        "185458.489000",
        "185458.536000",
        "185458.491000",
        "185458.538000",
        "185458.494000"
      ],
      "InstanceNumber": [
        1,
        2,
        3,
        4,
        5,
        6,
        7,
        8,
        9,
        10,
        11,
        12,
        13,
        14,
        15,
        16,
        17,
        18,
        19,
        20,
        21,
        22,
        23,
        24,
        25,
        26,
        27,
        28,
        29,
        30,
        31,
        32,
        33,
        34,
        35,
        36,
        37,
        38,
        39,
        40,
        41,
        42
      ],
      "LargestImagePixelValue": [
        4092,
        4095,
        4095,
        4095,
        4094,
        4093,
        4094,
        4086,
        4092,
        4094,
        4095,
        4084,
        4090,
        4094,
        4091,
        4092,
        4094,
        4073,
        4078,
        4083,
        4092,
        4085,
        4094,
        4071,
        4093,
        4084,
        4091,
        4087,
        4085,
        4087,
        4087,
        4086,
        4095,
        4093,
        4094,
        4089,
        4095,
        4095,
        4095,
        4095,
        4092,
        4095
      ],
      "SliceLocation": [
        -77.613849547005,
        -74.613849902586,
        -71.613850259427,
        -68.6138476042,
        -65.613847961041,
        -62.613848316622,
        -59.613848673463,
        -56.613846018236,
        -53.613846373816,
        -50.613846730658,
        -47.613847086238,
        -44.613847809406,
        -41.613848164987,
        -38.613848886894,
        -35.613847372005,
        -32.613848093912,
        -29.613846579023,
        -26.61384730093,
        -23.613847657771,
        -20.613847443813,
        -17.613846863528,
        -14.613847586696,
        -11.613847006411,
        -8.6138472616471,
        -5.6138471505561,
        -2.6138474032689,
        0.38615270782206,
        3.3861524525861,
        6.3861525662002,
        9.3861531452239,
        12.386153357921,
        15.386153001079,
        18.386152280433,
        21.386153795322,
        24.386153072154,
        27.386152717835,
        30.386153866397,
        33.386153509556,
        36.386152972074,
        39.386152432069,
        42.386151892063,
        45.386151352058
      ],
      "SmallestImagePixelValue": [
        4,
        0,
        2,
        0,
        0,
        5,
        1,
        0,
        10,
        0,
        1,
        12,
        0,
        10,
        34,
        4,
        2,
        1,
        0,
        1,
        3,
        2,
        5,
        4,
        33,
        9,
        3,
        16,
        3,
        4,
        20,
        14,
        6,
        4,
        3,
        12,
        0,
        3,
        2,
        0,
        1,
        0
      ],
      "WindowCenter": [
        -236.0,
        -102.0,
        48.0,
        18.0,
        -98.0,
        -66.0,
        -220.0,
        -184.0,
        -134.0,
        -174.0,
        -216.0,
        -156.0,
        -132.0,
        -128.0,
        -300.0,
        -146.0,
        -258.0,
        -264.0,
        -282.0,
        -240.0,
        -220.0,
        -206.0,
        -200.0,
        -152.0,
        -152.0,
        -144.0,
        -152.0,
        -138.0,
        -142.0,
        -172.0,
        -168.0,
        -184.0,
        -84.0,
        -198.0,
        -114.0,
        -252.0,
        -254.0,
        -140.0,
        -220.0,
        -202.0,
        -210.0,
        -282.0
      ],
      "WindowWidth": [
        5922.0,
        6100.0,
        6242.0,
        6258.0,
        6180.0,
        6120.0,
        5856.0,
        5790.0,
        5806.0,
        5672.0,
        5654.0,
        5562.0,
        5568.0,
        5412.0,
        4644.0,
        5086.0,
        4602.0,
        4594.0,
        4602.0,
        4552.0,
        4534.0,
        4518.0,
        4512.0,
        4478.0,
        4492.0,
        4494.0,
        4514.0,
        4506.0,
        4522.0,
        4546.0,
        4556.0,
        4570.0,
        4998.0,
        4618.0,
        5196.0,
        4688.0,
        4740.0,
        5470.0,
        5702.0,
        5818.0,
        5860.0,
        6062.0
      ]
    }
  }
}