{
  "AcquisitionMatrixPE": 70,
  "AcquisitionNumber": 1,
  "AcquisitionTime": "19:11:6.795000",
  "BaseResolution": 70,
  "BodyPartExamined": "BRAIN",
  "CoilCombinationMethod": "Sum of Squares",
  "ConsistencyInfo": "N4_VE11C_LATEST_20160120",
  "ConversionSoftware": "dcm2niix",
  "ConversionSoftwareVersion": "v1.0.20211006",
  "DeviceSerialNumber": "166011",
  "EchoNumber": 2,
  "EchoTime": 0.00738,
  "EchoTime1": 0.00492,
  "EchoTime2": 0.00738,
  "FlipAngle": 60,
  "ImageOrientationPatientDICOM": [
    0.997582,
    -0.0334884,
    0.0608915,
    0.035185,
    0.999016,
    -0.0270075
  ],
  "ImageType": [
    "ORIGINAL",
    "PRIMARY",
    "P",
    "ND",
    "PHASE"
  ],
  "ImagingFrequency": 123.259,
  "InPlanePhaseEncodingDirectionDICOM": "ROW",
  "InstitutionAddress": "West 130th Street 610,NY,NYC,US,10025",
  "InstitutionName": "MBBI",
  "IntendedFor": [
    "ses-2/func/sub-154_ses-2_task-catLoc_run-01_bold.nii.gz",
    "ses-2/func/sub-154_ses-2_task-catLoc_run-02_bold.nii.gz",
    "ses-2/func/sub-154_ses-2_task-vwfate_run-01_bold.nii.gz",
    "ses-2/func/sub-154_ses-2_task-vwfate_run-02_bold.nii.gz",
    "ses-2/func/sub-154_ses-2_task-vwfate_run-03_bold.nii.gz",
    "ses-2/func/sub-154_ses-2_task-vwfate_run-04_bold.nii.gz",
    "ses-2/func/sub-154_ses-2_task-vwfate_run-05_bold.nii.gz",
    "ses-2/func/sub-154_ses-2_task-vwfate_run-06_bold.nii.gz"
  ],
  "MRAcquisitionType": "2D",
  "MagneticFieldStrength": 3,
  "Manufacturer": "Siemens",
  "ManufacturersModelName": "Prisma",
  "MatrixCoilMode": "SENSE",
  "Modality": "MR",
  "PartialFourier": 1,
  "PatientPosition": "HFS",
  "PercentPhaseFOV": 100,
  "PercentSampling": 100,
  "PhaseEncodingDirection": "i",
  "PhaseEncodingSteps": 70,
  "PhaseResolution": 1,
  "PixelBandwidth": 595,
  "ProcedureStepDescription": "White^Word_recognition",
  "ProtocolName": "fmap_gre_field_mapping",
  "PulseSequenceDetails": "%SiemensSeq%\\gre_field_mapping",
  "ReceiveCoilActiveElements": "HC1-7",
  "ReceiveCoilName": "HeadNeck_64",
  "ReconMatrixPE": 70,
  "RepetitionTime": 0.52,
  "SAR": 0.0900502,
  "ScanningSequence": "GR",
  "SequenceName": "*fm2d2r",
  "SequenceVariant": "SP",
  "SeriesDescription": "fmap_gre_field_mapping",
  "SeriesNumber": 17,
  "ShimSetting": [
    -1132,
    -1353,
    694,
    527,
    -60,
    86,
    -22,
    -10
  ],
  "SliceThickness": 3,
  "SliceTiming": [
    0.26562,
    0,
    0.28125,
    0.01562,
    0.28125,
    0.03125,
    0.29688,
    0.04688,
    0.3125,
    0.04688,
    0.32812,
    0.0625,
    0.34375,
    0.07812,
    0.34375,
    0.09375,
    0.35938,
    0.10938,
    0.375,
    0.10938,
    0.39062,
    0.125,
    0.40625,
    0.14062,
    0.40625,
    0.15625,
    0.42188,
    0.17188,
    0.4375,
    0.17188,
    0.45312,
    0.1875,
    0.46875,
    0.20312,
    0.46875,
    0.21875,
    0.48438,
    0.23438,
    0.5,
    0.23438,
    0.51562,
    0.25
  ],
  "SoftwareVersions": "syngo MR E11",
  "SpacingBetweenSlices": 3,
  "StationName": "AWP166011",
  "TxRefAmp": 228.376,
  "dcmmeta_affine": [
    [
      -2.9927473068237305,
      0.1055549904704094,
      0.17978143692016602,
      101.26941680908203
    ],
    [
      0.10046510398387909,
      2.9970474243164062,
      -0.08725357055664062,
      -87.94292449951172
    ],
    [
      0.18267463147640228,
      0.08102241903543472,
      2.993335723876953,
      -75.62055206298828
    ],
    [
      0.0,
      0.0,
      0.0,
      1.0
    ]
  ],
  "dcmmeta_reorient_transform": [
    [
      0.0,
      -1.0,
      0.0,
      69.0
    ],
    [
      1.0,
      0.0,
      0.0,
      0.0
    ],
    [
      0.0,
      0.0,
      -1.0,
      41.0
    ],
    [
      0.0,
      0.0,
      0.0,
      1.0
    ]
  ],
  "dcmmeta_shape": [
    70,
    70,
    42
  ],
  "dcmmeta_slice_dim": 2,
  "dcmmeta_version": 0.6,
  "global": {
    "const": {
      "AcquisitionMatrix": [
        0,
        70,
        70,
        0
      ],
      "AcquisitionNumber": 1,
      "AngioFlag": "N",
      "BitsAllocated": 16,
      "BitsStored": 12,
      "BodyPartExamined": "BRAIN",
      "Columns": 70,
      "EchoNumbers": 2,
      "EchoTime": 7.38,
      "EchoTrainLength": 0,
      "FlipAngle": 60.0,
      "HighBit": 11,
      "ImageOrientationPatient": [
        0.99758245229716,
        -0.0334883671825,
        0.06089154401251,
        0.0351849968473,
        0.99901582187671,
        -0.0270074737222
      ],
      "ImageType": [
        "ORIGINAL",
        "PRIMARY",
        "P",
        "ND"
      ],
      "ImagedNucleus": "1H",
      "ImagingFrequency": 123.259437,
      "InPlanePhaseEncodingDirection": "ROW",
      "MRAcquisitionType": "2D",
      "MagneticFieldStrength": 3.0,
      "Manufacturer": "SIEMENS",
      "ManufacturerModelName": "Prisma",
      "Modality": "MR",
      "NumberOfAverages": 1.0,
      "NumberOfPhaseEncodingSteps": 70,
      "PercentPhaseFieldOfView": 100.0,
      "PercentSampling": 100.0,
      "PerformedProcedureStepStartTime": "180711.868000",
      "PhotometricInterpretation": "MONOCHROME2",
      "PixelBandwidth": 595.0,
      "PixelRepresentation": 0,
      "PixelSpacing": [
        3.0,
        3.0
      ],
      "ProtocolName": "fmap_gre_field_mapping",
      "RepetitionTime": 520.0,
      "RescaleIntercept": -4096.0,
      "RescaleSlope": 2.0,
      "RescaleType": "US",
      "Rows": 70,
      "SAR": 0.09005022642544,
      "SamplesPerPixel": 1,
      "ScanningSequence": "GR",
      "SequenceName": "*fm2d2r",
      "SequenceVariant": "SP",
      "SeriesDescription": "fmap_gre_field_mapping",
      "SeriesNumber": 17,
      "SeriesTime": "191219.461000",
      "SliceThickness": 3.0,
      "SoftwareVersions": "syngo MR E11",
      "SpacingBetweenSlices": 3.0,
      "SpecificCharacterSet": "ISO_IR 100",
      "StudyID": "2",
      "StudyTime": "180711.816000",
      "TransmitCoilName": "Body",
      "VariableFlipAngleFlag": "N",
      "WindowCenterWidthExplanation": "Algo1",
      "dBdt": 0.0
    },
    "slices": {
      "AcquisitionTime": [
        "191106.795000",
        "191106.535000",
        "191106.807500",
        "191106.547500",
        "191106.820000",
        "191106.560000",
        "191106.832500",
        "191106.572500",
        "191106.845000",
        "191106.585000",
        "191106.857500",
        "191106.597500",
        "191106.870000",
        "191106.610000",
        "191106.882500",
        "191106.622500",
        "191106.895000",
        "191106.635000",
        "191106.907500",
        "191106.647500",
        "191106.920000",
        "191106.660000",
        "191106.932500",
        "191106.672500",
        "191106.945000",
        "191106.685000",
        "191106.957500",
        "191106.697500",
        "191106.970000",
        "191106.710000",
        "191106.982500",
        "191106.722500",
        "191106.995000",
        "191106.735000",
        "191107.007500",
        "191106.747500",
        "191107.017500",
        "191106.760000",
        "191107.030000",
        "191106.770000",
        "191107.042500",
        "191106.782500"
      ],
      "ContentTime": [
        "191219.508000",
        "191219.463000",
        "191219.511000",
        "191219.466000",
        "191219.513000",
        "191219.468000",
        "191219.515000",
        "191219.470000",
        "191219.517000",
        "191219.472000",
        "191219.519000",
        "191219.474000",
        "191219.521000",
        "191219.477000",
        "191219.523000",
        "191219.479000",
        "191219.525000",
        "191219.481000",
        "191219.527000",
        "191219.483000",
        "191219.530000",
        "191219.485000",
        "191219.532000",
        "191219.487000",
        "191219.534000",
        "191219.489000",
        "191219.536000",
        "191219.491000",
        "191219.538000",
        "191219.494000",
        "191219.540000",
        "191219.496000",
        "191219.542000",
        "191219.498000",
        "191219.544000",
        "191219.500000",
        "191219.546000",
        "191219.502000",
        "191219.548000",
        "191219.504000",
        "191219.551000",
        "191219.506000"
      ],
      "CsaImage.ICE_Dims": [
        "X_2_1_1_1_1_1_22_1_1_1_1_249",
        "X_2_1_1_1_1_1_1_1_1_2_1_249",
        "X_2_1_1_1_1_1_23_1_1_3_1_249",
        "X_2_1_1_1_1_1_2_1_1_4_1_249",
        "X_2_1_1_1_1_1_24_1_1_5_1_249",
        "X_2_1_1_1_1_1_3_1_1_6_1_249",
        "X_2_1_1_1_1_1_25_1_1_7_1_249",
        "X_2_1_1_1_1_1_4_1_1_8_1_249",
        "X_2_1_1_1_1_1_26_1_1_9_1_249",
        "X_2_1_1_1_1_1_5_1_1_10_1_249",
        "X_2_1_1_1_1_1_27_1_1_11_1_249",
        "X_2_1_1_1_1_1_6_1_1_12_1_249",
        "X_2_1_1_1_1_1_28_1_1_13_1_249",
        "X_2_1_1_1_1_1_7_1_1_14_1_249",
        "X_2_1_1_1_1_1_29_1_1_15_1_249",
        "X_2_1_1_1_1_1_8_1_1_16_1_249",
        "X_2_1_1_1_1_1_30_1_1_17_1_249",
        "X_2_1_1_1_1_1_9_1_1_18_1_249",
        "X_2_1_1_1_1_1_31_1_1_19_1_249",
        "X_2_1_1_1_1_1_10_1_1_20_1_249",
        "X_2_1_1_1_1_1_32_1_1_21_1_249",
        "X_2_1_1_1_1_1_11_1_1_22_1_249",
        "X_2_1_1_1_1_1_33_1_1_23_1_249",
        "X_2_1_1_1_1_1_12_1_1_24_1_249",
        "X_2_1_1_1_1_1_34_1_1_25_1_249",
        "X_2_1_1_1_1_1_13_1_1_26_1_249",
        "X_2_1_1_1_1_1_35_1_1_27_1_249",
        "X_2_1_1_1_1_1_14_1_1_28_1_249",
        "X_2_1_1_1_1_1_36_1_1_29_1_249",
        "X_2_1_1_1_1_1_15_1_1_30_1_249",
        "X_2_1_1_1_1_1_37_1_1_31_1_249",
        "X_2_1_1_1_1_1_16_1_1_32_1_249",
        "X_2_1_1_1_1_1_38_1_1_33_1_249",
        "X_2_1_1_1_1_1_17_1_1_34_1_249",
        "X_2_1_1_1_1_1_39_1_1_35_1_249",
        "X_2_1_1_1_1_1_18_1_1_36_1_249",
        "X_2_1_1_1_1_1_40_1_1_37_1_249",
        "X_2_1_1_1_1_1_19_1_1_38_1_249",
        "X_2_1_1_1_1_1_41_1_1_39_1_249",
        "X_2_1_1_1_1_1_20_1_1_40_1_249",
        "X_2_1_1_1_1_1_42_1_1_41_1_249",
        "X_2_1_1_1_1_1_21_1_1_42_1_249"
      ],
      "CsaImage.ProtocolSliceNumber": [
        0,
        1,
        2,
        3,
        4,
        5,
        6,
        7,
        8,
        9,
        10,
        11,
        12,
        13,
        14,
        15,
        16,
        17,
        18,
        19,
        20,
        21,
        22,
        23,
        24,
        25,
        26,
        27,
        28,
        29,
        30,
        31,
        32,
        33,
        34,
        35,
        36,
        37,
        38,
        39,
        40,
        41
      ],
      "CsaImage.SlicePosition_PCS": [
        [
          -108.55270774,
          -118.85336515,
          -70.03004875
        ],
        [
          -108.73248926,
          -118.76611158,
          -67.03671303
        ],
        [
          -108.91227082,
          -118.67885801,
          -64.04337731
        ],
        [
          -109.09205234,
          -118.59160444,
          -61.05004158
        ],
        [
          -109.2718339,
          -118.50435087,
          -58.05670204
        ],
        [
          -109.45161546,
          -118.41709539,
          -55.06336632
        ],
        [
          -109.63139689,
          -118.32984182,
          -52.0700306
        ],
        [
          -109.81117845,
          -118.24258825,
          -49.07669106
        ],
        [
          -109.99096001,
          -118.15533468,
          -46.08335533
        ],
        [
          -110.17074156,
          -118.06808111,
          -43.09001961
        ],
        [
          -110.35052312,
          -117.98082563,
          -40.09668007
        ],
        [
          -110.53030456,
          -117.89357206,
          -37.10334435
        ],
        [
          -110.71008623,
          -117.80631849,
          -34.11000862
        ],
        [
          -110.88986767,
          -117.71906492,
          -31.11667099
        ],
        [
          -111.0696491,
          -117.63181135,
          -28.12333527
        ],
        [
          -111.24943078,
          -117.54455587,
          -25.12999764
        ],
        [
          -111.42921222,
          -117.4573023,
          -22.13666191
        ],
        [
          -111.60899389,
          -117.37004873,
          -19.14332428
        ],
        [
          -111.78877533,
          -117.28279516,
          -16.14998761
        ],
        [
          -111.968557,
          -117.19554063,
          -13.15665093
        ],
        [
          -112.14833844,
          -117.10828706,
          -10.16331377
        ],
        [
          -112.32811988,
          -117.02103349,
          -7.16997686
        ],
        [
          -112.50790155,
          -116.93377897,
          -4.17664006
        ],
        [
          -112.68768299,
          -116.8465254,
          -1.18330326
        ],
        [
          -112.86746443,
          -116.75927087,
          1.81003341
        ],
        [
          -113.04724586,
          -116.6720173,
          4.80337009
        ],
        [
          -113.22702778,
          -116.58476373,
          7.79670677
        ],
        [
          -113.40680921,
          -116.49750921,
          10.7900444
        ],
        [
          -113.58659065,
          -116.41025564,
          13.78338012
        ],
        [
          -113.76637209,
          -116.32300111,
          16.77671776
        ],
        [
          -113.946154,
          -116.23574754,
          19.77005539
        ],
        [
          -114.12593544,
          -116.14849397,
          22.76339111
        ],
        [
          -114.30571688,
          -116.06123945,
          25.75672874
        ],
        [
          -114.48549831,
          -115.97398588,
          28.75006447
        ],
        [
          -114.66527975,
          -115.88673135,
          31.74340019
        ],
        [
          -114.84506166,
          -115.79947778,
          34.73673973
        ],
        [
          -115.0248431,
          -115.71222421,
          37.73007545
        ],
        [
          -115.20462454,
          -115.62496969,
          40.72341118
        ],
        [
          -115.38440597,
          -115.53771612,
          43.71675071
        ],
        [
          -115.56418741,
          -115.45046159,
          46.71008644
        ],
        [
          -115.74396933,
          -115.36320802,
          49.70342216
        ],
        [
          -115.92375076,
          -115.27595445,
          52.69675789
        ]
      ],
      "CsaImage.TimeAfterStart": [
        0.7825,
        0.5225,
        0.795,
        0.535,
        0.8075,
        0.5475,
        0.82,
        0.56,
        0.8325,
        0.5725,
        0.845,
        0.585,
        0.8575,
        0.5975,
        0.87,
        0.61,
        0.8825,
        0.6225,
        0.895,
        0.635,
        0.9075,
        0.6475,
        0.92,
        0.66,
        0.9325,
        0.6725,
        0.945,
        0.685,
        0.9575,
        0.6975,
        0.97,
        0.71,
        0.9825,
        0.7225,
        0.995,
        0.735,
        1.005,
        0.7475,
        1.0175,
        0.7575,
        1.03,
        0.77
      ],
      "ImagePositionPatient": [
        [
          -108.55270773571,
          -118.8533651495,
          -70.030048754993
        ],
        [
          -108.73248926204,
          -118.76611157895,
          -67.036713031116
        ],
        [
          -108.91227081817,
          -118.67885800839,
          -64.043377307239
        ],
        [
          -109.09205234449,
          -118.59160443783,
          -61.050041583362
        ],
        [
          -109.27183390062,
          -118.50435086728,
          -58.056702044788
        ],
        [
          -109.45161545675,
          -118.41709538937,
          -55.063366320911
        ],
        [
          -109.63139689367,
          -118.32984181882,
          -52.070030597034
        ],
        [
          -109.8111784498,
          -118.24258824826,
          -49.07669105846
        ],
        [
          -109.99096000593,
          -118.1553346777,
          -46.083355334583
        ],
        [
          -110.17074156206,
          -118.06808110715,
          -43.090019610706
        ],
        [
          -110.35052311819,
          -117.98082562924,
          -40.096680072132
        ],
        [
          -110.53030455511,
          -117.89357205868,
          -37.103344348255
        ],
        [
          -110.71008623045,
          -117.80631848813,
          -34.110008624378
        ],
        [
          -110.88986766737,
          -117.71906491757,
          -31.116670993152
        ],
        [
          -111.06964910429,
          -117.63181134701,
          -28.123335269275
        ],
        [
          -111.24943077963,
          -117.54455586911,
          -25.12999763805
        ],
        [
          -111.42921221655,
          -117.45730229855,
          -22.136661914173
        ],
        [
          -111.60899389189,
          -117.370048728,
          -19.143324282947
        ],
        [
          -111.78877532881,
          -117.28279515744,
          -16.149987605396
        ],
        [
          -111.96855700415,
          -117.19554063321,
          -13.156650927845
        ],
        [
          -112.14833844107,
          -117.10828706265,
          -10.163313773456
        ],
        [
          -112.32811987799,
          -117.02103349209,
          -7.1699768574864
        ],
        [
          -112.50790155333,
          -116.93377896786,
          -4.1766400607258
        ],
        [
          -112.68768299025,
          -116.84652539731,
          -1.1833032639653
        ],
        [
          -112.86746442717,
          -116.75927087308,
          1.810033413586
        ],
        [
          -113.04724586409,
          -116.67201730252,
          4.8033700911373
        ],
        [
          -113.22702777784,
          -116.58476373196,
          7.7967067686885
        ],
        [
          -113.40680921476,
          -116.49750920773,
          10.790044399914
        ],
        [
          -113.58659065168,
          -116.41025563717,
          13.783380123791
        ],
        [
          -113.7663720886,
          -116.32300111294,
          16.776717755017
        ],
        [
          -113.94615400236,
          -116.23574754239,
          19.770055386242
        ],
        [
          -114.12593543928,
          -116.14849397183,
          22.763391110119
        ],
        [
          -114.3057168762,
          -116.0612394476,
          25.756728741345
        ],
        [
          -114.48549831312,
          -115.97398587704,
          28.750064465222
        ],
        [
          -114.66527975004,
          -115.88673135281,
          31.743400189099
        ],
        [
          -114.8450616638,
          -115.79947778226,
          34.736739727673
        ],
        [
          -115.02484310072,
          -115.7122242117,
          37.73007545155
        ],
        [
          -115.20462453764,
          -115.62496968747,
          40.723411175427
        ],
        [
          -115.38440597456,
          -115.53771611691,
          43.716750714001
        ],
        [
          -115.56418741148,
          -115.45046159268,
          46.710086437878
        ],
        [
          -115.74396932524,
          -115.36320802212,
          49.703422161755
        ],
        [
          -115.92375076216,
          -115.27595445157,
          52.696757885632
        ]
      ],
      "InstanceCreationTime": [
        "191219.508000",
        "191219.463000",
        "191219.511000",
        "191219.466000",
        "191219.513000",
        "191219.468000",
        "191219.515000",
        "191219.470000",
        "191219.517000",
        "191219.472000",
        "191219.519000",
        "191219.474000",
        "191219.521000",
        "191219.477000",
        "191219.523000",
        "191219.479000",
        "191219.525000",
        "191219.481000",
        "191219.527000",
        "191219.483000",
        "191219.530000",
        "191219.485000",
        "191219.532000",
        "191219.487000",
        "191219.534000",
        "191219.489000",
        "191219.536000",
        "191219.491000",
        "191219.538000",
        "191219.494000",
        "191219.540000",
        "191219.496000",
        "191219.542000",
        "191219.498000",
        "191219.544000",
        "191219.500000",
        "191219.546000",
        "191219.502000",
        "191219.548000",
        "191219.504000",
        "191219.551000",
        "191219.506000"
      ],
      "InstanceNumber": [
        1,
        2,
        3,
        4,
        5,
        6,
        7,
        8,
        9,
        10,
        11,
        12,
        13,
        14,
        15,
        16,
        17,
        18,
        19,
        20,
        21,
        22,
        23,
        24,
        25,
        26,
        27,
        28,
        29,
        30,
        31,
        32,
        33,
        34,
        35,
        36,
        37,
        38,
        39,
        40,
        41,
        42
      ],
      "LargestImagePixelValue": [
        4090,
        4092,
        4085,
        4095,
        4091,
        4077,
        4090,
        4088,
        4094,
        4094,
        4094,
        4090,
        4083,
        4094,
        4093,
        4087,
        4086,
        4087,
        4087,
        4095,
        4093,
        4085,
        4072,
        4091,
        4090,
        4075,
        4083,
        4089,
        4074,
        4091,
        4089,
        4091,
        4095,
        4095,
        4095,
        4093,
        4095,
        4093,
        4095,
        4095,
        4092,
        4093
      ],
      "SliceLocation": [
        -66.826058906147,
        -63.826060016377,
        -60.826061124821,
        -57.826062235051,
        -54.826059537271,
        -51.82606059024,
        -48.826061705828,
        -45.826059008048,
        -42.826060116492,
        -39.826061224936,
        -36.826058471681,
        -33.826059587268,
        -30.826060688569,
        -27.826059901044,
        -24.826061016632,
        -21.826060159345,
        -18.826061274933,
        -15.826060473121,
        -12.826060637153,
        -9.8260607591596,
        -6.8260604474133,
        -3.826060373556,
        -0.8260603766182,
        2.1739395782946,
        5.1739394420001,
        8.1739392779683,
        11.173939142512,
        14.173939957774,
        17.173938842186,
        20.173939657448,
        23.173940473547,
        26.17393935796,
        29.173940173221,
        32.173939057633,
        35.173937969783,
        38.173940688995,
        41.173939573407,
        44.173938485556,
        47.173941176193,
        50.173940088342,
        53.17393900133,
        56.173937885742
      ],
      "SmallestImagePixelValue": [
        0,
        1,
        0,
        3,
        0,
        1,
        2,
        1,
        1,
        0,
        4,
        11,
        14,
        20,
        64,
        8,
        12,
        0,
        0,
        5,
        26,
        1,
        1,
        8,
        7,
        60,
        24,
        5,
        20,
        4,
        1,
        0,
        0,
        17,
        0,
        0,
        6,
        0,
        0,
        0,
        1,
        0
      ],
      "WindowCenter": [
        -246.0,
        -180.0,
        -124.0,
        -106.0,
        -178.0,
        -236.0,
        -166.0,
        -172.0,
        -152.0,
        -62.0,
        -14.0,
        0.0,
        -86.0,
        -124.0,
        -104.0,
        -104.0,
        -140.0,
        -246.0,
        -242.0,
        -236.0,
        -204.0,
        -194.0,
        -194.0,
        -186.0,
        -188.0,
        -162.0,
        -180.0,
        -226.0,
        -212.0,
        -224.0,
        -212.0,
        -206.0,
        -232.0,
        -284.0,
        -262.0,
        -286.0,
        -178.0,
        -162.0,
        -162.0,
        -204.0,
        -268.0,
        -232.0
      ],
      "WindowWidth": [
        5930.0,
        5970.0,
        6038.0,
        6062.0,
        5946.0,
        5718.0,
        5672.0,
        5528.0,
        5546.0,
        5628.0,
        5598.0,
        5624.0,
        5526.0,
        5436.0,
        5340.0,
        5308.0,
        5034.0,
        4566.0,
        4544.0,
        4532.0,
        4512.0,
        4500.0,
        4502.0,
        4482.0,
        4494.0,
        4458.0,
        4474.0,
        4500.0,
        4492.0,
        4518.0,
        4524.0,
        4558.0,
        4592.0,
        4676.0,
        4686.0,
        4752.0,
        5316.0,
        5710.0,
        5834.0,
        6098.0,
        6302.0,
        6314.0
      ]
    }
  }
}