{
  "AcquisitionMatrixPE": 70,
  "AcquisitionNumber": 1,
  "AcquisitionTime": "10:00:42.795000",
  "BaseResolution": 70,
  "BodyPartExamined": "BRAIN",
  "CoilCombinationMethod": "Sum of Squares",
  "ConsistencyInfo": "N4_VE11C_LATEST_20160120",
  "ConversionSoftware": "dcm2niix",
  "ConversionSoftwareVersion": "v1.0.20211006",
  "DeviceSerialNumber": "166011",
  "EchoNumber": 2,
  "EchoTime": 0.00738,
  "EchoTime1": 0.00492,
  "EchoTime2": 0.00738,
  "FlipAngle": 60,
  "ImageOrientationPatientDICOM": [
    0.997518,
    -0.0703965,
    0.0012122,
    0.0699282,
    0.988584,
    -0.133458
  ],
  "ImageType": [
    "ORIGINAL",
    "PRIMARY",
    "P",
    "ND",
    "PHASE"
  ],
  "ImagingFrequency": 123.26,
  "InPlanePhaseEncodingDirectionDICOM": "ROW",
  "InstitutionAddress": "West 130th Street 610,NY,NYC,US,10025",
  "InstitutionName": "MBBI",
  "IntendedFor": [
    "ses-2/func/sub-164_ses-2_task-catLoc_run-01_bold.nii.gz",
    "ses-2/func/sub-164_ses-2_task-catLoc_run-02_bold.nii.gz",
    "ses-2/func/sub-164_ses-2_task-vwfate_run-01_bold.nii.gz",
    "ses-2/func/sub-164_ses-2_task-vwfate_run-02_bold.nii.gz",
    "ses-2/func/sub-164_ses-2_task-vwfate_run-03_bold.nii.gz",
    "ses-2/func/sub-164_ses-2_task-vwfate_run-04_bold.nii.gz",
    "ses-2/func/sub-164_ses-2_task-vwfate_run-05_bold.nii.gz",
    "ses-2/func/sub-164_ses-2_task-vwfate_run-06_bold.nii.gz"
  ],
  "MRAcquisitionType": "2D",
  "MagneticFieldStrength": 3,
  "Manufacturer": "Siemens",
  "ManufacturersModelName": "Prisma",
  "MatrixCoilMode": "SENSE",
  "Modality": "MR",
  "PartialFourier": 1,
  "PatientPosition": "HFS",
  "PercentPhaseFOV": 100,
  "PercentSampling": 100,
  "PhaseEncodingDirection": "i",
  "PhaseEncodingSteps": 70,
  "PhaseResolution": 1,
  "PixelBandwidth": 595,
  "ProcedureStepDescription": "White^Word_recognition",
  "ProtocolName": "fmap_gre_field_mapping",
  "PulseSequenceDetails": "%SiemensSeq%\\gre_field_mapping",
  "ReceiveCoilActiveElements": "HC1-7",
  "ReceiveCoilName": "HeadNeck_64",
  "ReconMatrixPE": 70,
  "RepetitionTime": 0.52,
  "SAR": 0.085646,
  "ScanningSequence": "GR",
  "SequenceName": "*fm2d2r",
  "SequenceVariant": "SP",
  "SeriesDescription": "fmap_gre_field_mapping",
  "SeriesNumber": 17,
  "ShimSetting": [
    -1143,
    -1363,
    672,
    603,
    -9,
    -136,
    21,
    0
  ],
  "SliceThickness": 3,
  "SliceTiming": [
    0.26562,
    0,
    0.27344,
    0.01562,
    0.28906,
    0.03125,
    0.30469,
    0.03906,
    0.3125,
    0.05469,
    0.32812,
    0.0625,
    0.33594,
    0.07812,
    0.35156,
    0.09375,
    0.36719,
    0.10156,
    0.375,
    0.11719,
    0.38281,
    0.125,
    0.39844,
    0.14062,
    0.41406,
    0.14844,
    0.42188,
    0.16406,
    0.4375,
    0.17969,
    0.44531,
    0.1875,
    0.46094,
    0.20312,
    0.47656,
    0.21094,
    0.48438,
    0.22656,
    0.5,
    0.24219,
    0.50781,
    0.25
  ],
  "SoftwareVersions": "syngo MR E11",
  "SpacingBetweenSlices": 3,
  "StationName": "AWP166011",
  "TxRefAmp": 215.643,
  "dcmmeta_affine": [
    [
      -2.9925551414489746,
      0.20978468656539917,
      -0.024590015411376953,
      102.96812438964844
    ],
    [
      0.2111896276473999,
      2.9657528400421143,
      -0.39963626861572266,
      -83.1511459350586
    ],
    [
      0.003636609762907028,
      0.40037548542022705,
      2.9731597900390625,
      -69.66770935058594
    ],
    [
      0.0,
      0.0,
      0.0,
      1.0
    ]
  ],
  "dcmmeta_reorient_transform": [
    [
      0.0,
      -1.0,
      0.0,
      69.0
    ],
    [
      1.0,
      0.0,
      0.0,
      0.0
    ],
    [
      0.0,
      0.0,
      -1.0,
      41.0
    ],
    [
      0.0,
      0.0,
      0.0,
      1.0
    ]
  ],
  "dcmmeta_shape": [
    70,
    70,
    42
  ],
  "dcmmeta_slice_dim": 2,
  "dcmmeta_version": 0.6,
  "global": {
    "const": {
      "AcquisitionMatrix": [
        0,
        70,
        70,
        0
      ],
      "AcquisitionNumber": 1,
      "AngioFlag": "N",
      "BitsAllocated": 16,
      "BitsStored": 12,
      "BodyPartExamined": "BRAIN",
      "Columns": 70,
      "EchoNumbers": 2,
      "EchoTime": 7.38,
      "EchoTrainLength": 0,
      "FlipAngle": 60.0,
      "HighBit": 11,
      "ImageOrientationPatient": [
        0.99751834943218,
        -0.0703965418845,
        0.00121220328472,
        0.06992823071169,
        0.98858427684278,
        -0.1334584959033
      ],
      "ImageType": [
        "ORIGINAL",
        "PRIMARY",
        "P",
        "ND"
      ],
      "ImagedNucleus": "1H",
      "ImagingFrequency": 123.259558,
      "InPlanePhaseEncodingDirection": "ROW",
      "MRAcquisitionType": "2D",
      "MagneticFieldStrength": 3.0,
      "Manufacturer": "SIEMENS",
      "ManufacturerModelName": "Prisma",
      "Modality": "MR",
      "NumberOfAverages": 1.0,
      "NumberOfPhaseEncodingSteps": 70,
      "PercentPhaseFieldOfView": 100.0,
      "PercentSampling": 100.0,
      "PerformedProcedureStepStartTime": "083618.908000",
      "PhotometricInterpretation": "MONOCHROME2",
      "PixelBandwidth": 595.0,
      "PixelRepresentation": 0,
      "PixelSpacing": [
        3.0,
        3.0
      ],
      "ProtocolName": "fmap_gre_field_mapping",
      "RepetitionTime": 520.0,
      "RescaleIntercept": -4096.0,
      "RescaleSlope": 2.0,
      "RescaleType": "US",
      "Rows": 70,
      "SAR": 0.08564597892986,
      "SamplesPerPixel": 1,
      "ScanningSequence": "GR",
      "SequenceName": "*fm2d2r",
      "SequenceVariant": "SP",
      "SeriesDescription": "fmap_gre_field_mapping",
      "SeriesNumber": 17,
      "SeriesTime": "100155.247000",
      "SliceThickness": 3.0,
      "SoftwareVersions": "syngo MR E11",
      "SpacingBetweenSlices": 3.0,
      "SpecificCharacterSet": "ISO_IR 100",
      "StudyID": "2",
      "StudyTime": "083618.844000",
      "TransmitCoilName": "Body",
      "VariableFlipAngleFlag": "N",
      "WindowCenterWidthExplanation": "Algo1",
      "dBdt": 0.0
    },
    "slices": {
      "AcquisitionTime": [
        "100042.795000",
        "100042.535000",
        "100042.807500",
        "100042.547500",
        "100042.820000",
        "100042.560000",
        "100042.832500",
        "100042.572500",
        "100042.845000",
        "100042.585000",
        "100042.857500",
        "100042.597500",
        "100042.870000",
        "100042.610000",
        "100042.882500",
        "100042.622500",
        "100042.895000",
        "100042.635000",
        "100042.905000",
        "100042.645000",
        "100042.917500",
        "100042.657500",
        "100042.930000",
        "100042.670000",
        "100042.942500",
        "100042.682500",
        "100042.955000",
        "100042.695000",
        "100042.967500",
        "100042.707500",
        "100042.980000",
        "100042.720000",
        "100042.992500",
        "100042.732500",
        "100043.005000",
        "100042.745000",
        "100043.017500",
        "100042.757500",
        "100043.030000",
        "100042.770000",
        "100043.042500",
        "100042.782500"
      ],
      "ContentTime": [
        "100155.307000",
        "100155.251000",
        "100155.309000",
        "100155.262000",
        "100155.311000",
        "100155.264000",
        "100155.314000",
        "100155.266000",
        "100155.316000",
        "100155.268000",
        "100155.318000",
        "100155.271000",
        "100155.320000",
        "100155.273000",
        "100155.322000",
        "100155.275000",
        "100155.325000",
        "100155.277000",
        "100155.327000",
        "100155.279000",
        "100155.329000",
        "100155.281000",
        "100155.331000",
        "100155.284000",
        "100155.334000",
        "100155.286000",
        "100155.336000",
        "100155.288000",
        "100155.338000",
        "100155.290000",
        "100155.341000",
        "100155.293000",
        "100155.343000",
        "100155.295000",
        "100155.345000",
        "100155.298000",
        "100155.347000",
        "100155.301000",
        "100155.349000",
        "100155.303000",
        "100155.351000",
        "100155.305000"
      ],
      "CsaImage.ICE_Dims": [
        "X_2_1_1_1_1_1_22_1_1_1_1_227",
        "X_2_1_1_1_1_1_1_1_1_2_1_227",
        "X_2_1_1_1_1_1_23_1_1_3_1_227",
        "X_2_1_1_1_1_1_2_1_1_4_1_227",
        "X_2_1_1_1_1_1_24_1_1_5_1_227",
        "X_2_1_1_1_1_1_3_1_1_6_1_227",
        "X_2_1_1_1_1_1_25_1_1_7_1_227",
        "X_2_1_1_1_1_1_4_1_1_8_1_227",
        "X_2_1_1_1_1_1_26_1_1_9_1_227",
        "X_2_1_1_1_1_1_5_1_1_10_1_227",
        "X_2_1_1_1_1_1_27_1_1_11_1_227",
        "X_2_1_1_1_1_1_6_1_1_12_1_227",
        "X_2_1_1_1_1_1_28_1_1_13_1_227",
        "X_2_1_1_1_1_1_7_1_1_14_1_227",
        "X_2_1_1_1_1_1_29_1_1_15_1_227",
        "X_2_1_1_1_1_1_8_1_1_16_1_227",
        "X_2_1_1_1_1_1_30_1_1_17_1_227",
        "X_2_1_1_1_1_1_9_1_1_18_1_227",
        "X_2_1_1_1_1_1_31_1_1_19_1_227",
        "X_2_1_1_1_1_1_10_1_1_20_1_227",
        "X_2_1_1_1_1_1_32_1_1_21_1_227",
        "X_2_1_1_1_1_1_11_1_1_22_1_227",
        "X_2_1_1_1_1_1_33_1_1_23_1_227",
        "X_2_1_1_1_1_1_12_1_1_24_1_227",
        "X_2_1_1_1_1_1_34_1_1_25_1_227",
        "X_2_1_1_1_1_1_13_1_1_26_1_227",
        "X_2_1_1_1_1_1_35_1_1_27_1_227",
        "X_2_1_1_1_1_1_14_1_1_28_1_227",
        "X_2_1_1_1_1_1_36_1_1_29_1_227",
        "X_2_1_1_1_1_1_15_1_1_30_1_227",
        "X_2_1_1_1_1_1_37_1_1_31_1_227",
        "X_2_1_1_1_1_1_16_1_1_32_1_227",
        "X_2_1_1_1_1_1_38_1_1_33_1_227",
        "X_2_1_1_1_1_1_17_1_1_34_1_227",
        "X_2_1_1_1_1_1_39_1_1_35_1_227",
        "X_2_1_1_1_1_1_18_1_1_36_1_227",
        "X_2_1_1_1_1_1_40_1_1_37_1_227",
        "X_2_1_1_1_1_1_19_1_1_38_1_227",
        "X_2_1_1_1_1_1_41_1_1_39_1_227",
        "X_2_1_1_1_1_1_20_1_1_40_1_227",
        "X_2_1_1_1_1_1_42_1_1_41_1_227",
        "X_2_1_1_1_1_1_21_1_1_42_1_227"
      ],
      "CsaImage.ProtocolSliceNumber": [
        0,
        1,
        2,
        3,
        4,
        5,
        6,
        7,
        8,
        9,
        10,
        11,
        12,
        13,
        14,
        15,
        16,
        17,
        18,
        19,
        20,
        21,
        22,
        23,
        24,
        25,
        26,
        27,
        28,
        29,
        30,
        31,
        32,
        33,
        34,
        35,
        36,
        37,
        38,
        39,
        40,
        41
      ],
      "CsaImage.SlicePosition_PCS": [
        [
          -117.44326434,
          -121.48579821,
          -42.04184313
        ],
        [
          -117.41867432,
          -121.08616099,
          -39.06868334
        ],
        [
          -117.39408431,
          -120.68652568,
          -36.09552355
        ],
        [
          -117.36949429,
          -120.28688846,
          -33.12235995
        ],
        [
          -117.34490428,
          -119.88725314,
          -30.14920016
        ],
        [
          -117.32031426,
          -119.48761592,
          -27.17604037
        ],
        [
          -117.29572425,
          -119.0879806,
          -24.20287676
        ],
        [
          -117.27113471,
          -118.68834338,
          -21.22971697
        ],
        [
          -117.24654469,
          -118.28870807,
          -18.25655718
        ],
        [
          -117.22195468,
          -117.88907084,
          -15.28339549
        ],
        [
          -117.19736466,
          -117.48943553,
          -12.31023379
        ],
        [
          -117.17277465,
          -117.08979831,
          -9.337074
        ],
        [
          -117.14818463,
          -116.69016299,
          -6.3639123
        ],
        [
          -117.12359462,
          -116.29052577,
          -3.3907506
        ],
        [
          -117.0990046,
          -115.89089045,
          -0.41759081
        ],
        [
          -117.07441506,
          -115.49125514,
          2.55557088
        ],
        [
          -117.04982505,
          -115.09161792,
          5.52873163
        ],
        [
          -117.02523503,
          -114.6919826,
          8.50189237
        ],
        [
          -117.00064502,
          -114.29234538,
          11.47505359
        ],
        [
          -116.976055,
          -113.89271006,
          14.44821457
        ],
        [
          -116.95146499,
          -113.49307284,
          17.42137556
        ],
        [
          -116.92687497,
          -113.09343753,
          20.39453678
        ],
        [
          -116.90228495,
          -112.69380031,
          23.367698
        ],
        [
          -116.87769542,
          -112.29416499,
          26.34085874
        ],
        [
          -116.8531054,
          -111.89452872,
          29.31401949
        ],
        [
          -116.82851538,
          -111.49489245,
          32.28718023
        ],
        [
          -116.80392537,
          -111.09525618,
          35.26034193
        ],
        [
          -116.77933535,
          -110.69561992,
          38.23350172
        ],
        [
          -116.75474534,
          -110.29598365,
          41.20666341
        ],
        [
          -116.73015532,
          -109.89634738,
          44.17982511
        ],
        [
          -116.70556531,
          -109.49671111,
          47.1529849
        ],
        [
          -116.68097577,
          -109.09707484,
          50.12614469
        ],
        [
          -116.65638575,
          -108.69743857,
          53.0993083
        ],
        [
          -116.63179574,
          -108.2978023,
          56.07246809
        ],
        [
          -116.60720572,
          -107.89816604,
          59.04562788
        ],
        [
          -116.58261571,
          -107.49852977,
          62.01879148
        ],
        [
          -116.55802569,
          -107.0988935,
          64.99195127
        ],
        [
          -116.53343568,
          -106.69925723,
          67.96511106
        ],
        [
          -116.50884566,
          -106.29962191,
          70.93827467
        ],
        [
          -116.48425612,
          -105.89998565,
          73.91143446
        ],
        [
          -116.45966611,
          -105.50034938,
          76.88459425
        ],
        [
          -116.43507609,
          -105.10071311,
          79.85775404
        ]
      ],
      "CsaImage.TimeAfterStart": [
        0.7825,
        0.5225,
        0.795,
        0.535,
        0.8075,
        0.5475,
        0.82,
        0.56,
        0.8325,
        0.5725,
        0.845,
        0.585,
        0.8575,
        0.5975,
        0.87,
        0.61,
        0.8825,
        0.6225,
        0.8925,
        0.6325,
        0.905,
        0.645,
        0.9175,
        0.6575,
        0.93,
        0.67,
        0.9425,
        0.6825,
        0.955,
        0.695,
        0.9675,
        0.7075,
        0.98,
        0.72,
        0.9925,
        0.7325,
        1.005,
        0.745,
        1.0175,
        0.7575,
        1.03,
        0.77
      ],
      "ImagePositionPatient": [
        [
          -117.44326433964,
          -121.48579821493,
          -42.041843132473
        ],
        [
          -117.41867432422,
          -121.08616099264,
          -39.068683342434
        ],
        [
          -117.39408430881,
          -120.6865256777,
          -36.095523552395
        ],
        [
          -117.3694942934,
          -120.28688845541,
          -33.122359947659
        ],
        [
          -117.34490427799,
          -119.88725314047,
          -30.14920015762
        ],
        [
          -117.32031426258,
          -119.48761591818,
          -27.176040367581
        ],
        [
          -117.29572424717,
          -119.08798060324,
          -24.202876762845
        ],
        [
          -117.27113470859,
          -118.68834338095,
          -21.229716972806
        ],
        [
          -117.24654469318,
          -118.288708066,
          -18.256557182766
        ],
        [
          -117.22195467777,
          -117.88907084371,
          -15.283395485379
        ],
        [
          -117.19736466236,
          -117.48943552877,
          -12.310233787991
        ],
        [
          -117.17277464695,
          -117.08979830648,
          -9.337073997952
        ],
        [
          -117.14818463154,
          -116.69016299154,
          -6.3639123005643
        ],
        [
          -117.12359461613,
          -116.29052576925,
          -3.3907506031766
        ],
        [
          -117.09900460071,
          -115.89089045431,
          -0.4175908131376
        ],
        [
          -117.07441506214,
          -115.49125513937,
          2.5555708842501
        ],
        [
          -117.04982504673,
          -115.09161791708,
          5.5287316279635
        ],
        [
          -117.02523503132,
          -114.69198260214,
          8.5018923716769
        ],
        [
          -117.00064501591,
          -114.29234537985,
          11.475053592227
        ],
        [
          -116.97605500049,
          -113.89271006491,
          14.448214574359
        ],
        [
          -116.95146498508,
          -113.49307284262,
          17.421375556491
        ],
        [
          -116.92687496967,
          -113.09343752767,
          20.394536777042
        ],
        [
          -116.90228495426,
          -112.69380030538,
          23.367697997592
        ],
        [
          -116.87769541569,
          -112.29416499044,
          26.340858741306
        ],
        [
          -116.85310540027,
          -111.89452872183,
          29.314019485019
        ],
        [
          -116.82851538486,
          -111.49489245321,
          32.287180228733
        ],
        [
          -116.80392536945,
          -111.0952561846,
          35.26034192612
        ],
        [
          -116.77933535404,
          -110.69561991598,
          38.233501716159
        ],
        [
          -116.75474533863,
          -110.29598364736,
          41.206663413547
        ],
        [
          -116.73015532322,
          -109.89634737875,
          44.179825110935
        ],
        [
          -116.70556530781,
          -109.49671111013,
          47.152984900974
        ],
        [
          -116.68097576923,
          -109.09707484152,
          50.126144691013
        ],
        [
          -116.65638575382,
          -108.6974385729,
          53.099308295749
        ],
        [
          -116.63179573841,
          -108.29780230429,
          56.072468085788
        ],
        [
          -116.607205723,
          -107.89816603567,
          59.045627875827
        ],
        [
          -116.58261570759,
          -107.49852976705,
          62.018791480564
        ],
        [
          -116.55802569218,
          -107.09889349844,
          64.991951270603
        ],
        [
          -116.53343567676,
          -106.69925722982,
          67.965111060642
        ],
        [
          -116.50884566135,
          -106.29962191488,
          70.938274665378
        ],
        [
          -116.48425612278,
          -105.89998564627,
          73.911434455417
        ],
        [
          -116.45966610737,
          -105.50034937765,
          76.884594245456
        ],
        [
          -116.43507609196,
          -105.10071310903,
          79.857754035495
        ]
      ],
      "InstanceCreationTime": [
        "100155.307000",
        "100155.251000",
        "100155.309000",
        "100155.262000",
        "100155.311000",
        "100155.264000",
        "100155.314000",
        "100155.266000",
        "100155.316000",
        "100155.268000",
        "100155.318000",
        "100155.271000",
        "100155.320000",
        "100155.273000",
        "100155.322000",
        "100155.275000",
        "100155.325000",
        "100155.277000",
        "100155.327000",
        "100155.279000",
        "100155.329000",
        "100155.281000",
        "100155.331000",
        "100155.284000",
        "100155.334000",
        "100155.286000",
        "100155.336000",
        "100155.288000",
        "100155.338000",
        "100155.290000",
        "100155.341000",
        "100155.293000",
        "100155.343000",
        "100155.295000",
        "100155.345000",
        "100155.298000",
        "100155.347000",
        "100155.301000",
        "100155.349000",
        "100155.303000",
        "100155.351000",
        "100155.305000"
      ],
      "InstanceNumber": [
        1,
        2,
        3,
        4,
        5,
        6,
        7,
        8,
        9,
        10,
        11,
        12,
        13,
        14,
        15,
        16,
        17,
        18,
        19,
        20,
        21,
        22,
        23,
        24,
        25,
        26,
        27,
        28,
        29,
        30,
        31,
        32,
        33,
        34,
        35,
        36,
        37,
        38,
        39,
        40,
        41,
        42
      ],
      "LargestImagePixelValue": [
        4094,
        4095,
        4090,
        4095,
        4092,
        4094,
        4087,
        4092,
        4094,
        4094,
        4095,
        4088,
        4091,
        4087,
        4093,
        4092,
        4090,
        4082,
        4090,
        4094,
        4093,
        4087,
        4093,
        4084,
        4092,
        4090,
        4069,
        4086,
        4091,
        4095,
        4087,
        4088,
        4094,
        4095,
        4086,
        4090,
        4092,
        4094,
        4094,
        4093,
        4093,
        4095
      ],
      "SliceLocation": [
        -58.811738233374,
        -55.811739280807,
        -52.811740582323,
        -49.811737849186,
        -46.811739150701,
        -43.811740198135,
        -40.81173771908,
        -37.811738770422,
        -34.811740071937,
        -31.811739229085,
        -28.811738640316,
        -25.811739687749,
        -22.811739098979,
        -19.811738256128,
        -16.811739557643,
        -13.811738972782,
        -10.811739075072,
        -7.8117394314452,
        -4.8117390611648,
        -1.811739181252,
        1.1882609527428,
        4.1882610689413,
        7.1882614392216,
        10.18826107894,
        13.188260849609,
        16.188260620277,
        19.188261336087,
        22.188260161613,
        25.188260877424,
        28.188261593235,
        31.18826041876,
        34.188259240378,
        37.188261846473,
        40.188260671999,
        43.188259497525,
        46.18826210362,
        49.188260929146,
        52.188259754672,
        55.188262233726,
        58.188261055344,
        61.188259880869,
        64.188258706395
      ],
      "SmallestImagePixelValue": [
        0,
        0,
        4,
        0,
        0,
        2,
        9,
        2,
        4,
        4,
        8,
        0,
        0,
        20,
        4,
        1,
        12,
        3,
        10,
        9,
        3,
        1,
        0,
        3,
        0,
        0,
        10,
        6,
        18,
        3,
        8,
        0,
        3,
        3,
        1,
        0,
        0,
        4,
        0,
        0,
        4,
        1
      ],
      "WindowCenter": [
        -180.0,
        20.0,
        8.0,
        -62.0,
        -128.0,
        -170.0,
        -222.0,
        -242.0,
        -530.0,
        -554.0,
        -512.0,
        -388.0,
        -270.0,
        -266.0,
        -206.0,
        -224.0,
        -212.0,
        -170.0,
        -232.0,
        -164.0,
        -216.0,
        -194.0,
        -230.0,
        -200.0,
        -82.0,
        -80.0,
        -226.0,
        -74.0,
        -190.0,
        -32.0,
        -36.0,
        -186.0,
        -138.0,
        -158.0,
        -188.0,
        -210.0,
        -282.0,
        -284.0,
        -196.0,
        -172.0,
        -166.0,
        -230.0
      ],
      "WindowWidth": [
        6036.0,
        6234.0,
        6138.0,
        5968.0,
        5782.0,
        5572.0,
        5466.0,
        5414.0,
        4692.0,
        4708.0,
        4642.0,
        4556.0,
        4528.0,
        4526.0,
        4506.0,
        4530.0,
        4540.0,
        4540.0,
        4554.0,
        4564.0,
        4554.0,
        4580.0,
        4566.0,
        4584.0,
        5098.0,
        5180.0,
        4582.0,
        5162.0,
        4564.0,
        5294.0,
        5136.0,
        4588.0,
        4554.0,
        4606.0,
        4632.0,
        4640.0,
        4710.0,
        4782.0,
        5350.0,
        5696.0,
        5954.0,
        6068.0
      ]
    }
  }
}