{
  "AcquisitionMatrixPE": 72,
  "AcquisitionNumber": 1,
  "AcquisitionTime": "17:44:52.532500",
  "BandwidthPerPixelPhaseEncode": 17.943,
  "BaseResolution": 96,
  "BodyPartExamined": "BRAIN",
  "CoilCombinationMethod": "Sum of Squares",
  "ConsistencyInfo": "N4_VE11C_LATEST_20160120",
  "ConversionSoftware": "dcm2niix",
  "ConversionSoftwareVersion": "v1.0.20211006",
  "DerivedVendorReportedEchoSpacing": 0.000552897,
  "DeviceSerialNumber": "166011",
  "EchoTime": 0.03,
  "EchoTrainLength": 58,
  "EffectiveEchoSpacing": 0.000580542,
  "FlipAngle": 62,
  "ImageOrientationPatientDICOM": [0.997699, 0.0122535, 0.0666811, -0.0142798, 0.999448, 0.0299961],
  "ImageType": [
    "ORIGINAL",
    "PRIMARY",
    "M",
    "ND",
    "MOSAIC"
],
  "ImagingFrequency": 123.259,
  "InPlanePhaseEncodingDirectionDICOM": "COL",
  "InstitutionAddress": "West 130th Street 610,NY,NYC,US,10025",
  "InstitutionName": "MBBI",
  "MRAcquisitionType": "2D",
  "MagneticFieldStrength": 3,
  "Manufacturer": "Siemens",
  "ManufacturersModelName": "Prisma",
  "Modality": "MR",
  "MultibandAccelerationFactor": 3,
  "PartialFourier": 0.75,
  "PatientPosition": "HFS",
  "PercentPhaseFOV": 100,
  "PercentSampling": 75,
  "PhaseEncodingDirection": "j-",
  "PhaseEncodingSteps": 58,
  "PhaseOversampling": 0.05,
  "PhaseResolution": 0.75,
  "PixelBandwidth": 2265,
  "ProcedureStepDescription": "White^Word_recognition",
  "ProtocolName": "func_vwfate_run2",
  "PulseSequenceDetails": "%SiemensSeq%\\ep2d_bold",
  "ReceiveCoilActiveElements": "HC1-6",
  "ReceiveCoilName": "HeadNeck_64",
  "ReconMatrixPE": 96,
  "RefLinesPE": 40,
  "RepetitionTime": 1.5,
  "SAR": 0.0499414,
  "ScanOptions": "PFP\\FS",
  "ScanningSequence": "EP",
  "SequenceName": "*epfid2d1_72",
  "SequenceVariant": "SK\\OSP",
  "SeriesDescription": "func_vwfate_run2",
  "SeriesNumber": 10,
  "ShimSetting": [-1137, -1403, 681, 526, -116, -40, -24, -39],
  "SliceThickness": 2,
  "SliceTiming": [1.075, 0, 0.74, 0.0675, 0.8075, 0.135, 0.8725, 0.2, 0.94, 0.2675, 1.0075, 0.4025, 1.1425, 0.47, 1.21, 0.5375, 1.2775, 0.605, 1.345, 0.6725, 1.4125, 0.335, 1.075, 0, 0.74, 0.0675, 0.8075, 0.135, 0.8725, 0.2, 0.94, 0.2675, 1.0075, 0.4025, 1.1425, 0.47, 1.21, 0.5375, 1.2775, 0.605, 1.345, 0.6725, 1.4125, 0.335, 1.075, 0, 0.74, 0.0675, 0.8075, 0.135, 0.8725, 0.2, 0.94, 0.2675, 1.0075, 0.4025, 1.1425, 0.47, 1.21, 0.5375, 1.2775, 0.605, 1.345, 0.6725, 1.4125, 0.335],
  "SoftwareVersions": "syngo MR E11",
  "SpacingBetweenSlices": 2,
  "StationName": "AWP166011",
  "TaskName": "vwfate",
  "TotalReadoutTime": 0.0551515,
  "TxRefAmp": 216.676,
  "dcmmeta_affine": [
    [-1.9953981637954712, -0.028559578582644463, 0.13255341351032257, 98.80061340332031],
    [-0.02450704760849476, 1.9988960027694702, 0.06175856664776802, -86.77008819580078],
    [0.13336214423179626, -0.059992216527462006, 1.9946467876434326, -39.028480529785156],
    [0.0, 0.0, 0.0, 1.0]
],
  "dcmmeta_reorient_transform": [
    [0.0, -1.0, 0.0, 95.0],
    [1.0, 0.0, 0.0, 0.0],
    [0.0, 0.0, 1.0, 0.0],
    [0.0, 0.0, 0.0, 1.0]
],
  "dcmmeta_shape": [96, 96, 66, 164],
  "dcmmeta_slice_dim": 2,
  "dcmmeta_version": 0.6,
  "global": {
    "const": {
      "AcquisitionMatrix": [96, 0, 0, 72],
      "AngioFlag": "N",
      "BitsAllocated": 16,
      "BitsStored": 12,
      "BodyPartExamined": "BRAIN",
      "Columns": 864,
      "EchoNumbers": 1,
      "EchoTime": 30.0,
      "EchoTrainLength": 58,
      "FlipAngle": 62.0,
      "HighBit": 11,
      "ImageOrientationPatient": [0.99769909602013, 0.01225352393953, 0.06668106891527, -0.01427978912, 0.99944800819066, 0.02999610885455],
      "ImagePositionPatient": [-851.35348395672, -880.11180937984, -118.97581316051],
      "ImageType": [
        "ORIGINAL",
        "PRIMARY",
        "M",
        "ND",
        "MOSAIC"
],
      "ImagedNucleus": "1H",
      "ImagingFrequency": 123.259216,
      "InPlanePhaseEncodingDirection": "COL",
      "MRAcquisitionType": "2D",
      "MagneticFieldStrength": 3.0,
      "Manufacturer": "SIEMENS",
      "ManufacturerModelName": "Prisma",
      "Modality": "MR",
      "NumberOfAverages": 1.0,
      "NumberOfPhaseEncodingSteps": 58,
      "PercentPhaseFieldOfView": 100.0,
      "PercentSampling": 75.0,
      "PerformedProcedureStepStartTime": "172427.456000",
      "PhotometricInterpretation": "MONOCHROME2",
      "PixelBandwidth": 2265.0,
      "PixelRepresentation": 0,
      "PixelSpacing": [2.0, 2.0],
      "ProtocolName": "func_vwfate_run2",
      "RepetitionTime": 1500.0,
      "Rows": 864,
      "SAR": 0.0499414175522,
      "SamplesPerPixel": 1,
      "ScanOptions": [
        "PFP",
        "FS"
],
      "ScanningSequence": "EP",
      "SequenceName": "*epfid2d1_72",
      "SequenceVariant": [
        "SK",
        "OSP"
],
      "SeriesDescription": "func_vwfate_run2",
      "SeriesNumber": 10,
      "SeriesTime": "174527.350000",
      "SliceLocation": -35.055233375068,
      "SliceThickness": 2.0,
      "SmallestImagePixelValue": 0,
      "SoftwareVersions": "syngo MR E11",
      "SpacingBetweenSlices": 2.0000000424366,
      "SpecificCharacterSet": "ISO_IR 100",
      "StudyID": "1",
      "StudyTime": "172427.413000",
      "TransmitCoilName": "Body",
      "VariableFlipAngleFlag": "N",
      "WindowCenterWidthExplanation": "Algo1",
      "dBdt": 0.0},
    "slices": {}
  },
  "time": {
    "samples": {
      "AcquisitionNumber": [1, 2, 3, 4, 5, 6, 7, 8, 9, 10, 11, 12, 13, 14, 15, 16, 17, 18, 19, 20, 21, 22, 23, 24, 25, 26, 27, 28, 29, 30, 31, 32, 33, 34, 35, 36, 37, 38, 39, 40, 41, 42, 43, 44, 45, 46, 47, 48, 49, 50, 51, 52, 53, 54, 55, 56, 57, 58, 59, 60, 61, 62, 63, 64, 65, 66, 67, 68, 69, 70, 71, 72, 73, 74, 75, 76, 77, 78, 79, 80, 81, 82, 83, 84, 85, 86, 87, 88, 89, 90, 91, 92, 93, 94, 95, 96, 97, 98, 99, 100, 101, 102, 103, 104, 105, 106, 107, 108, 109, 110, 111, 112, 113, 114, 115, 116, 117, 118, 119, 120, 121, 122, 123, 124, 125, 126, 127, 128, 129, 130, 131, 132, 133, 134, 135, 136, 137, 138, 139, 140, 141, 142, 143, 144, 145, 146, 147, 148, 149, 150, 151, 152, 153, 154, 155, 156, 157, 158, 159, 160, 161, 162, 163, 164],
      "AcquisitionTime": ["174452.532500", "174454.032500", "174455.532500", "174457.032500", "174458.532500", "174500.032500", "174501.532500", "174503.032500", "174504.532500", "174506.032500", "174507.532500", "174509.032500", "174510.532500", "174512.032500", "174513.532500", "174515.032500", "174516.532500", "174518.032500", "174519.532500", "174521.032500", "174522.532500", "174524.032500", "174525.532500", "174527.032500", "174528.532500", "174530.032500", "174531.532500", "174533.032500", "174534.532500", "174536.032500", "174537.532500", "174539.032500", "174540.532500", "174542.032500", "174543.532500", "174545.032500", "174546.532500", "174548.032500", "174549.532500", "174551.032500", "174552.532500", "174554.032500", "174555.532500", "174557.032500", "174558.532500", "174600.032500", "174601.532500", "174603.032500", "174604.532500", "174606.032500", "174607.532500", "174609.032500", "174610.532500", "174612.032500", "174613.532500", "174615.032500", "174616.532500", "174618.032500", "174619.532500", "174621.032500", "174622.532500", "174624.032500", "174625.532500", "174627.032500", "174628.532500", "174630.032500", "174631.532500", "174633.032500", "174634.532500", "174636.032500", "174637.532500", "174639.032500", "174640.532500", "174642.032500", "174643.532500", "174645.032500", "174646.532500", "174648.032500", "174649.532500", "174651.032500", "174652.532500", "174654.032500", "174655.532500", "174657.032500", "174658.532500", "174700.032500", "174701.532500", "174703.032500", "174704.532500", "174706.032500", "174707.532500", "174709.032500", "174710.532500", "174712.032500", "174713.532500", "174715.032500", "174716.532500", "174718.032500", "174719.532500", "174721.032500", "174722.532500", "174724.032500", "174725.532500", "174727.032500", "174728.532500", "174730.032500", "174731.532500", "174733.032500", "174734.532500", "174736.032500", "174737.532500", "174739.032500", "174740.532500", "174742.032500", "174743.532500", "174745.032500", "174746.532500", "174748.032500", "174749.532500", "174751.032500", "174752.532500", "174754.032500", "174755.532500", "174757.032500", "174758.532500", "174800.032500", "174801.532500", "174803.032500", "174804.532500", "174806.032500", "174807.532500", "174809.032500", "174810.532500", "174812.032500", "174813.532500", "174815.032500", "174816.532500", "174818.032500", "174819.532500", "174821.032500", "174822.532500", "174824.032500", "174825.532500", "174827.032500", "174828.532500", "174830.032500", "174831.532500", "174833.032500", "174834.532500", "174836.032500", "174837.532500", "174839.032500", "174840.532500", "174842.032500", "174843.532500", "174845.032500", "174846.532500", "174848.032500", "174849.532500", "174851.032500", "174852.532500", "174854.032500", "174855.532500", "174857.032500"],
      "ContentTime": ["174527.354000", "174527.358000", "174527.364000", "174527.369000", "174527.372000", "174527.376000", "174527.379000", "174527.382000", "174527.385000", "174527.388000", "174527.391000", "174527.399000", "174527.402000", "174527.405000", "174527.408000", "174527.411000", "174527.414000", "174527.417000", "174527.421000", "174527.424000", "174527.427000", "174527.430000", "174527.433000", "174607.349000", "174607.352000", "174607.356000", "174607.359000", "174607.362000", "174607.369000", "174607.372000", "174607.375000", "174607.378000", "174607.382000", "174607.385000", "174607.388000", "174607.391000", "174607.395000", "174607.398000", "174607.401000", "174607.404000", "174607.407000", "174607.410000", "174607.413000", "174607.416000", "174607.419000", "174607.422000", "174607.425000", "174607.429000", "174607.432000", "174647.349000", "174647.352000", "174647.355000", "174647.365000", "174647.368000", "174647.372000", "174647.375000", "174647.378000", "174647.381000", "174647.384000", "174647.387000", "174647.390000", "174647.394000", "174647.397000", "174647.400000", "174647.403000", "174647.406000", "174647.409000", "174647.412000", "174647.415000", "174647.418000", "174647.421000", "174647.424000", "174647.427000", "174647.430000", "174647.433000", "174647.436000", "174727.348000", "174727.351000", "174727.354000", "174727.357000", "174727.360000", "174727.363000", "174727.366000", "174727.369000", "174727.372000", "174727.376000", "174727.379000", "174727.382000", "174727.385000", "174727.388000", "174727.391000", "174727.394000", "174727.397000", "174727.400000", "174727.403000", "174727.406000", "174727.409000", "174727.412000", "174727.415000", "174727.418000", "174727.421000", "174727.424000", "174727.427000", "174807.349000", "174807.352000", "174807.355000", "174807.359000", "174807.362000", "174807.365000", "174807.368000", "174807.371000", "174807.374000", "174807.377000", "174807.380000", "174807.383000", "174807.386000", "174807.390000", "174807.393000", "174807.396000", "174807.399000", "174807.402000", "174807.405000", "174807.408000", "174807.411000", "174807.415000", "174807.418000", "174807.421000", "174807.424000", "174807.427000", "174847.349000", "174847.352000", "174847.355000", "174847.359000", "174847.362000", "174847.365000", "174847.368000", "174847.371000", "174847.374000", "174847.377000", "174847.380000", "174847.383000", "174847.386000", "174847.390000", "174847.393000", "174847.396000", "174847.399000", "174847.402000", "174847.405000", "174847.408000", "174847.411000", "174847.415000", "174847.418000", "174847.421000", "174847.424000", "174847.427000", "174847.430000", "174858.595000", "174858.599000", "174858.602000", "174858.606000", "174858.609000", "174858.613000", "174858.616000", "174858.620000"],
      "InstanceCreationTime": ["174527.354000", "174527.358000", "174527.364000", "174527.369000", "174527.372000", "174527.376000", "174527.379000", "174527.382000", "174527.385000", "174527.388000", "174527.391000", "174527.399000", "174527.402000", "174527.405000", "174527.408000", "174527.411000", "174527.414000", "174527.417000", "174527.421000", "174527.424000", "174527.427000", "174527.430000", "174527.433000", "174607.349000", "174607.352000", "174607.356000", "174607.359000", "174607.362000", "174607.369000", "174607.372000", "174607.375000", "174607.378000", "174607.382000", "174607.385000", "174607.388000", "174607.391000", "174607.395000", "174607.398000", "174607.401000", "174607.404000", "174607.407000", "174607.410000", "174607.413000", "174607.416000", "174607.419000", "174607.422000", "174607.425000", "174607.429000", "174607.432000", "174647.349000", "174647.352000", "174647.355000", "174647.365000", "174647.368000", "174647.372000", "174647.375000", "174647.378000", "174647.381000", "174647.384000", "174647.387000", "174647.390000", "174647.394000", "174647.397000", "174647.400000", "174647.403000", "174647.406000", "174647.409000", "174647.412000", "174647.415000", "174647.418000", "174647.421000", "174647.424000", "174647.427000", "174647.430000", "174647.433000", "174647.436000", "174727.348000", "174727.351000", "174727.354000", "174727.357000", "174727.360000", "174727.363000", "174727.366000", "174727.369000", "174727.372000", "174727.376000", "174727.379000", "174727.382000", "174727.385000", "174727.388000", "174727.391000", "174727.394000", "174727.397000", "174727.400000", "174727.403000", "174727.406000", "174727.409000", "174727.412000", "174727.415000", "174727.418000", "174727.421000", "174727.424000", "174727.427000", "174807.349000", "174807.352000", "174807.355000", "174807.359000", "174807.362000", "174807.365000", "174807.368000", "174807.371000", "174807.374000", "174807.377000", "174807.380000", "174807.383000", "174807.386000", "174807.390000", "174807.393000", "174807.396000", "174807.399000", "174807.402000", "174807.405000", "174807.408000", "174807.411000", "174807.415000", "174807.418000", "174807.421000", "174807.424000", "174807.427000", "174847.349000", "174847.352000", "174847.355000", "174847.359000", "174847.362000", "174847.365000", "174847.368000", "174847.371000", "174847.374000", "174847.377000", "174847.380000", "174847.383000", "174847.386000", "174847.390000", "174847.393000", "174847.396000", "174847.399000", "174847.402000", "174847.405000", "174847.408000", "174847.411000", "174847.415000", "174847.418000", "174847.421000", "174847.424000", "174847.427000", "174847.430000", "174858.595000", "174858.599000", "174858.602000", "174858.606000", "174858.609000", "174858.613000", "174858.616000", "174858.620000"],
      "InstanceNumber": [1, 2, 3, 4, 5, 6, 7, 8, 9, 10, 11, 12, 13, 14, 15, 16, 17, 18, 19, 20, 21, 22, 23, 24, 25, 26, 27, 28, 29, 30, 31, 32, 33, 34, 35, 36, 37, 38, 39, 40, 41, 42, 43, 44, 45, 46, 47, 48, 49, 50, 51, 52, 53, 54, 55, 56, 57, 58, 59, 60, 61, 62, 63, 64, 65, 66, 67, 68, 69, 70, 71, 72, 73, 74, 75, 76, 77, 78, 79, 80, 81, 82, 83, 84, 85, 86, 87, 88, 89, 90, 91, 92, 93, 94, 95, 96, 97, 98, 99, 100, 101, 102, 103, 104, 105, 106, 107, 108, 109, 110, 111, 112, 113, 114, 115, 116, 117, 118, 119, 120, 121, 122, 123, 124, 125, 126, 127, 128, 129, 130, 131, 132, 133, 134, 135, 136, 137, 138, 139, 140, 141, 142, 143, 144, 145, 146, 147, 148, 149, 150, 151, 152, 153, 154, 155, 156, 157, 158, 159, 160, 161, 162, 163, 164],
      "LargestImagePixelValue": [3626, 4001, 3865, 3808, 3801, 3791, 3841, 3787, 3790, 3773, 3750, 3741, 3728, 3680, 3730, 3658, 3708, 3702, 3684, 3813, 3754, 3731, 3765, 3758, 3779, 3769, 3776, 3762, 3765, 3780, 3758, 3776, 3769, 3761, 3783, 3793, 3795, 3802, 3780, 3761, 3774, 3736, 3784, 3757, 3768, 3685, 3718, 3723, 3707, 3737, 3738, 3734, 3743, 3752, 3747, 3729, 3695, 3714, 3732, 3724, 3754, 3734, 3730, 3773, 3753, 3737, 3741, 3723, 3744, 3772, 3738, 3750, 3756, 3752, 3754, 3760, 3720, 3741, 3745, 3737, 3743, 3729, 3741, 3726, 3727, 3726, 3741, 3571, 3595, 3612, 3658, 3650, 3715, 3697, 3698, 3695, 3711, 3678, 3685, 3718, 3684, 3672, 3729, 3723, 3738, 3745, 3742, 3762, 3773, 3724, 3706, 3729, 3737, 3758, 3734, 3768, 3731, 3755, 3722, 3742, 3735, 3724, 3734, 3755, 3740, 3867, 3857, 3846, 3882, 3850, 3841, 3881, 3840, 3846, 3833, 3808, 3778, 3851, 3814, 3836, 3827, 3836, 3841, 3798, 3808, 3852, 3827, 3837, 3797, 3791, 3820, 3799, 3771, 3769, 3778, 3841, 3810, 3841, 3806, 3814, 3813, 3800, 3796, 3747],
      "WindowCenter": [742.0, 745.0, 742.0, 741.0, 740.0, 739.0, 738.0, 738.0, 739.0, 739.0, 739.0, 739.0, 740.0, 739.0, 739.0, 739.0, 738.0, 737.0, 738.0, 737.0, 736.0, 736.0, 737.0, 736.0, 736.0, 736.0, 737.0, 737.0, 738.0, 738.0, 738.0, 737.0, 737.0, 736.0, 736.0, 737.0, 737.0, 737.0, 738.0, 738.0, 738.0, 738.0, 738.0, 738.0, 738.0, 738.0, 738.0, 738.0, 738.0, 738.0, 738.0, 738.0, 738.0, 737.0, 737.0, 737.0, 737.0, 737.0, 737.0, 738.0, 740.0, 740.0, 740.0, 740.0, 739.0, 739.0, 738.0, 737.0, 737.0, 737.0, 737.0, 737.0, 737.0, 737.0, 737.0, 737.0, 737.0, 737.0, 737.0, 737.0, 737.0, 737.0, 737.0, 737.0, 737.0, 737.0, 737.0, 738.0, 740.0, 740.0, 741.0, 740.0, 740.0, 740.0, 740.0, 740.0, 741.0, 742.0, 742.0, 741.0, 741.0, 740.0, 739.0, 739.0, 739.0, 740.0, 740.0, 740.0, 740.0, 741.0, 740.0, 740.0, 740.0, 740.0, 740.0, 740.0, 740.0, 740.0, 740.0, 740.0, 739.0, 738.0, 738.0, 739.0, 739.0, 739.0, 739.0, 738.0, 738.0, 738.0, 738.0, 737.0, 737.0, 737.0, 737.0, 738.0, 739.0, 740.0, 741.0, 740.0, 739.0, 738.0, 737.0, 738.0, 737.0, 737.0, 738.0, 737.0, 738.0, 739.0, 737.0, 737.0, 737.0, 737.0, 736.0, 736.0, 736.0, 735.0, 735.0, 736.0, 736.0, 737.0, 737.0, 738.0],
      "WindowWidth": [1621.0, 1629.0, 1620.0, 1616.0, 1614.0, 1610.0, 1609.0, 1607.0, 1609.0, 1610.0, 1611.0, 1611.0, 1613.0, 1611.0, 1611.0, 1610.0, 1608.0, 1606.0, 1607.0, 1606.0, 1603.0, 1603.0, 1605.0, 1603.0, 1602.0, 1602.0, 1605.0, 1607.0, 1608.0, 1609.0, 1607.0, 1606.0, 1604.0, 1603.0, 1603.0, 1604.0, 1604.0, 1605.0, 1606.0, 1607.0, 1607.0, 1607.0, 1607.0, 1607.0, 1607.0, 1609.0, 1609.0, 1609.0, 1609.0, 1609.0, 1609.0, 1609.0, 1606.0, 1605.0, 1604.0, 1605.0, 1606.0, 1606.0, 1606.0, 1609.0, 1612.0, 1613.0, 1613.0, 1612.0, 1610.0, 1609.0, 1608.0, 1606.0, 1604.0, 1605.0, 1605.0, 1604.0, 1604.0, 1604.0, 1604.0, 1604.0, 1604.0, 1603.0, 1604.0, 1605.0, 1606.0, 1606.0, 1606.0, 1604.0, 1605.0, 1605.0, 1605.0, 1607.0, 1613.0, 1613.0, 1614.0, 1612.0, 1613.0, 1612.0, 1612.0, 1614.0, 1616.0, 1618.0, 1617.0, 1617.0, 1615.0, 1612.0, 1611.0, 1611.0, 1611.0, 1612.0, 1612.0, 1613.0, 1614.0, 1615.0, 1614.0, 1614.0, 1613.0, 1614.0, 1613.0, 1613.0, 1612.0, 1612.0, 1612.0, 1612.0, 1610.0, 1608.0, 1608.0, 1610.0, 1611.0, 1609.0, 1610.0, 1607.0, 1608.0, 1606.0, 1606.0, 1605.0, 1604.0, 1604.0, 1605.0, 1607.0, 1609.0, 1614.0, 1614.0, 1613.0, 1610.0, 1607.0, 1606.0, 1607.0, 1605.0, 1604.0, 1606.0, 1606.0, 1608.0, 1609.0, 1606.0, 1605.0, 1604.0, 1603.0, 1602.0, 1602.0, 1602.0, 1600.0, 1600.0, 1602.0, 1602.0, 1604.0, 1604.0, 1606.0]
    },
    "slices": {}
  }
}