{
  "AcquisitionMatrixPE": 72,
  "AcquisitionNumber": 1,
  "AcquisitionTime": "17:50:38.345000",
  "BandwidthPerPixelPhaseEncode": 17.943,
  "BaseResolution": 96,
  "BodyPartExamined": "BRAIN",
  "CoilCombinationMethod": "Sum of Squares",
  "ConsistencyInfo": "N4_VE11C_LATEST_20160120",
  "ConversionSoftware": "dcm2niix",
  "ConversionSoftwareVersion": "v1.0.20211006",
  "DerivedVendorReportedEchoSpacing": 0.000552897,
  "DeviceSerialNumber": "166011",
  "EchoTime": 0.03,
  "EchoTrainLength": 58,
  "EffectiveEchoSpacing": 0.000580542,
  "FlipAngle": 62,
  "ImageOrientationPatientDICOM": [0.997699, 0.0122535, 0.0666811, -0.0142798, 0.999448, 0.0299961],
  "ImageType": [
    "ORIGINAL",
    "PRIMARY",
    "M",
    "ND",
    "MOSAIC"
],
  "ImagingFrequency": 123.259,
  "InPlanePhaseEncodingDirectionDICOM": "COL",
  "InstitutionAddress": "West 130th Street 610,NY,NYC,US,10025",
  "InstitutionName": "MBBI",
  "MRAcquisitionType": "2D",
  "MagneticFieldStrength": 3,
  "Manufacturer": "Siemens",
  "ManufacturersModelName": "Prisma",
  "Modality": "MR",
  "MultibandAccelerationFactor": 3,
  "PartialFourier": 0.75,
  "PatientPosition": "HFS",
  "PercentPhaseFOV": 100,
  "PercentSampling": 75,
  "PhaseEncodingDirection": "j-",
  "PhaseEncodingSteps": 58,
  "PhaseOversampling": 0.05,
  "PhaseResolution": 0.75,
  "PixelBandwidth": 2265,
  "ProcedureStepDescription": "White^Word_recognition",
  "ProtocolName": "func_catLoc_run1",
  "PulseSequenceDetails": "%SiemensSeq%\\ep2d_bold",
  "ReceiveCoilActiveElements": "HC1-6",
  "ReceiveCoilName": "HeadNeck_64",
  "ReconMatrixPE": 96,
  "RefLinesPE": 40,
  "RepetitionTime": 1.5,
  "SAR": 0.0500977,
  "ScanOptions": "PFP\\FS",
  "ScanningSequence": "EP",
  "SequenceName": "*epfid2d1_72",
  "SequenceVariant": "SK\\OSP",
  "SeriesDescription": "func_catLoc_run1",
  "SeriesNumber": 11,
  "ShimSetting": [-1137, -1403, 681, 526, -116, -40, -24, -39],
  "SliceThickness": 2,
  "SliceTiming": [1.0775, 0, 0.74, 0.0675, 0.8075, 0.135, 0.875, 0.2025, 0.9425, 0.27, 1.01, 0.405, 1.145, 0.4725, 1.2125, 0.54, 1.28, 0.6075, 1.3475, 0.6725, 1.4125, 0.3375, 1.0775, 0, 0.74, 0.0675, 0.8075, 0.135, 0.875, 0.2025, 0.9425, 0.27, 1.01, 0.405, 1.145, 0.4725, 1.2125, 0.54, 1.28, 0.6075, 1.3475, 0.6725, 1.4125, 0.3375, 1.0775, 0, 0.74, 0.0675, 0.8075, 0.135, 0.875, 0.2025, 0.9425, 0.27, 1.01, 0.405, 1.145, 0.4725, 1.2125, 0.54, 1.28, 0.6075, 1.3475, 0.6725, 1.4125, 0.3375],
  "SoftwareVersions": "syngo MR E11",
  "SpacingBetweenSlices": 2,
  "StationName": "AWP166011",
  "TaskName": "catLoc",
  "TotalReadoutTime": 0.0551515,
  "TxRefAmp": 216.676,
  "dcmmeta_affine": [
    [-1.9953981637954712, -0.028559578582644463, 0.13255341351032257, 98.80061340332031],
    [-0.02450704760849476, 1.9988960027694702, 0.06175856664776802, -86.77008819580078],
    [0.13336214423179626, -0.059992216527462006, 1.9946467876434326, -39.028480529785156],
    [0.0, 0.0, 0.0, 1.0]
],
  "dcmmeta_reorient_transform": [
    [0.0, -1.0, 0.0, 95.0],
    [1.0, 0.0, 0.0, 0.0],
    [0.0, 0.0, 1.0, 0.0],
    [0.0, 0.0, 0.0, 1.0]
],
  "dcmmeta_shape": [96, 96, 66, 214],
  "dcmmeta_slice_dim": 2,
  "dcmmeta_version": 0.6,
  "global": {
    "const": {
      "AcquisitionMatrix": [96, 0, 0, 72],
      "AngioFlag": "N",
      "BitsAllocated": 16,
      "BitsStored": 12,
      "BodyPartExamined": "BRAIN",
      "Columns": 864,
      "EchoNumbers": 1,
      "EchoTime": 30.0,
      "EchoTrainLength": 58,
      "FlipAngle": 62.0,
      "HighBit": 11,
      "ImageOrientationPatient": [0.99769909602013, 0.01225352393953, 0.06668106891527, -0.01427978912, 0.99944800819066, 0.02999610885455],
      "ImagePositionPatient": [-851.35348395672, -880.11180937984, -118.97581316051],
      "ImageType": [
        "ORIGINAL",
        "PRIMARY",
        "M",
        "ND",
        "MOSAIC"
],
      "ImagedNucleus": "1H",
      "ImagingFrequency": 123.259218,
      "InPlanePhaseEncodingDirection": "COL",
      "MRAcquisitionType": "2D",
      "MagneticFieldStrength": 3.0,
      "Manufacturer": "SIEMENS",
      "ManufacturerModelName": "Prisma",
      "Modality": "MR",
      "NumberOfAverages": 1.0,
      "NumberOfPhaseEncodingSteps": 58,
      "PercentPhaseFieldOfView": 100.0,
      "PercentSampling": 75.0,
      "PerformedProcedureStepStartTime": "172427.456000",
      "PhotometricInterpretation": "MONOCHROME2",
      "PixelBandwidth": 2265.0,
      "PixelRepresentation": 0,
      "PixelSpacing": [2.0, 2.0],
      "ProtocolName": "func_catLoc_run1",
      "RepetitionTime": 1500.0,
      "Rows": 864,
      "SAR": 0.05009770561272,
      "SamplesPerPixel": 1,
      "ScanOptions": [
        "PFP",
        "FS"
],
      "ScanningSequence": "EP",
      "SequenceName": "*epfid2d1_72",
      "SequenceVariant": [
        "SK",
        "OSP"
],
      "SeriesDescription": "func_catLoc_run1",
      "SeriesNumber": 11,
      "SeriesTime": "175051.690000",
      "SliceLocation": -35.055233375068,
      "SliceThickness": 2.0,
      "SmallestImagePixelValue": 0,
      "SoftwareVersions": "syngo MR E11",
      "SpacingBetweenSlices": 2.0000000424366,
      "SpecificCharacterSet": "ISO_IR 100",
      "StudyID": "1",
      "StudyTime": "172427.413000",
      "TransmitCoilName": "Body",
      "VariableFlipAngleFlag": "N",
      "WindowCenterWidthExplanation": "Algo1",
      "dBdt": 0.0},
    "slices": {}
  },
  "time": {
    "samples": {
      "AcquisitionNumber": [1, 2, 3, 4, 5, 6, 7, 8, 9, 10, 11, 12, 13, 14, 15, 16, 17, 18, 19, 20, 21, 22, 23, 24, 25, 26, 27, 28, 29, 30, 31, 32, 33, 34, 35, 36, 37, 38, 39, 40, 41, 42, 43, 44, 45, 46, 47, 48, 49, 50, 51, 52, 53, 54, 55, 56, 57, 58, 59, 60, 61, 62, 63, 64, 65, 66, 67, 68, 69, 70, 71, 72, 73, 74, 75, 76, 77, 78, 79, 80, 81, 82, 83, 84, 85, 86, 87, 88, 89, 90, 91, 92, 93, 94, 95, 96, 97, 98, 99, 100, 101, 102, 103, 104, 105, 106, 107, 108, 109, 110, 111, 112, 113, 114, 115, 116, 117, 118, 119, 120, 121, 122, 123, 124, 125, 126, 127, 128, 129, 130, 131, 132, 133, 134, 135, 136, 137, 138, 139, 140, 141, 142, 143, 144, 145, 146, 147, 148, 149, 150, 151, 152, 153, 154, 155, 156, 157, 158, 159, 160, 161, 162, 163, 164, 165, 166, 167, 168, 169, 170, 171, 172, 173, 174, 175, 176, 177, 178, 179, 180, 181, 182, 183, 184, 185, 186, 187, 188, 189, 190, 191, 192, 193, 194, 195, 196, 197, 198, 199, 200, 201, 202, 203, 204, 205, 206, 207, 208, 209, 210, 211, 212, 213, 214],
      "AcquisitionTime": ["175038.345000", "175039.845000", "175041.345000", "175042.845000", "175044.345000", "175045.845000", "175047.345000", "175048.845000", "175050.345000", "175051.845000", "175053.345000", "175054.845000", "175056.345000", "175057.845000", "175059.345000", "175100.845000", "175102.345000", "175103.845000", "175105.345000", "175106.845000", "175108.345000", "175109.845000", "175111.345000", "175112.845000", "175114.345000", "175115.845000", "175117.345000", "175118.845000", "175120.345000", "175121.845000", "175123.345000", "175124.845000", "175126.345000", "175127.845000", "175129.345000", "175130.845000", "175132.345000", "175133.845000", "175135.345000", "175136.845000", "175138.345000", "175139.845000", "175141.345000", "175142.845000", "175144.345000", "175145.845000", "175147.345000", "175148.845000", "175150.345000", "175151.845000", "175153.345000", "175154.845000", "175156.345000", "175157.845000", "175159.345000", "175200.845000", "175202.345000", "175203.845000", "175205.345000", "175206.845000", "175208.345000", "175209.845000", "175211.345000", "175212.845000", "175214.345000", "175215.845000", "175217.345000", "175218.845000", "175220.345000", "175221.845000", "175223.345000", "175224.845000", "175226.345000", "175227.845000", "175229.345000", "175230.845000", "175232.345000", "175233.845000", "175235.345000", "175236.845000", "175238.345000", "175239.845000", "175241.345000", "175242.845000", "175244.345000", "175245.845000", "175247.345000", "175248.845000", "175250.345000", "175251.845000", "175253.345000", "175254.845000", "175256.345000", "175257.845000", "175259.345000", "175300.845000", "175302.345000", "175303.845000", "175305.345000", "175306.845000", "175308.345000", "175309.845000", "175311.345000", "175312.845000", "175314.345000", "175315.845000", "175317.345000", "175318.845000", "175320.345000", "175321.845000", "175323.345000", "175324.845000", "175326.345000", "175327.845000", "175329.345000", "175330.845000", "175332.345000", "175333.845000", "175335.345000", "175336.845000", "175338.345000", "175339.845000", "175341.345000", "175342.845000", "175344.345000", "175345.845000", "175347.345000", "175348.845000", "175350.345000", "175351.845000", "175353.345000", "175354.845000", "175356.345000", "175357.845000", "175359.345000", "175400.845000", "175402.345000", "175403.845000", "175405.345000", "175406.845000", "175408.345000", "175409.845000", "175411.345000", "175412.845000", "175414.345000", "175415.845000", "175417.345000", "175418.845000", "175420.345000", "175421.845000", "175423.345000", "175424.845000", "175426.345000", "175427.845000", "175429.345000", "175430.845000", "175432.345000", "175433.845000", "175435.345000", "175436.845000", "175438.345000", "175439.845000", "175441.345000", "175442.845000", "175444.345000", "175445.845000", "175447.345000", "175448.845000", "175450.345000", "175451.845000", "175453.345000", "175454.845000", "175456.345000", "175457.845000", "175459.345000", "175500.845000", "175502.345000", "175503.845000", "175505.345000", "175506.845000", "175508.345000", "175509.845000", "175511.345000", "175512.845000", "175514.345000", "175515.845000", "175517.345000", "175518.845000", "175520.345000", "175521.845000", "175523.345000", "175524.845000", "175526.345000", "175527.845000", "175529.345000", "175530.845000", "175532.345000", "175533.845000", "175535.345000", "175536.845000", "175538.345000", "175539.845000", "175541.345000", "175542.845000", "175544.345000", "175545.845000", "175547.345000", "175548.845000", "175550.345000", "175551.845000", "175553.345000", "175554.845000", "175556.345000", "175557.845000"],
      "ContentTime": ["175051.694000", "175051.698000", "175051.701000", "175051.704000", "175051.707000", "175051.710000", "175051.713000", "175051.716000", "175051.719000", "175131.689000", "175131.704000", "175131.707000", "175131.710000", "175131.713000", "175131.716000", "175131.719000", "175131.722000", "175131.726000", "175131.729000", "175131.732000", "175131.735000", "175131.738000", "175131.741000", "175131.743000", "175131.747000", "175131.750000", "175131.753000", "175131.756000", "175131.759000", "175131.762000", "175131.765000", "175131.768000", "175131.771000", "175131.774000", "175131.777000", "175211.690000", "175211.693000", "175211.696000", "175211.699000", "175211.702000", "175211.705000", "175211.708000", "175211.711000", "175211.721000", "175211.724000", "175211.727000", "175211.730000", "175211.733000", "175211.736000", "175211.739000", "175211.742000", "175211.745000", "175211.748000", "175211.751000", "175211.754000", "175211.757000", "175211.760000", "175211.764000", "175211.766000", "175211.770000", "175211.773000", "175211.776000", "175251.689000", "175251.692000", "175251.695000", "175251.698000", "175251.701000", "175251.704000", "175251.707000", "175251.710000", "175251.714000", "175251.716000", "175251.720000", "175251.722000", "175251.726000", "175251.729000", "175251.732000", "175251.735000", "175251.738000", "175251.741000", "175251.744000", "175251.747000", "175251.750000", "175251.753000", "175251.756000", "175251.759000", "175251.762000", "175251.765000", "175251.768000", "175331.689000", "175331.692000", "175331.695000", "175331.698000", "175331.701000", "175331.704000", "175331.708000", "175331.711000", "175331.714000", "175331.717000", "175331.720000", "175331.723000", "175331.726000", "175331.729000", "175331.732000", "175331.735000", "175331.738000", "175331.741000", "175331.744000", "175331.747000", "175331.750000", "175331.753000", "175331.756000", "175331.759000", "175331.762000", "175331.765000", "175411.690000", "175411.693000", "175411.696000", "175411.699000", "175411.702000", "175411.706000", "175411.709000", "175411.712000", "175411.715000", "175411.718000", "175411.721000", "175411.724000", "175411.727000", "175411.730000", "175411.733000", "175411.748000", "175411.751000", "175411.754000", "175411.757000", "175411.760000", "175411.763000", "175411.766000", "175411.769000", "175411.772000", "175411.775000", "175411.778000", "175411.781000", "175451.690000", "175451.693000", "175451.696000", "175451.699000", "175451.702000", "175451.705000", "175451.709000", "175451.723000", "175451.726000", "175451.729000", "175451.732000", "175451.735000", "175451.738000", "175451.741000", "175451.744000", "175451.747000", "175451.750000", "175451.753000", "175451.756000", "175451.759000", "175451.762000", "175451.765000", "175451.768000", "175451.771000", "175451.774000", "175451.777000", "175451.780000", "175531.689000", "175531.692000", "175531.696000", "175531.699000", "175531.702000", "175531.705000", "175531.708000", "175531.711000", "175531.714000", "175531.717000", "175531.720000", "175531.723000", "175531.726000", "175531.729000", "175531.732000", "175531.735000", "175531.738000", "175531.741000", "175531.744000", "175531.747000", "175531.750000", "175531.754000", "175531.757000", "175531.760000", "175531.763000", "175531.766000", "175558.848000", "175558.864000", "175558.867000", "175558.870000", "175558.874000", "175558.877000", "175558.881000", "175558.884000", "175558.888000", "175558.891000", "175558.894000", "175558.897000", "175558.901000", "175558.904000", "175558.907000", "175558.910000", "175558.914000", "175558.917000", "175558.920000"],
      "InstanceCreationTime": ["175051.694000", "175051.698000", "175051.701000", "175051.704000", "175051.707000", "175051.710000", "175051.713000", "175051.716000", "175051.719000", "175131.689000", "175131.704000", "175131.707000", "175131.710000", "175131.713000", "175131.716000", "175131.719000", "175131.722000", "175131.726000", "175131.729000", "175131.732000", "175131.735000", "175131.738000", "175131.741000", "175131.743000", "175131.747000", "175131.750000", "175131.753000", "175131.756000", "175131.759000", "175131.762000", "175131.765000", "175131.768000", "175131.771000", "175131.774000", "175131.777000", "175211.690000", "175211.693000", "175211.696000", "175211.699000", "175211.702000", "175211.705000", "175211.708000", "175211.711000", "175211.721000", "175211.724000", "175211.727000", "175211.730000", "175211.733000", "175211.736000", "175211.739000", "175211.742000", "175211.745000", "175211.748000", "175211.751000", "175211.754000", "175211.757000", "175211.760000", "175211.764000", "175211.766000", "175211.770000", "175211.773000", "175211.776000", "175251.689000", "175251.692000", "175251.695000", "175251.698000", "175251.701000", "175251.704000", "175251.707000", "175251.710000", "175251.714000", "175251.716000", "175251.720000", "175251.722000", "175251.726000", "175251.729000", "175251.732000", "175251.735000", "175251.738000", "175251.741000", "175251.744000", "175251.747000", "175251.750000", "175251.753000", "175251.756000", "175251.759000", "175251.762000", "175251.765000", "175251.768000", "175331.689000", "175331.692000", "175331.695000", "175331.698000", "175331.701000", "175331.704000", "175331.708000", "175331.711000", "175331.714000", "175331.717000", "175331.720000", "175331.723000", "175331.726000", "175331.729000", "175331.732000", "175331.735000", "175331.738000", "175331.741000", "175331.744000", "175331.747000", "175331.750000", "175331.753000", "175331.756000", "175331.759000", "175331.762000", "175331.765000", "175411.690000", "175411.693000", "175411.696000", "175411.699000", "175411.702000", "175411.706000", "175411.709000", "175411.712000", "175411.715000", "175411.718000", "175411.721000", "175411.724000", "175411.727000", "175411.730000", "175411.733000", "175411.748000", "175411.751000", "175411.754000", "175411.757000", "175411.760000", "175411.763000", "175411.766000", "175411.769000", "175411.772000", "175411.775000", "175411.778000", "175411.781000", "175451.690000", "175451.693000", "175451.696000", "175451.699000", "175451.702000", "175451.705000", "175451.709000", "175451.723000", "175451.726000", "175451.729000", "175451.732000", "175451.735000", "175451.738000", "175451.741000", "175451.744000", "175451.747000", "175451.750000", "175451.753000", "175451.756000", "175451.759000", "175451.762000", "175451.765000", "175451.768000", "175451.771000", "175451.774000", "175451.777000", "175451.780000", "175531.689000", "175531.692000", "175531.696000", "175531.699000", "175531.702000", "175531.705000", "175531.708000", "175531.711000", "175531.714000", "175531.717000", "175531.720000", "175531.723000", "175531.726000", "175531.729000", "175531.732000", "175531.735000", "175531.738000", "175531.741000", "175531.744000", "175531.747000", "175531.750000", "175531.754000", "175531.757000", "175531.760000", "175531.763000", "175531.766000", "175558.848000", "175558.864000", "175558.867000", "175558.870000", "175558.874000", "175558.877000", "175558.881000", "175558.884000", "175558.888000", "175558.891000", "175558.894000", "175558.897000", "175558.901000", "175558.904000", "175558.907000", "175558.910000", "175558.914000", "175558.917000", "175558.920000"],
      "InstanceNumber": [1, 2, 3, 4, 5, 6, 7, 8, 9, 10, 11, 12, 13, 14, 15, 16, 17, 18, 19, 20, 21, 22, 23, 24, 25, 26, 27, 28, 29, 30, 31, 32, 33, 34, 35, 36, 37, 38, 39, 40, 41, 42, 43, 44, 45, 46, 47, 48, 49, 50, 51, 52, 53, 54, 55, 56, 57, 58, 59, 60, 61, 62, 63, 64, 65, 66, 67, 68, 69, 70, 71, 72, 73, 74, 75, 76, 77, 78, 79, 80, 81, 82, 83, 84, 85, 86, 87, 88, 89, 90, 91, 92, 93, 94, 95, 96, 97, 98, 99, 100, 101, 102, 103, 104, 105, 106, 107, 108, 109, 110, 111, 112, 113, 114, 115, 116, 117, 118, 119, 120, 121, 122, 123, 124, 125, 126, 127, 128, 129, 130, 131, 132, 133, 134, 135, 136, 137, 138, 139, 140, 141, 142, 143, 144, 145, 146, 147, 148, 149, 150, 151, 152, 153, 154, 155, 156, 157, 158, 159, 160, 161, 162, 163, 164, 165, 166, 167, 168, 169, 170, 171, 172, 173, 174, 175, 176, 177, 178, 179, 180, 181, 182, 183, 184, 185, 186, 187, 188, 189, 190, 191, 192, 193, 194, 195, 196, 197, 198, 199, 200, 201, 202, 203, 204, 205, 206, 207, 208, 209, 210, 211, 212, 213, 214],
      "LargestImagePixelValue": [4022, 3944, 3909, 3917, 3868, 3873, 3875, 3870, 3854, 3870, 3871, 3870, 3887, 3886, 3891, 3851, 3892, 3854, 3854, 3842, 3876, 3857, 3854, 3855, 3849, 3833, 3843, 3861, 3855, 3863, 3833, 3827, 3823, 3852, 3821, 3800, 3811, 3782, 3808, 3818, 3802, 3813, 3840, 3707, 3776, 3791, 3785, 3756, 3797, 3813, 3789, 3695, 3725, 3721, 3760, 3783, 3726, 3777, 3790, 3765, 3805, 3771, 3685, 3720, 3729, 3700, 3693, 3686, 3709, 3678, 3680, 3650, 3660, 3665, 3710, 3691, 3703, 3696, 3818, 3793, 3759, 3767, 3750, 3782, 3726, 3735, 3710, 3721, 3692, 3733, 3660, 3722, 3688, 3694, 3692, 3728, 3712, 3745, 3742, 3760, 3716, 3666, 3677, 3686, 3682, 3679, 3656, 3651, 3683, 3695, 3702, 3693, 3676, 3741, 3675, 3652, 3681, 3731, 3722, 3744, 3758, 3787, 3721, 3746, 3739, 3765, 3775, 3781, 3753, 3784, 3757, 3771, 3776, 3774, 3753, 3771, 3774, 3779, 3783, 3790, 3778, 3773, 3746, 3825, 3853, 3769, 3776, 3785, 3763, 3770, 3787, 3797, 3790, 3779, 3784, 3769, 3749, 3761, 3772, 3753, 3778, 3800, 3792, 3760, 3800, 3728, 3780, 3797, 3795, 3810, 3806, 3814, 3795, 3809, 3814, 3827, 3806, 3806, 3800, 3830, 3816, 3814, 3821, 3796, 3804, 3798, 3807, 3798, 3791, 3799, 3800, 3784, 3805, 3802, 3797, 3860, 3800, 3792, 3788, 3859, 3809, 3801, 3789, 3791, 3774, 3773, 3789, 3776, 3772, 3763, 3834, 3812, 3796, 3840],
      "WindowCenter": [743.0, 740.0, 739.0, 739.0, 738.0, 737.0, 737.0, 738.0, 738.0, 738.0, 738.0, 738.0, 738.0, 738.0, 738.0, 738.0, 738.0, 739.0, 738.0, 738.0, 739.0, 738.0, 737.0, 738.0, 737.0, 738.0, 738.0, 738.0, 737.0, 737.0, 737.0, 737.0, 737.0, 737.0, 737.0, 737.0, 737.0, 737.0, 737.0, 737.0, 737.0, 737.0, 738.0, 737.0, 738.0, 737.0, 737.0, 737.0, 737.0, 736.0, 735.0, 736.0, 735.0, 736.0, 737.0, 737.0, 737.0, 737.0, 737.0, 737.0, 737.0, 736.0, 736.0, 736.0, 735.0, 735.0, 736.0, 736.0, 737.0, 737.0, 737.0, 736.0, 735.0, 736.0, 736.0, 736.0, 736.0, 736.0, 736.0, 738.0, 738.0, 738.0, 738.0, 737.0, 736.0, 735.0, 736.0, 736.0, 736.0, 736.0, 735.0, 735.0, 735.0, 734.0, 734.0, 734.0, 735.0, 735.0, 735.0, 736.0, 736.0, 735.0, 735.0, 735.0, 735.0, 735.0, 735.0, 735.0, 735.0, 735.0, 735.0, 735.0, 735.0, 735.0, 735.0, 735.0, 735.0, 736.0, 737.0, 738.0, 738.0, 737.0, 737.0, 735.0, 735.0, 736.0, 735.0, 736.0, 736.0, 736.0, 736.0, 736.0, 736.0, 736.0, 737.0, 737.0, 738.0, 738.0, 738.0, 738.0, 737.0, 738.0, 737.0, 737.0, 738.0, 739.0, 739.0, 739.0, 738.0, 737.0, 737.0, 737.0, 737.0, 737.0, 738.0, 738.0, 738.0, 738.0, 737.0, 737.0, 738.0, 738.0, 738.0, 738.0, 739.0, 741.0, 739.0, 739.0, 738.0, 738.0, 738.0, 738.0, 739.0, 738.0, 738.0, 737.0, 737.0, 738.0, 738.0, 739.0, 739.0, 739.0, 739.0, 739.0, 739.0, 739.0, 740.0, 740.0, 740.0, 740.0, 740.0, 739.0, 738.0, 738.0, 738.0, 737.0, 738.0, 738.0, 738.0, 738.0, 739.0, 739.0, 739.0, 739.0, 739.0, 738.0, 738.0, 738.0, 738.0, 738.0, 738.0, 738.0, 738.0, 736.0],
      "WindowWidth": [1624.0, 1615.0, 1611.0, 1609.0, 1607.0, 1606.0, 1606.0, 1606.0, 1607.0, 1607.0, 1607.0, 1607.0, 1607.0, 1607.0, 1608.0, 1608.0, 1608.0, 1609.0, 1609.0, 1609.0, 1609.0, 1608.0, 1606.0, 1607.0, 1606.0, 1606.0, 1607.0, 1607.0, 1606.0, 1605.0, 1605.0, 1604.0, 1606.0, 1606.0, 1606.0, 1605.0, 1605.0, 1605.0, 1604.0, 1604.0, 1605.0, 1604.0, 1606.0, 1606.0, 1607.0, 1605.0, 1605.0, 1604.0, 1603.0, 1603.0, 1600.0, 1601.0, 1600.0, 1602.0, 1603.0, 1603.0, 1604.0, 1605.0, 1605.0, 1604.0, 1603.0, 1601.0, 1601.0, 1601.0, 1600.0, 1599.0, 1602.0, 1602.0, 1604.0, 1603.0, 1604.0, 1602.0, 1600.0, 1601.0, 1601.0, 1601.0, 1601.0, 1601.0, 1603.0, 1608.0, 1607.0, 1606.0, 1607.0, 1604.0, 1601.0, 1599.0, 1600.0, 1600.0, 1601.0, 1600.0, 1599.0, 1598.0, 1598.0, 1597.0, 1597.0, 1596.0, 1598.0, 1598.0, 1600.0, 1602.0, 1601.0, 1600.0, 1600.0, 1599.0, 1598.0, 1598.0, 1599.0, 1599.0, 1600.0, 1600.0, 1598.0, 1598.0, 1599.0, 1598.0, 1598.0, 1599.0, 1599.0, 1602.0, 1605.0, 1607.0, 1606.0, 1604.0, 1604.0, 1599.0, 1599.0, 1600.0, 1600.0, 1601.0, 1601.0, 1602.0, 1602.0, 1602.0, 1602.0, 1602.0, 1604.0, 1604.0, 1607.0, 1607.0, 1607.0, 1608.0, 1606.0, 1606.0, 1604.0, 1605.0, 1607.0, 1610.0, 1611.0, 1610.0, 1607.0, 1605.0, 1605.0, 1605.0, 1605.0, 1605.0, 1607.0, 1606.0, 1606.0, 1606.0, 1605.0, 1604.0, 1606.0, 1606.0, 1607.0, 1608.0, 1610.0, 1616.0, 1612.0, 1609.0, 1608.0, 1608.0, 1608.0, 1609.0, 1609.0, 1607.0, 1607.0, 1605.0, 1606.0, 1607.0, 1608.0, 1609.0, 1611.0, 1610.0, 1610.0, 1611.0, 1611.0, 1611.0, 1612.0, 1612.0, 1613.0, 1612.0, 1612.0, 1610.0, 1608.0, 1607.0, 1606.0, 1606.0, 1607.0, 1607.0, 1608.0, 1608.0, 1610.0, 1611.0, 1611.0, 1611.0, 1609.0, 1608.0, 1608.0, 1606.0, 1606.0, 1607.0, 1606.0, 1606.0, 1606.0, 1603.0]
    },
    "slices": {}
  }
}