{
  "AcquisitionMatrixPE": 72,
  "AcquisitionNumber": 1,
  "AcquisitionTime": "14:22:21.742500",
  "BandwidthPerPixelPhaseEncode": 17.943,
  "BaseResolution": 96,
  "BodyPartExamined": "BRAIN",
  "CoilCombinationMethod": "Sum of Squares",
  "ConsistencyInfo": "N4_VE11C_LATEST_20160120",
  "ConversionSoftware": "dcm2niix",
  "ConversionSoftwareVersion": "v1.0.20211006",
  "DerivedVendorReportedEchoSpacing": 0.000552897,
  "DeviceSerialNumber": "166011",
  "EchoTime": 0.03,
  "EchoTrainLength": 58,
  "EffectiveEchoSpacing": 0.000580542,
  "FlipAngle": 62,
  "ImageOrientationPatientDICOM": [1, 0, 0, 0, 0.993373, -0.114937],
  "ImageType": [
    "ORIGINAL",
    "PRIMARY",
    "M",
    "ND",
    "MOSAIC"
],
  "ImagingFrequency": 123.259,
  "InPlanePhaseEncodingDirectionDICOM": "COL",
  "InstitutionAddress": "West 130th Street 610,NY,NYC,US,10025",
  "InstitutionName": "MBBI",
  "MRAcquisitionType": "2D",
  "MagneticFieldStrength": 3,
  "Manufacturer": "Siemens",
  "ManufacturersModelName": "Prisma",
  "Modality": "MR",
  "MultibandAccelerationFactor": 3,
  "PartialFourier": 0.75,
  "PatientPosition": "HFS",
  "PercentPhaseFOV": 100,
  "PercentSampling": 75,
  "PhaseEncodingDirection": "j-",
  "PhaseEncodingSteps": 58,
  "PhaseOversampling": 0.05,
  "PhaseResolution": 0.75,
  "PixelBandwidth": 2265,
  "ProcedureStepDescription": "White^Word_recognition",
  "ProtocolName": "func_catLoc_run4",
  "PulseSequenceDetails": "%SiemensSeq%\\ep2d_bold",
  "ReceiveCoilActiveElements": "HC2,4,6,7;NC2",
  "ReceiveCoilName": "HeadNeck_64",
  "ReconMatrixPE": 96,
  "RefLinesPE": 40,
  "RepetitionTime": 1.5,
  "SAR": 0.0522805,
  "ScanOptions": "PFP\\FS",
  "ScanningSequence": "EP",
  "SequenceName": "*epfid2d1_72",
  "SequenceVariant": "SK\\OSP",
  "SeriesDescription": "func_catLoc_run4",
  "SeriesNumber": 21,
  "ShimSetting": [-1151, -1363, 672, 414, -77, 142, 42, -6],
  "SliceThickness": 2,
  "SliceTiming": [1.075, 0, 0.74, 0.0675, 0.8075, 0.135, 0.875, 0.2025, 0.9425, 0.27, 1.01, 0.4025, 1.1425, 0.47, 1.21, 0.5375, 1.2775, 0.605, 1.345, 0.6725, 1.4125, 0.335, 1.075, 0, 0.74, 0.0675, 0.8075, 0.135, 0.875, 0.2025, 0.9425, 0.27, 1.01, 0.4025, 1.1425, 0.47, 1.21, 0.5375, 1.2775, 0.605, 1.345, 0.6725, 1.4125, 0.335, 1.075, 0, 0.74, 0.0675, 0.8075, 0.135, 0.875, 0.2025, 0.9425, 0.27, 1.01, 0.4025, 1.1425, 0.47, 1.21, 0.5375, 1.2775, 0.605, 1.345, 0.6725, 1.4125, 0.335],
  "SoftwareVersions": "syngo MR E11",
  "SpacingBetweenSlices": 2,
  "StationName": "AWP166011",
  "TaskName": "catLoc",
  "TotalReadoutTime": 0.0551515,
  "TxRefAmp": 250.553,
  "dcmmeta_affine": [
    [-2.0, 0.0, 0.0, 98.55884552001953],
    [0.0, 1.9867454767227173, -0.22987429797649384, -74.26009368896484],
    [0.0, 0.22987429797649384, 1.9867454767227173, -98.86181640625],
    [0.0, 0.0, 0.0, 1.0]
],
  "dcmmeta_reorient_transform": [
    [0.0, -1.0, 0.0, 95.0],
    [1.0, 0.0, 0.0, 0.0],
    [0.0, 0.0, 1.0, 0.0],
    [0.0, 0.0, 0.0, 1.0]
],
  "dcmmeta_shape": [96, 96, 66, 214],
  "dcmmeta_slice_dim": 2,
  "dcmmeta_version": 0.6,
  "global": {
    "const": {
      "AcquisitionMatrix": [96, 0, 0, 72],
      "AngioFlag": "N",
      "BitsAllocated": 16,
      "BitsStored": 12,
      "BodyPartExamined": "BRAIN",
      "Columns": 864,
      "EchoNumbers": 1,
      "EchoTime": 30.0,
      "EchoTrainLength": 58,
      "FlipAngle": 62.0,
      "HighBit": 11,
      "ImageOrientationPatient": [1.0, 0.0, 0.0, 0.0, 0.99337276552689, -0.1149371511282],
      "ImagePositionPatient": [-866.55884718895, -877.39101277461, 11.247974575724],
      "ImageType": [
        "ORIGINAL",
        "PRIMARY",
        "M",
        "ND",
        "MOSAIC"
],
      "ImagedNucleus": "1H",
      "ImagingFrequency": 123.259455,
      "InPlanePhaseEncodingDirection": "COL",
      "MRAcquisitionType": "2D",
      "MagneticFieldStrength": 3.0,
      "Manufacturer": "SIEMENS",
      "ManufacturerModelName": "Prisma",
      "Modality": "MR",
      "NumberOfAverages": 1.0,
      "NumberOfPhaseEncodingSteps": 58,
      "PercentPhaseFieldOfView": 100.0,
      "PercentSampling": 75.0,
      "PerformedProcedureStepStartTime": "131908.688000",
      "PhotometricInterpretation": "MONOCHROME2",
      "PixelBandwidth": 2265.0,
      "PixelRepresentation": 0,
      "PixelSpacing": [2.0, 2.0],
      "ProtocolName": "func_catLoc_run4",
      "RepetitionTime": 1500.0,
      "Rows": 864,
      "SAR": 0.05228050057651,
      "SamplesPerPixel": 1,
      "ScanOptions": [
        "PFP",
        "FS"
],
      "ScanningSequence": "EP",
      "SequenceName": "*epfid2d1_72",
      "SequenceVariant": [
        "SK",
        "OSP"
],
      "SeriesDescription": "func_catLoc_run4",
      "SeriesNumber": 21,
      "SeriesTime": "142224.656000",
      "SliceLocation": -89.671391822919,
      "SliceThickness": 2.0,
      "SmallestImagePixelValue": 0,
      "SoftwareVersions": "syngo MR E11",
      "SpacingBetweenSlices": 1.9999999807053,
      "SpecificCharacterSet": "ISO_IR 100",
      "StudyID": "2",
      "StudyTime": "131908.615000",
      "TransmitCoilName": "Body",
      "VariableFlipAngleFlag": "N",
      "WindowCenterWidthExplanation": "Algo1",
      "dBdt": 0.0},
    "slices": {}
  },
  "time": {
    "samples": {
      "AcquisitionNumber": [1, 2, 3, 4, 5, 6, 7, 8, 9, 10, 11, 12, 13, 14, 15, 16, 17, 18, 19, 20, 21, 22, 23, 24, 25, 26, 27, 28, 29, 30, 31, 32, 33, 34, 35, 36, 37, 38, 39, 40, 41, 42, 43, 44, 45, 46, 47, 48, 49, 50, 51, 52, 53, 54, 55, 56, 57, 58, 59, 60, 61, 62, 63, 64, 65, 66, 67, 68, 69, 70, 71, 72, 73, 74, 75, 76, 77, 78, 79, 80, 81, 82, 83, 84, 85, 86, 87, 88, 89, 90, 91, 92, 93, 94, 95, 96, 97, 98, 99, 100, 101, 102, 103, 104, 105, 106, 107, 108, 109, 110, 111, 112, 113, 114, 115, 116, 117, 118, 119, 120, 121, 122, 123, 124, 125, 126, 127, 128, 129, 130, 131, 132, 133, 134, 135, 136, 137, 138, 139, 140, 141, 142, 143, 144, 145, 146, 147, 148, 149, 150, 151, 152, 153, 154, 155, 156, 157, 158, 159, 160, 161, 162, 163, 164, 165, 166, 167, 168, 169, 170, 171, 172, 173, 174, 175, 176, 177, 178, 179, 180, 181, 182, 183, 184, 185, 186, 187, 188, 189, 190, 191, 192, 193, 194, 195, 196, 197, 198, 199, 200, 201, 202, 203, 204, 205, 206, 207, 208, 209, 210, 211, 212, 213, 214],
      "AcquisitionTime": ["142221.742500", "142223.242500", "142224.742500", "142226.242500", "142227.742500", "142229.242500", "142230.742500", "142232.242500", "142233.742500", "142235.242500", "142236.742500", "142238.242500", "142239.742500", "142241.242500", "142242.742500", "142244.242500", "142245.742500", "142247.242500", "142248.742500", "142250.242500", "142251.742500", "142253.242500", "142254.742500", "142256.242500", "142257.742500", "142259.242500", "142300.742500", "142302.242500", "142303.742500", "142305.242500", "142306.742500", "142308.242500", "142309.742500", "142311.242500", "142312.742500", "142314.242500", "142315.742500", "142317.242500", "142318.742500", "142320.242500", "142321.742500", "142323.242500", "142324.742500", "142326.242500", "142327.742500", "142329.242500", "142330.742500", "142332.242500", "142333.742500", "142335.242500", "142336.742500", "142338.242500", "142339.742500", "142341.242500", "142342.742500", "142344.242500", "142345.742500", "142347.242500", "142348.742500", "142350.242500", "142351.742500", "142353.242500", "142354.742500", "142356.242500", "142357.742500", "142359.242500", "142400.742500", "142402.242500", "142403.742500", "142405.242500", "142406.742500", "142408.242500", "142409.742500", "142411.242500", "142412.742500", "142414.242500", "142415.742500", "142417.242500", "142418.742500", "142420.242500", "142421.742500", "142423.242500", "142424.742500", "142426.242500", "142427.742500", "142429.242500", "142430.742500", "142432.242500", "142433.742500", "142435.242500", "142436.742500", "142438.242500", "142439.742500", "142441.242500", "142442.742500", "142444.242500", "142445.742500", "142447.242500", "142448.742500", "142450.242500", "142451.742500", "142453.242500", "142454.742500", "142456.242500", "142457.742500", "142459.242500", "142500.742500", "142502.242500", "142503.742500", "142505.242500", "142506.742500", "142508.242500", "142509.742500", "142511.242500", "142512.742500", "142514.242500", "142515.742500", "142517.242500", "142518.742500", "142520.242500", "142521.742500", "142523.242500", "142524.742500", "142526.242500", "142527.742500", "142529.242500", "142530.742500", "142532.242500", "142533.742500", "142535.242500", "142536.742500", "142538.242500", "142539.742500", "142541.242500", "142542.742500", "142544.242500", "142545.742500", "142547.242500", "142548.742500", "142550.242500", "142551.742500", "142553.242500", "142554.742500", "142556.242500", "142557.742500", "142559.242500", "142600.742500", "142602.242500", "142603.742500", "142605.242500", "142606.742500", "142608.242500", "142609.742500", "142611.242500", "142612.742500", "142614.242500", "142615.742500", "142617.242500", "142618.742500", "142620.242500", "142621.742500", "142623.242500", "142624.742500", "142626.242500", "142627.742500", "142629.242500", "142630.742500", "142632.242500", "142633.742500", "142635.242500", "142636.742500", "142638.242500", "142639.742500", "142641.242500", "142642.742500", "142644.242500", "142645.742500", "142647.242500", "142648.742500", "142650.242500", "142651.742500", "142653.242500", "142654.742500", "142656.242500", "142657.742500", "142659.242500", "142700.742500", "142702.242500", "142703.742500", "142705.242500", "142706.742500", "142708.242500", "142709.742500", "142711.242500", "142712.742500", "142714.242500", "142715.742500", "142717.242500", "142718.742500", "142720.242500", "142721.742500", "142723.242500", "142724.742500", "142726.242500", "142727.742500", "142729.242500", "142730.742500", "142732.242500", "142733.742500", "142735.242500", "142736.742500", "142738.242500", "142739.742500", "142741.242500"],
      "ContentTime": ["142224.660000", "142304.654000", "142304.657000", "142304.660000", "142304.663000", "142304.666000", "142304.670000", "142304.673000", "142304.676000", "142304.679000", "142304.682000", "142304.685000", "142304.688000", "142304.691000", "142304.694000", "142304.697000", "142304.700000", "142304.711000", "142304.714000", "142304.717000", "142304.720000", "142304.723000", "142304.726000", "142304.729000", "142304.732000", "142304.735000", "142304.743000", "142304.745000", "142344.654000", "142344.657000", "142344.660000", "142344.663000", "142344.666000", "142344.669000", "142344.672000", "142344.675000", "142344.678000", "142344.681000", "142344.684000", "142344.687000", "142344.690000", "142344.693000", "142344.696000", "142344.699000", "142344.702000", "142344.705000", "142344.708000", "142344.716000", "142344.719000", "142344.722000", "142344.725000", "142344.728000", "142344.731000", "142344.734000", "142344.737000", "142424.655000", "142424.658000", "142424.661000", "142424.664000", "142424.667000", "142424.670000", "142424.673000", "142424.676000", "142424.679000", "142424.682000", "142424.685000", "142424.688000", "142424.691000", "142424.694000", "142424.697000", "142424.700000", "142424.703000", "142424.707000", "142424.710000", "142424.713000", "142424.716000", "142424.719000", "142424.722000", "142424.725000", "142424.728000", "142424.731000", "142504.655000", "142504.658000", "142504.661000", "142504.664000", "142504.667000", "142504.670000", "142504.673000", "142504.676000", "142504.679000", "142504.682000", "142504.685000", "142504.688000", "142504.691000", "142504.694000", "142504.697000", "142504.700000", "142504.703000", "142504.706000", "142504.709000", "142504.712000", "142504.715000", "142504.718000", "142504.721000", "142504.724000", "142504.727000", "142504.730000", "142504.733000", "142544.654000", "142544.657000", "142544.660000", "142544.663000", "142544.666000", "142544.669000", "142544.672000", "142544.676000", "142544.679000", "142544.681000", "142544.684000", "142544.688000", "142544.690000", "142544.694000", "142544.697000", "142544.700000", "142544.714000", "142544.717000", "142544.720000", "142544.723000", "142544.726000", "142544.729000", "142544.732000", "142544.735000", "142544.738000", "142544.741000", "142544.744000", "142624.655000", "142624.658000", "142624.661000", "142624.664000", "142624.668000", "142624.671000", "142624.674000", "142624.677000", "142624.680000", "142624.683000", "142624.686000", "142624.689000", "142624.692000", "142624.695000", "142624.698000", "142624.701000", "142624.704000", "142624.707000", "142624.710000", "142624.713000", "142624.716000", "142624.719000", "142624.722000", "142624.725000", "142624.728000", "142624.731000", "142704.655000", "142704.658000", "142704.661000", "142704.664000", "142704.667000", "142704.670000", "142704.673000", "142704.676000", "142704.680000", "142704.683000", "142704.685000", "142704.688000", "142704.692000", "142704.695000", "142704.698000", "142704.700000", "142704.704000", "142704.707000", "142704.710000", "142704.713000", "142704.716000", "142704.719000", "142704.722000", "142704.724000", "142704.728000", "142704.731000", "142704.734000", "142742.726000", "142742.730000", "142742.733000", "142742.736000", "142742.739000", "142742.743000", "142742.746000", "142742.749000", "142742.752000", "142742.756000", "142742.760000", "142742.764000", "142742.768000", "142742.771000", "142742.774000", "142742.777000", "142742.780000", "142742.783000", "142742.786000", "142742.789000", "142742.792000", "142742.795000", "142742.798000", "142742.801000", "142742.804000", "142742.807000"],
      "InstanceCreationTime": ["142224.660000", "142304.654000", "142304.657000", "142304.660000", "142304.663000", "142304.666000", "142304.670000", "142304.673000", "142304.676000", "142304.679000", "142304.682000", "142304.685000", "142304.688000", "142304.691000", "142304.694000", "142304.697000", "142304.700000", "142304.711000", "142304.714000", "142304.717000", "142304.720000", "142304.723000", "142304.726000", "142304.729000", "142304.732000", "142304.735000", "142304.743000", "142304.745000", "142344.654000", "142344.657000", "142344.660000", "142344.663000", "142344.666000", "142344.669000", "142344.672000", "142344.675000", "142344.678000", "142344.681000", "142344.684000", "142344.687000", "142344.690000", "142344.693000", "142344.696000", "142344.699000", "142344.702000", "142344.705000", "142344.708000", "142344.716000", "142344.719000", "142344.722000", "142344.725000", "142344.728000", "142344.731000", "142344.734000", "142344.737000", "142424.655000", "142424.658000", "142424.661000", "142424.664000", "142424.667000", "142424.670000", "142424.673000", "142424.676000", "142424.679000", "142424.682000", "142424.685000", "142424.688000", "142424.691000", "142424.694000", "142424.697000", "142424.700000", "142424.703000", "142424.707000", "142424.710000", "142424.713000", "142424.716000", "142424.719000", "142424.722000", "142424.725000", "142424.728000", "142424.731000", "142504.655000", "142504.658000", "142504.661000", "142504.664000", "142504.667000", "142504.670000", "142504.673000", "142504.676000", "142504.679000", "142504.682000", "142504.685000", "142504.688000", "142504.691000", "142504.694000", "142504.697000", "142504.700000", "142504.703000", "142504.706000", "142504.709000", "142504.712000", "142504.715000", "142504.718000", "142504.721000", "142504.724000", "142504.727000", "142504.730000", "142504.733000", "142544.654000", "142544.657000", "142544.660000", "142544.663000", "142544.666000", "142544.669000", "142544.672000", "142544.676000", "142544.679000", "142544.681000", "142544.684000", "142544.688000", "142544.690000", "142544.694000", "142544.697000", "142544.700000", "142544.714000", "142544.717000", "142544.720000", "142544.723000", "142544.726000", "142544.729000", "142544.732000", "142544.735000", "142544.738000", "142544.741000", "142544.744000", "142624.655000", "142624.658000", "142624.661000", "142624.664000", "142624.668000", "142624.671000", "142624.674000", "142624.677000", "142624.680000", "142624.683000", "142624.686000", "142624.689000", "142624.692000", "142624.695000", "142624.698000", "142624.701000", "142624.704000", "142624.707000", "142624.710000", "142624.713000", "142624.716000", "142624.719000", "142624.722000", "142624.725000", "142624.728000", "142624.731000", "142704.655000", "142704.658000", "142704.661000", "142704.664000", "142704.667000", "142704.670000", "142704.673000", "142704.676000", "142704.680000", "142704.683000", "142704.685000", "142704.688000", "142704.692000", "142704.695000", "142704.698000", "142704.700000", "142704.704000", "142704.707000", "142704.710000", "142704.713000", "142704.716000", "142704.719000", "142704.722000", "142704.724000", "142704.728000", "142704.731000", "142704.734000", "142742.726000", "142742.730000", "142742.733000", "142742.736000", "142742.739000", "142742.743000", "142742.746000", "142742.749000", "142742.752000", "142742.756000", "142742.760000", "142742.764000", "142742.768000", "142742.771000", "142742.774000", "142742.777000", "142742.780000", "142742.783000", "142742.786000", "142742.789000", "142742.792000", "142742.795000", "142742.798000", "142742.801000", "142742.804000", "142742.807000"],
      "InstanceNumber": [1, 2, 3, 4, 5, 6, 7, 8, 9, 10, 11, 12, 13, 14, 15, 16, 17, 18, 19, 20, 21, 22, 23, 24, 25, 26, 27, 28, 29, 30, 31, 32, 33, 34, 35, 36, 37, 38, 39, 40, 41, 42, 43, 44, 45, 46, 47, 48, 49, 50, 51, 52, 53, 54, 55, 56, 57, 58, 59, 60, 61, 62, 63, 64, 65, 66, 67, 68, 69, 70, 71, 72, 73, 74, 75, 76, 77, 78, 79, 80, 81, 82, 83, 84, 85, 86, 87, 88, 89, 90, 91, 92, 93, 94, 95, 96, 97, 98, 99, 100, 101, 102, 103, 104, 105, 106, 107, 108, 109, 110, 111, 112, 113, 114, 115, 116, 117, 118, 119, 120, 121, 122, 123, 124, 125, 126, 127, 128, 129, 130, 131, 132, 133, 134, 135, 136, 137, 138, 139, 140, 141, 142, 143, 144, 145, 146, 147, 148, 149, 150, 151, 152, 153, 154, 155, 156, 157, 158, 159, 160, 161, 162, 163, 164, 165, 166, 167, 168, 169, 170, 171, 172, 173, 174, 175, 176, 177, 178, 179, 180, 181, 182, 183, 184, 185, 186, 187, 188, 189, 190, 191, 192, 193, 194, 195, 196, 197, 198, 199, 200, 201, 202, 203, 204, 205, 206, 207, 208, 209, 210, 211, 212, 213, 214],
      "LargestImagePixelValue": [2581, 2595, 2561, 2590, 2568, 2589, 2591, 2590, 2632, 2567, 2582, 2594, 2552, 2626, 2576, 2610, 2628, 2610, 2626, 2573, 2614, 2633, 2550, 2608, 2562, 2586, 2598, 2557, 2611, 2624, 2568, 2583, 2570, 2565, 2586, 2550, 2578, 2582, 2547, 2566, 2566, 2559, 2572, 2547, 2620, 2518, 2569, 2588, 2545, 2581, 2584, 2525, 2583, 2569, 2580, 2548, 2531, 2553, 2534, 2578, 2622, 2567, 2599, 2553, 2578, 2575, 2579, 2578, 2570, 2601, 2584, 2583, 2558, 2535, 2565, 2575, 2542, 2607, 2516, 2563, 2551, 2559, 2568, 2557, 2626, 2562, 2544, 2562, 2531, 2574, 2575, 2571, 2572, 2534, 2593, 2599, 2526, 2589, 2551, 2625, 2576, 2594, 2557, 2545, 2583, 2628, 2653, 2684, 2621, 2635, 2677, 2647, 2710, 2625, 2698, 2599, 2686, 2639, 2645, 2659, 2665, 2606, 2663, 2608, 2642, 2625, 2559, 2641, 2604, 2592, 2582, 2614, 2573, 2599, 2573, 2605, 2588, 2609, 2613, 2588, 2550, 2630, 2573, 2532, 2509, 2598, 2546, 2537, 2645, 2551, 2580, 2560, 2541, 2585, 2527, 2570, 2570, 2585, 2608, 2575, 2538, 2585, 2507, 2557, 2519, 2622, 2529, 2574, 2520, 2601, 2570, 2628, 2563, 2534, 2441, 2461, 2517, 2523, 2566, 2559, 2562, 2558, 2505, 2597, 2570, 2575, 2496, 2507, 2495, 2509, 2542, 2486, 2528, 2550, 2581, 2520, 2550, 2546, 2551, 2595, 2595, 2604, 2596, 2627, 2602, 2574, 2559, 2582, 2511, 2595, 2600, 2533, 2573, 2584],
      "WindowCenter": [648.0, 647.0, 647.0, 647.0, 646.0, 647.0, 647.0, 648.0, 650.0, 649.0, 650.0, 650.0, 650.0, 651.0, 650.0, 649.0, 649.0, 649.0, 649.0, 649.0, 649.0, 650.0, 650.0, 651.0, 650.0, 650.0, 650.0, 649.0, 649.0, 649.0, 649.0, 650.0, 649.0, 649.0, 649.0, 649.0, 649.0, 649.0, 649.0, 649.0, 649.0, 650.0, 649.0, 649.0, 650.0, 649.0, 650.0, 649.0, 648.0, 649.0, 648.0, 648.0, 650.0, 651.0, 652.0, 650.0, 649.0, 648.0, 648.0, 648.0, 649.0, 648.0, 650.0, 650.0, 649.0, 648.0, 648.0, 648.0, 649.0, 651.0, 650.0, 650.0, 650.0, 649.0, 649.0, 650.0, 650.0, 651.0, 649.0, 649.0, 648.0, 648.0, 648.0, 649.0, 651.0, 650.0, 649.0, 648.0, 647.0, 648.0, 648.0, 649.0, 650.0, 649.0, 648.0, 648.0, 646.0, 647.0, 647.0, 649.0, 649.0, 650.0, 649.0, 648.0, 646.0, 652.0, 653.0, 653.0, 652.0, 651.0, 650.0, 650.0, 650.0, 649.0, 650.0, 649.0, 650.0, 648.0, 649.0, 650.0, 651.0, 652.0, 652.0, 651.0, 651.0, 651.0, 650.0, 650.0, 651.0, 651.0, 650.0, 650.0, 650.0, 650.0, 650.0, 650.0, 650.0, 650.0, 649.0, 649.0, 648.0, 650.0, 649.0, 649.0, 648.0, 649.0, 648.0, 649.0, 648.0, 649.0, 648.0, 648.0, 648.0, 648.0, 646.0, 646.0, 646.0, 646.0, 647.0, 647.0, 647.0, 648.0, 646.0, 646.0, 645.0, 647.0, 647.0, 648.0, 648.0, 648.0, 647.0, 648.0, 649.0, 649.0, 648.0, 647.0, 646.0, 646.0, 646.0, 646.0, 646.0, 645.0, 644.0, 645.0, 645.0, 645.0, 643.0, 641.0, 641.0, 642.0, 642.0, 642.0, 642.0, 643.0, 642.0, 642.0, 642.0, 642.0, 642.0, 644.0, 644.0, 644.0, 643.0, 644.0, 643.0, 643.0, 643.0, 643.0, 643.0, 645.0, 647.0, 646.0, 645.0, 644.0],
      "WindowWidth": [1383.0, 1381.0, 1380.0, 1381.0, 1379.0, 1380.0, 1382.0, 1384.0, 1387.0, 1386.0, 1387.0, 1388.0, 1389.0, 1389.0, 1388.0, 1386.0, 1385.0, 1385.0, 1385.0, 1386.0, 1386.0, 1388.0, 1388.0, 1390.0, 1389.0, 1389.0, 1388.0, 1386.0, 1386.0, 1386.0, 1385.0, 1387.0, 1386.0, 1385.0, 1385.0, 1386.0, 1386.0, 1386.0, 1385.0, 1387.0, 1387.0, 1387.0, 1386.0, 1385.0, 1388.0, 1387.0, 1388.0, 1387.0, 1384.0, 1385.0, 1383.0, 1383.0, 1388.0, 1390.0, 1392.0, 1388.0, 1386.0, 1384.0, 1383.0, 1384.0, 1386.0, 1385.0, 1388.0, 1387.0, 1387.0, 1384.0, 1383.0, 1384.0, 1386.0, 1390.0, 1388.0, 1388.0, 1388.0, 1387.0, 1387.0, 1388.0, 1389.0, 1391.0, 1387.0, 1385.0, 1383.0, 1383.0, 1384.0, 1387.0, 1391.0, 1389.0, 1386.0, 1383.0, 1381.0, 1383.0, 1385.0, 1387.0, 1387.0, 1385.0, 1384.0, 1382.0, 1379.0, 1381.0, 1382.0, 1386.0, 1386.0, 1387.0, 1385.0, 1384.0, 1379.0, 1392.0, 1394.0, 1395.0, 1392.0, 1390.0, 1388.0, 1387.0, 1387.0, 1386.0, 1386.0, 1384.0, 1386.0, 1384.0, 1385.0, 1388.0, 1391.0, 1391.0, 1392.0, 1389.0, 1389.0, 1389.0, 1388.0, 1388.0, 1390.0, 1390.0, 1389.0, 1388.0, 1387.0, 1387.0, 1387.0, 1388.0, 1387.0, 1387.0, 1385.0, 1384.0, 1384.0, 1387.0, 1386.0, 1384.0, 1382.0, 1386.0, 1384.0, 1385.0, 1384.0, 1386.0, 1384.0, 1384.0, 1383.0, 1382.0, 1379.0, 1378.0, 1378.0, 1378.0, 1380.0, 1381.0, 1382.0, 1382.0, 1379.0, 1378.0, 1377.0, 1380.0, 1380.0, 1383.0, 1382.0, 1383.0, 1382.0, 1383.0, 1386.0, 1386.0, 1384.0, 1381.0, 1379.0, 1378.0, 1378.0, 1378.0, 1379.0, 1376.0, 1374.0, 1376.0, 1376.0, 1375.0, 1371.0, 1368.0, 1368.0, 1369.0, 1369.0, 1369.0, 1370.0, 1371.0, 1370.0, 1369.0, 1369.0, 1369.0, 1370.0, 1372.0, 1372.0, 1372.0, 1371.0, 1372.0, 1371.0, 1372.0, 1371.0, 1371.0, 1373.0, 1377.0, 1380.0, 1379.0, 1376.0, 1373.0]
    },
    "slices": {}
  }
}