{
  "AcquisitionMatrixPE": 72,
  "AcquisitionNumber": 1,
  "AcquisitionTime": "13:57:39.767500",
  "BandwidthPerPixelPhaseEncode": 17.943,
  "BaseResolution": 96,
  "BodyPartExamined": "BRAIN",
  "CoilCombinationMethod": "Sum of Squares",
  "ConsistencyInfo": "N4_VE11C_LATEST_20160120",
  "ConversionSoftware": "dcm2niix",
  "ConversionSoftwareVersion": "v1.0.20211006",
  "DerivedVendorReportedEchoSpacing": 0.000552897,
  "DeviceSerialNumber": "166011",
  "EchoTime": 0.03,
  "EchoTrainLength": 58,
  "EffectiveEchoSpacing": 0.000580542,
  "FlipAngle": 62,
  "ImageOrientationPatientDICOM": [1, 0, 0, 0, 0.993373, -0.114937],
  "ImageType": [
    "ORIGINAL",
    "PRIMARY",
    "M",
    "ND",
    "MOSAIC"
],
  "ImagingFrequency": 123.259,
  "InPlanePhaseEncodingDirectionDICOM": "COL",
  "InstitutionAddress": "West 130th Street 610,NY,NYC,US,10025",
  "InstitutionName": "MBBI",
  "MRAcquisitionType": "2D",
  "MagneticFieldStrength": 3,
  "Manufacturer": "Siemens",
  "ManufacturersModelName": "Prisma",
  "Modality": "MR",
  "MultibandAccelerationFactor": 3,
  "PartialFourier": 0.75,
  "PatientPosition": "HFS",
  "PercentPhaseFOV": 100,
  "PercentSampling": 75,
  "PhaseEncodingDirection": "j-",
  "PhaseEncodingSteps": 58,
  "PhaseOversampling": 0.05,
  "PhaseResolution": 0.75,
  "PixelBandwidth": 2265,
  "ProcedureStepDescription": "White^Word_recognition",
  "ProtocolName": "func_vwfate_run8",
  "PulseSequenceDetails": "%SiemensSeq%\\ep2d_bold",
  "ReceiveCoilActiveElements": "HC2,4,6,7;NC2",
  "ReceiveCoilName": "HeadNeck_64",
  "ReconMatrixPE": 96,
  "RefLinesPE": 40,
  "RepetitionTime": 1.5,
  "SAR": 0.0521174,
  "ScanOptions": "PFP\\FS",
  "ScanningSequence": "EP",
  "SequenceName": "*epfid2d1_72",
  "SequenceVariant": "SK\\OSP",
  "SeriesDescription": "func_vwfate_run8",
  "SeriesNumber": 17,
  "ShimSetting": [-1151, -1363, 672, 414, -77, 142, 42, -6],
  "SliceThickness": 2,
  "SliceTiming": [1.0775, 0, 0.74, 0.0675, 0.8075, 0.135, 0.875, 0.2025, 0.9425, 0.27, 1.01, 0.405, 1.145, 0.47, 1.21, 0.5375, 1.2775, 0.605, 1.345, 0.6725, 1.4125, 0.3375, 1.0775, 0, 0.74, 0.0675, 0.8075, 0.135, 0.875, 0.2025, 0.9425, 0.27, 1.01, 0.405, 1.145, 0.47, 1.21, 0.5375, 1.2775, 0.605, 1.345, 0.6725, 1.4125, 0.3375, 1.0775, 0, 0.74, 0.0675, 0.8075, 0.135, 0.875, 0.2025, 0.9425, 0.27, 1.01, 0.405, 1.145, 0.47, 1.21, 0.5375, 1.2775, 0.605, 1.345, 0.6725, 1.4125, 0.3375],
  "SoftwareVersions": "syngo MR E11",
  "SpacingBetweenSlices": 2,
  "StationName": "AWP166011",
  "TaskName": "vwfate",
  "TotalReadoutTime": 0.0551515,
  "TxRefAmp": 250.553,
  "dcmmeta_affine": [
    [-2.0, 0.0, 0.0, 98.55884552001953],
    [0.0, 1.9867454767227173, -0.22987429797649384, -74.26009368896484],
    [0.0, 0.22987429797649384, 1.9867454767227173, -98.86181640625],
    [0.0, 0.0, 0.0, 1.0]
],
  "dcmmeta_reorient_transform": [
    [0.0, -1.0, 0.0, 95.0],
    [1.0, 0.0, 0.0, 0.0],
    [0.0, 0.0, 1.0, 0.0],
    [0.0, 0.0, 0.0, 1.0]
],
  "dcmmeta_shape": [96, 96, 66, 164],
  "dcmmeta_slice_dim": 2,
  "dcmmeta_version": 0.6,
  "global": {
    "const": {
      "AcquisitionMatrix": [96, 0, 0, 72],
      "AngioFlag": "N",
      "BitsAllocated": 16,
      "BitsStored": 12,
      "BodyPartExamined": "BRAIN",
      "Columns": 864,
      "EchoNumbers": 1,
      "EchoTime": 30.0,
      "EchoTrainLength": 58,
      "FlipAngle": 62.0,
      "HighBit": 11,
      "ImageOrientationPatient": [1.0, 0.0, 0.0, 0.0, 0.99337276552689, -0.1149371511282],
      "ImagePositionPatient": [-866.55884718895, -877.39101277461, 11.247974575724],
      "ImageType": [
        "ORIGINAL",
        "PRIMARY",
        "M",
        "ND",
        "MOSAIC"
],
      "ImagedNucleus": "1H",
      "ImagingFrequency": 123.259438,
      "InPlanePhaseEncodingDirection": "COL",
      "MRAcquisitionType": "2D",
      "MagneticFieldStrength": 3.0,
      "Manufacturer": "SIEMENS",
      "ManufacturerModelName": "Prisma",
      "Modality": "MR",
      "NumberOfAverages": 1.0,
      "NumberOfPhaseEncodingSteps": 58,
      "PercentPhaseFieldOfView": 100.0,
      "PercentSampling": 75.0,
      "PerformedProcedureStepStartTime": "131908.688000",
      "PhotometricInterpretation": "MONOCHROME2",
      "PixelBandwidth": 2265.0,
      "PixelRepresentation": 0,
      "PixelSpacing": [2.0, 2.0],
      "ProtocolName": "func_vwfate_run8",
      "RepetitionTime": 1500.0,
      "Rows": 864,
      "SAR": 0.05211739998972,
      "SamplesPerPixel": 1,
      "ScanOptions": [
        "PFP",
        "FS"
],
      "ScanningSequence": "EP",
      "SequenceName": "*epfid2d1_72",
      "SequenceVariant": [
        "SK",
        "OSP"
],
      "SeriesDescription": "func_vwfate_run8",
      "SeriesNumber": 17,
      "SeriesTime": "135824.802000",
      "SliceLocation": -89.671391822919,
      "SliceThickness": 2.0,
      "SmallestImagePixelValue": 0,
      "SoftwareVersions": "syngo MR E11",
      "SpacingBetweenSlices": 1.9999999807053,
      "SpecificCharacterSet": "ISO_IR 100",
      "StudyID": "2",
      "StudyTime": "131908.615000",
      "TransmitCoilName": "Body",
      "VariableFlipAngleFlag": "N",
      "WindowCenterWidthExplanation": "Algo1",
      "dBdt": 0.0},
    "slices": {}
  },
  "time": {
    "samples": {
      "AcquisitionNumber": [1, 2, 3, 4, 5, 6, 7, 8, 9, 10, 11, 12, 13, 14, 15, 16, 17, 18, 19, 20, 21, 22, 23, 24, 25, 26, 27, 28, 29, 30, 31, 32, 33, 34, 35, 36, 37, 38, 39, 40, 41, 42, 43, 44, 45, 46, 47, 48, 49, 50, 51, 52, 53, 54, 55, 56, 57, 58, 59, 60, 61, 62, 63, 64, 65, 66, 67, 68, 69, 70, 71, 72, 73, 74, 75, 76, 77, 78, 79, 80, 81, 82, 83, 84, 85, 86, 87, 88, 89, 90, 91, 92, 93, 94, 95, 96, 97, 98, 99, 100, 101, 102, 103, 104, 105, 106, 107, 108, 109, 110, 111, 112, 113, 114, 115, 116, 117, 118, 119, 120, 121, 122, 123, 124, 125, 126, 127, 128, 129, 130, 131, 132, 133, 134, 135, 136, 137, 138, 139, 140, 141, 142, 143, 144, 145, 146, 147, 148, 149, 150, 151, 152, 153, 154, 155, 156, 157, 158, 159, 160, 161, 162, 163, 164],
      "AcquisitionTime": ["135739.767500", "135741.267500", "135742.767500", "135744.267500", "135745.767500", "135747.267500", "135748.767500", "135750.267500", "135751.767500", "135753.267500", "135754.767500", "135756.267500", "135757.767500", "135759.267500", "135800.767500", "135802.267500", "135803.767500", "135805.267500", "135806.767500", "135808.267500", "135809.767500", "135811.267500", "135812.767500", "135814.267500", "135815.767500", "135817.267500", "135818.767500", "135820.267500", "135821.767500", "135823.267500", "135824.767500", "135826.267500", "135827.767500", "135829.267500", "135830.767500", "135832.267500", "135833.767500", "135835.267500", "135836.767500", "135838.267500", "135839.767500", "135841.267500", "135842.767500", "135844.267500", "135845.767500", "135847.267500", "135848.767500", "135850.267500", "135851.767500", "135853.267500", "135854.767500", "135856.267500", "135857.767500", "135859.267500", "135900.767500", "135902.267500", "135903.767500", "135905.267500", "135906.767500", "135908.267500", "135909.767500", "135911.267500", "135912.767500", "135914.267500", "135915.767500", "135917.267500", "135918.767500", "135920.267500", "135921.767500", "135923.267500", "135924.767500", "135926.267500", "135927.767500", "135929.267500", "135930.767500", "135932.267500", "135933.767500", "135935.267500", "135936.767500", "135938.267500", "135939.767500", "135941.267500", "135942.767500", "135944.267500", "135945.767500", "135947.267500", "135948.767500", "135950.267500", "135951.767500", "135953.267500", "135954.767500", "135956.267500", "135957.767500", "135959.267500", "140000.767500", "140002.267500", "140003.767500", "140005.267500", "140006.767500", "140008.267500", "140009.767500", "140011.267500", "140012.767500", "140014.267500", "140015.767500", "140017.267500", "140018.767500", "140020.267500", "140021.767500", "140023.267500", "140024.767500", "140026.267500", "140027.767500", "140029.267500", "140030.767500", "140032.267500", "140033.767500", "140035.267500", "140036.767500", "140038.267500", "140039.767500", "140041.267500", "140042.767500", "140044.267500", "140045.767500", "140047.267500", "140048.767500", "140050.267500", "140051.767500", "140053.267500", "140054.767500", "140056.267500", "140057.767500", "140059.267500", "140100.767500", "140102.267500", "140103.767500", "140105.267500", "140106.767500", "140108.267500", "140109.767500", "140111.267500", "140112.767500", "140114.267500", "140115.767500", "140117.267500", "140118.767500", "140120.267500", "140121.767500", "140123.267500", "140124.767500", "140126.267500", "140127.767500", "140129.267500", "140130.767500", "140132.267500", "140133.767500", "140135.267500", "140136.767500", "140138.267500", "140139.767500", "140141.267500", "140142.767500", "140144.267500"],
      "ContentTime": ["135824.806000", "135824.810000", "135824.816000", "135824.819000", "135824.824000", "135824.827000", "135824.830000", "135824.833000", "135824.836000", "135824.839000", "135824.842000", "135824.845000", "135824.848000", "135824.858000", "135824.861000", "135824.864000", "135824.867000", "135824.870000", "135824.873000", "135824.876000", "135824.879000", "135824.883000", "135824.885000", "135824.888000", "135824.891000", "135824.894000", "135824.897000", "135824.900000", "135824.903000", "135824.906000", "135904.802000", "135904.805000", "135904.808000", "135904.811000", "135904.814000", "135904.817000", "135904.820000", "135904.823000", "135904.826000", "135904.829000", "135904.832000", "135904.835000", "135904.838000", "135904.850000", "135904.853000", "135904.856000", "135904.859000", "135904.862000", "135904.881000", "135904.884000", "135904.887000", "135904.890000", "135904.900000", "135904.903000", "135904.906000", "135904.909000", "135944.801000", "135944.804000", "135944.807000", "135944.810000", "135944.813000", "135944.816000", "135944.820000", "135944.822000", "135944.825000", "135944.828000", "135944.831000", "135944.834000", "135944.837000", "135944.840000", "135944.843000", "135944.846000", "135944.849000", "135944.852000", "135944.855000", "135944.858000", "135944.861000", "135944.864000", "135944.867000", "135944.870000", "135944.873000", "135944.876000", "135944.879000", "140024.801000", "140024.805000", "140024.808000", "140024.811000", "140024.814000", "140024.817000", "140024.820000", "140024.823000", "140024.826000", "140024.829000", "140024.832000", "140024.835000", "140024.838000", "140024.842000", "140024.845000", "140024.848000", "140024.851000", "140024.855000", "140024.858000", "140024.861000", "140024.864000", "140024.867000", "140024.870000", "140024.873000", "140024.876000", "140024.879000", "140024.882000", "140104.802000", "140104.805000", "140104.808000", "140104.811000", "140104.814000", "140104.817000", "140104.820000", "140104.823000", "140104.826000", "140104.829000", "140104.832000", "140104.835000", "140104.838000", "140104.841000", "140104.845000", "140104.848000", "140104.850000", "140104.853000", "140104.857000", "140104.860000", "140104.862000", "140104.865000", "140104.869000", "140104.872000", "140104.874000", "140104.877000", "140124.802000", "140124.805000", "140124.808000", "140124.811000", "140124.814000", "140124.817000", "140124.820000", "140124.823000", "140124.826000", "140124.829000", "140124.832000", "140124.835000", "140124.838000", "140124.841000", "140145.406000", "140145.410000", "140145.414000", "140145.417000", "140145.420000", "140145.423000", "140145.427000", "140145.430000", "140145.433000", "140145.436000", "140145.440000", "140145.443000", "140145.446000", "140145.450000"],
      "InstanceCreationTime": ["135824.806000", "135824.810000", "135824.816000", "135824.819000", "135824.824000", "135824.827000", "135824.830000", "135824.833000", "135824.836000", "135824.839000", "135824.842000", "135824.845000", "135824.848000", "135824.858000", "135824.861000", "135824.864000", "135824.867000", "135824.870000", "135824.873000", "135824.876000", "135824.879000", "135824.883000", "135824.885000", "135824.888000", "135824.891000", "135824.894000", "135824.897000", "135824.900000", "135824.903000", "135824.906000", "135904.802000", "135904.805000", "135904.808000", "135904.811000", "135904.814000", "135904.817000", "135904.820000", "135904.823000", "135904.826000", "135904.829000", "135904.832000", "135904.835000", "135904.838000", "135904.850000", "135904.853000", "135904.856000", "135904.859000", "135904.862000", "135904.881000", "135904.884000", "135904.887000", "135904.890000", "135904.900000", "135904.903000", "135904.906000", "135904.909000", "135944.801000", "135944.804000", "135944.807000", "135944.810000", "135944.813000", "135944.816000", "135944.820000", "135944.822000", "135944.825000", "135944.828000", "135944.831000", "135944.834000", "135944.837000", "135944.840000", "135944.843000", "135944.846000", "135944.849000", "135944.852000", "135944.855000", "135944.858000", "135944.861000", "135944.864000", "135944.867000", "135944.870000", "135944.873000", "135944.876000", "135944.879000", "140024.801000", "140024.805000", "140024.808000", "140024.811000", "140024.814000", "140024.817000", "140024.820000", "140024.823000", "140024.826000", "140024.829000", "140024.832000", "140024.835000", "140024.838000", "140024.842000", "140024.845000", "140024.848000", "140024.851000", "140024.855000", "140024.858000", "140024.861000", "140024.864000", "140024.867000", "140024.870000", "140024.873000", "140024.876000", "140024.879000", "140024.882000", "140104.802000", "140104.805000", "140104.808000", "140104.811000", "140104.814000", "140104.817000", "140104.820000", "140104.823000", "140104.826000", "140104.829000", "140104.832000", "140104.835000", "140104.838000", "140104.841000", "140104.845000", "140104.848000", "140104.850000", "140104.853000", "140104.857000", "140104.860000", "140104.862000", "140104.865000", "140104.869000", "140104.872000", "140104.874000", "140104.877000", "140124.802000", "140124.805000", "140124.808000", "140124.811000", "140124.814000", "140124.817000", "140124.820000", "140124.823000", "140124.826000", "140124.829000", "140124.832000", "140124.835000", "140124.838000", "140124.841000", "140145.406000", "140145.410000", "140145.414000", "140145.417000", "140145.420000", "140145.423000", "140145.427000", "140145.430000", "140145.433000", "140145.436000", "140145.440000", "140145.443000", "140145.446000", "140145.450000"],
      "InstanceNumber": [1, 2, 3, 4, 5, 6, 7, 8, 9, 10, 11, 12, 13, 14, 15, 16, 17, 18, 19, 20, 21, 22, 23, 24, 25, 26, 27, 28, 29, 30, 31, 32, 33, 34, 35, 36, 37, 38, 39, 40, 41, 42, 43, 44, 45, 46, 47, 48, 49, 50, 51, 52, 53, 54, 55, 56, 57, 58, 59, 60, 61, 62, 63, 64, 65, 66, 67, 68, 69, 70, 71, 72, 73, 74, 75, 76, 77, 78, 79, 80, 81, 82, 83, 84, 85, 86, 87, 88, 89, 90, 91, 92, 93, 94, 95, 96, 97, 98, 99, 100, 101, 102, 103, 104, 105, 106, 107, 108, 109, 110, 111, 112, 113, 114, 115, 116, 117, 118, 119, 120, 121, 122, 123, 124, 125, 126, 127, 128, 129, 130, 131, 132, 133, 134, 135, 136, 137, 138, 139, 140, 141, 142, 143, 144, 145, 146, 147, 148, 149, 150, 151, 152, 153, 154, 155, 156, 157, 158, 159, 160, 161, 162, 163, 164],
      "LargestImagePixelValue": [2406, 2343, 2328, 2374, 2363, 2332, 2396, 2331, 2412, 2331, 2361, 2481, 2438, 2538, 2502, 2504, 2512, 2512, 2518, 2502, 2499, 2429, 2508, 2467, 2494, 2408, 2463, 2367, 2410, 2365, 2472, 2410, 2416, 2389, 2424, 2455, 2367, 2406, 2412, 2424, 2454, 2362, 2478, 2347, 2503, 2469, 2484, 2474, 2457, 2482, 2462, 2528, 2464, 2462, 2515, 2476, 2581, 2491, 2566, 2445, 2563, 2451, 2570, 2493, 2545, 2508, 2513, 2367, 2514, 2583, 2537, 2476, 2513, 2508, 2542, 2562, 2555, 2542, 2569, 2529, 2552, 2544, 2541, 2522, 2514, 2551, 2549, 2574, 2547, 2493, 2550, 2464, 2565, 2531, 2573, 2535, 2509, 2522, 2495, 2520, 2499, 2482, 2492, 2495, 2561, 2511, 2590, 2477, 2563, 2540, 2543, 2509, 2563, 2518, 2526, 2503, 2499, 2522, 2508, 2521, 2443, 2518, 2471, 2492, 2457, 2410, 2504, 2519, 2582, 2557, 2571, 2570, 2599, 2556, 2579, 2513, 2529, 2508, 2544, 2538, 2457, 2512, 2539, 2577, 2556, 2533, 2530, 2491, 2587, 2542, 2580, 2520, 2515, 2469, 2505, 2509, 2474, 2488, 2409, 2492, 2442, 2516, 2469, 2497],
      "WindowCenter": [658.0, 657.0, 658.0, 660.0, 660.0, 659.0, 661.0, 660.0, 662.0, 661.0, 660.0, 662.0, 661.0, 663.0, 664.0, 664.0, 664.0, 664.0, 663.0, 663.0, 662.0, 661.0, 662.0, 662.0, 663.0, 663.0, 663.0, 661.0, 661.0, 661.0, 663.0, 662.0, 662.0, 661.0, 661.0, 662.0, 661.0, 660.0, 660.0, 661.0, 662.0, 661.0, 662.0, 660.0, 661.0, 661.0, 662.0, 663.0, 662.0, 662.0, 661.0, 662.0, 661.0, 661.0, 661.0, 660.0, 662.0, 662.0, 662.0, 661.0, 662.0, 661.0, 662.0, 661.0, 661.0, 661.0, 659.0, 659.0, 662.0, 663.0, 662.0, 660.0, 659.0, 659.0, 660.0, 662.0, 662.0, 663.0, 663.0, 662.0, 661.0, 661.0, 662.0, 662.0, 662.0, 662.0, 662.0, 662.0, 662.0, 661.0, 661.0, 660.0, 661.0, 662.0, 663.0, 663.0, 662.0, 661.0, 661.0, 661.0, 661.0, 661.0, 662.0, 662.0, 662.0, 661.0, 661.0, 659.0, 661.0, 660.0, 662.0, 662.0, 663.0, 662.0, 662.0, 661.0, 661.0, 661.0, 661.0, 662.0, 661.0, 661.0, 661.0, 661.0, 660.0, 660.0, 661.0, 661.0, 663.0, 662.0, 662.0, 662.0, 662.0, 661.0, 661.0, 660.0, 660.0, 660.0, 661.0, 661.0, 661.0, 661.0, 661.0, 662.0, 663.0, 662.0, 661.0, 660.0, 661.0, 661.0, 662.0, 660.0, 659.0, 658.0, 658.0, 658.0, 659.0, 659.0, 658.0, 659.0, 659.0, 661.0, 660.0, 661.0],
      "WindowWidth": [1408.0, 1406.0, 1408.0, 1412.0, 1413.0, 1411.0, 1414.0, 1414.0, 1416.0, 1415.0, 1413.0, 1415.0, 1415.0, 1419.0, 1420.0, 1421.0, 1420.0, 1421.0, 1419.0, 1418.0, 1416.0, 1415.0, 1416.0, 1417.0, 1419.0, 1418.0, 1419.0, 1416.0, 1415.0, 1414.0, 1418.0, 1417.0, 1417.0, 1415.0, 1414.0, 1416.0, 1414.0, 1413.0, 1413.0, 1414.0, 1418.0, 1415.0, 1417.0, 1412.0, 1414.0, 1415.0, 1417.0, 1418.0, 1417.0, 1416.0, 1415.0, 1417.0, 1415.0, 1414.0, 1414.0, 1413.0, 1417.0, 1416.0, 1417.0, 1414.0, 1417.0, 1415.0, 1417.0, 1414.0, 1414.0, 1413.0, 1409.0, 1410.0, 1417.0, 1419.0, 1416.0, 1412.0, 1410.0, 1410.0, 1411.0, 1416.0, 1417.0, 1419.0, 1419.0, 1416.0, 1414.0, 1414.0, 1416.0, 1416.0, 1415.0, 1415.0, 1415.0, 1416.0, 1415.0, 1413.0, 1414.0, 1412.0, 1415.0, 1416.0, 1419.0, 1417.0, 1416.0, 1414.0, 1413.0, 1413.0, 1414.0, 1415.0, 1417.0, 1416.0, 1416.0, 1413.0, 1413.0, 1410.0, 1413.0, 1412.0, 1415.0, 1417.0, 1419.0, 1417.0, 1416.0, 1414.0, 1413.0, 1414.0, 1414.0, 1416.0, 1414.0, 1415.0, 1414.0, 1414.0, 1413.0, 1411.0, 1413.0, 1415.0, 1418.0, 1417.0, 1416.0, 1416.0, 1415.0, 1413.0, 1413.0, 1411.0, 1411.0, 1411.0, 1413.0, 1414.0, 1413.0, 1413.0, 1414.0, 1416.0, 1419.0, 1417.0, 1414.0, 1412.0, 1413.0, 1413.0, 1415.0, 1412.0, 1409.0, 1406.0, 1406.0, 1407.0, 1408.0, 1409.0, 1408.0, 1410.0, 1411.0, 1415.0, 1413.0, 1413.0]
    },
    "slices": {}
  }
}