{
  "AcquisitionMatrixPE": 72,
  "AcquisitionNumber": 1,
  "AcquisitionTime": "14:16:42.227500",
  "BandwidthPerPixelPhaseEncode": 17.943,
  "BaseResolution": 96,
  "BodyPartExamined": "BRAIN",
  "CoilCombinationMethod": "Sum of Squares",
  "ConsistencyInfo": "N4_VE11C_LATEST_20160120",
  "ConversionSoftware": "dcm2niix",
  "ConversionSoftwareVersion": "v1.0.20211006",
  "DerivedVendorReportedEchoSpacing": 0.000552897,
  "DeviceSerialNumber": "166011",
  "EchoTime": 0.03,
  "EchoTrainLength": 58,
  "EffectiveEchoSpacing": 0.000580542,
  "FlipAngle": 62,
  "ImageOrientationPatientDICOM": [1, 0, 0, 0, 0.993373, -0.114937],
  "ImageType": [
    "ORIGINAL",
    "PRIMARY",
    "M",
    "ND",
    "MOSAIC"
],
  "ImagingFrequency": 123.259,
  "InPlanePhaseEncodingDirectionDICOM": "COL",
  "InstitutionAddress": "West 130th Street 610,NY,NYC,US,10025",
  "InstitutionName": "MBBI",
  "MRAcquisitionType": "2D",
  "MagneticFieldStrength": 3,
  "Manufacturer": "Siemens",
  "ManufacturersModelName": "Prisma",
  "Modality": "MR",
  "MultibandAccelerationFactor": 3,
  "PartialFourier": 0.75,
  "PatientPosition": "HFS",
  "PercentPhaseFOV": 100,
  "PercentSampling": 75,
  "PhaseEncodingDirection": "j-",
  "PhaseEncodingSteps": 58,
  "PhaseOversampling": 0.05,
  "PhaseResolution": 0.75,
  "PixelBandwidth": 2265,
  "ProcedureStepDescription": "White^Word_recognition",
  "ProtocolName": "func_vwfate_run10",
  "PulseSequenceDetails": "%SiemensSeq%\\ep2d_bold",
  "ReceiveCoilActiveElements": "HC2,4,6,7;NC2",
  "ReceiveCoilName": "HeadNeck_64",
  "ReconMatrixPE": 96,
  "RefLinesPE": 40,
  "RepetitionTime": 1.5,
  "SAR": 0.0521174,
  "ScanOptions": "PFP\\FS",
  "ScanningSequence": "EP",
  "SequenceName": "*epfid2d1_72",
  "SequenceVariant": "SK\\OSP",
  "SeriesDescription": "func_vwfate_run10",
  "SeriesNumber": 20,
  "ShimSetting": [-1151, -1363, 672, 414, -77, 142, 42, -6],
  "SliceThickness": 2,
  "SliceTiming": [1.0775, 0, 0.74, 0.0675, 0.8075, 0.135, 0.875, 0.2025, 0.9425, 0.27, 1.01, 0.405, 1.145, 0.4725, 1.2125, 0.5375, 1.2775, 0.605, 1.345, 0.6725, 1.4125, 0.3375, 1.0775, 0, 0.74, 0.0675, 0.8075, 0.135, 0.875, 0.2025, 0.9425, 0.27, 1.01, 0.405, 1.145, 0.4725, 1.2125, 0.5375, 1.2775, 0.605, 1.345, 0.6725, 1.4125, 0.3375, 1.0775, 0, 0.74, 0.0675, 0.8075, 0.135, 0.875, 0.2025, 0.9425, 0.27, 1.01, 0.405, 1.145, 0.4725, 1.2125, 0.5375, 1.2775, 0.605, 1.345, 0.6725, 1.4125, 0.3375],
  "SoftwareVersions": "syngo MR E11",
  "SpacingBetweenSlices": 2,
  "StationName": "AWP166011",
  "TaskName": "vwfate",
  "TotalReadoutTime": 0.0551515,
  "TxRefAmp": 250.553,
  "dcmmeta_affine": [
    [-2.0, 0.0, 0.0, 98.55884552001953],
    [0.0, 1.9867454767227173, -0.22987429797649384, -74.26009368896484],
    [0.0, 0.22987429797649384, 1.9867454767227173, -98.86181640625],
    [0.0, 0.0, 0.0, 1.0]
],
  "dcmmeta_reorient_transform": [
    [0.0, -1.0, 0.0, 95.0],
    [1.0, 0.0, 0.0, 0.0],
    [0.0, 0.0, 1.0, 0.0],
    [0.0, 0.0, 0.0, 1.0]
],
  "dcmmeta_shape": [96, 96, 66, 164],
  "dcmmeta_slice_dim": 2,
  "dcmmeta_version": 0.6,
  "global": {
    "const": {
      "AcquisitionMatrix": [96, 0, 0, 72],
      "AngioFlag": "N",
      "BitsAllocated": 16,
      "BitsStored": 12,
      "BodyPartExamined": "BRAIN",
      "Columns": 864,
      "EchoNumbers": 1,
      "EchoTime": 30.0,
      "EchoTrainLength": 58,
      "FlipAngle": 62.0,
      "HighBit": 11,
      "ImageOrientationPatient": [1.0, 0.0, 0.0, 0.0, 0.99337276552689, -0.1149371511282],
      "ImagePositionPatient": [-866.55884718895, -877.39101277461, 11.247974575724],
      "ImageType": [
        "ORIGINAL",
        "PRIMARY",
        "M",
        "ND",
        "MOSAIC"
],
      "ImagedNucleus": "1H",
      "ImagingFrequency": 123.259454,
      "InPlanePhaseEncodingDirection": "COL",
      "MRAcquisitionType": "2D",
      "MagneticFieldStrength": 3.0,
      "Manufacturer": "SIEMENS",
      "ManufacturerModelName": "Prisma",
      "Modality": "MR",
      "NumberOfAverages": 1.0,
      "NumberOfPhaseEncodingSteps": 58,
      "PercentPhaseFieldOfView": 100.0,
      "PercentSampling": 75.0,
      "PerformedProcedureStepStartTime": "131908.688000",
      "PhotometricInterpretation": "MONOCHROME2",
      "PixelBandwidth": 2265.0,
      "PixelRepresentation": 0,
      "PixelSpacing": [2.0, 2.0],
      "ProtocolName": "func_vwfate_run10",
      "RepetitionTime": 1500.0,
      "Rows": 864,
      "SAR": 0.05211739998972,
      "SamplesPerPixel": 1,
      "ScanOptions": [
        "PFP",
        "FS"
],
      "ScanningSequence": "EP",
      "SequenceName": "*epfid2d1_72",
      "SequenceVariant": [
        "SK",
        "OSP"
],
      "SeriesDescription": "func_vwfate_run10",
      "SeriesNumber": 20,
      "SeriesTime": "141724.803000",
      "SliceLocation": -89.671391822919,
      "SliceThickness": 2.0,
      "SmallestImagePixelValue": 0,
      "SoftwareVersions": "syngo MR E11",
      "SpacingBetweenSlices": 1.9999999807053,
      "SpecificCharacterSet": "ISO_IR 100",
      "StudyID": "2",
      "StudyTime": "131908.615000",
      "TransmitCoilName": "Body",
      "VariableFlipAngleFlag": "N",
      "WindowCenterWidthExplanation": "Algo1",
      "dBdt": 0.0},
    "slices": {}
  },
  "time": {
    "samples": {
      "AcquisitionNumber": [1, 2, 3, 4, 5, 6, 7, 8, 9, 10, 11, 12, 13, 14, 15, 16, 17, 18, 19, 20, 21, 22, 23, 24, 25, 26, 27, 28, 29, 30, 31, 32, 33, 34, 35, 36, 37, 38, 39, 40, 41, 42, 43, 44, 45, 46, 47, 48, 49, 50, 51, 52, 53, 54, 55, 56, 57, 58, 59, 60, 61, 62, 63, 64, 65, 66, 67, 68, 69, 70, 71, 72, 73, 74, 75, 76, 77, 78, 79, 80, 81, 82, 83, 84, 85, 86, 87, 88, 89, 90, 91, 92, 93, 94, 95, 96, 97, 98, 99, 100, 101, 102, 103, 104, 105, 106, 107, 108, 109, 110, 111, 112, 113, 114, 115, 116, 117, 118, 119, 120, 121, 122, 123, 124, 125, 126, 127, 128, 129, 130, 131, 132, 133, 134, 135, 136, 137, 138, 139, 140, 141, 142, 143, 144, 145, 146, 147, 148, 149, 150, 151, 152, 153, 154, 155, 156, 157, 158, 159, 160, 161, 162, 163, 164],
      "AcquisitionTime": ["141642.227500", "141643.727500", "141645.227500", "141646.727500", "141648.227500", "141649.727500", "141651.227500", "141652.727500", "141654.227500", "141655.727500", "141657.227500", "141658.727500", "141700.227500", "141701.727500", "141703.227500", "141704.727500", "141706.227500", "141707.727500", "141709.227500", "141710.727500", "141712.227500", "141713.727500", "141715.227500", "141716.727500", "141718.227500", "141719.727500", "141721.227500", "141722.727500", "141724.227500", "141725.727500", "141727.227500", "141728.727500", "141730.227500", "141731.727500", "141733.227500", "141734.727500", "141736.227500", "141737.727500", "141739.227500", "141740.727500", "141742.227500", "141743.727500", "141745.227500", "141746.727500", "141748.227500", "141749.727500", "141751.227500", "141752.727500", "141754.227500", "141755.727500", "141757.227500", "141758.727500", "141800.227500", "141801.727500", "141803.227500", "141804.727500", "141806.227500", "141807.727500", "141809.227500", "141810.727500", "141812.227500", "141813.727500", "141815.227500", "141816.727500", "141818.227500", "141819.727500", "141821.227500", "141822.727500", "141824.227500", "141825.727500", "141827.227500", "141828.727500", "141830.227500", "141831.727500", "141833.227500", "141834.727500", "141836.227500", "141837.727500", "141839.227500", "141840.727500", "141842.227500", "141843.727500", "141845.227500", "141846.727500", "141848.227500", "141849.727500", "141851.227500", "141852.727500", "141854.227500", "141855.727500", "141857.227500", "141858.727500", "141900.227500", "141901.727500", "141903.227500", "141904.727500", "141906.227500", "141907.727500", "141909.227500", "141910.727500", "141912.227500", "141913.727500", "141915.227500", "141916.727500", "141918.227500", "141919.727500", "141921.227500", "141922.727500", "141924.227500", "141925.727500", "141927.227500", "141928.727500", "141930.227500", "141931.727500", "141933.227500", "141934.727500", "141936.227500", "141937.727500", "141939.227500", "141940.727500", "141942.227500", "141943.727500", "141945.227500", "141946.727500", "141948.227500", "141949.727500", "141951.227500", "141952.727500", "141954.227500", "141955.727500", "141957.227500", "141958.727500", "142000.227500", "142001.727500", "142003.227500", "142004.727500", "142006.227500", "142007.727500", "142009.227500", "142010.727500", "142012.227500", "142013.727500", "142015.227500", "142016.727500", "142018.227500", "142019.727500", "142021.227500", "142022.727500", "142024.227500", "142025.727500", "142027.227500", "142028.727500", "142030.227500", "142031.727500", "142033.227500", "142034.727500", "142036.227500", "142037.727500", "142039.227500", "142040.727500", "142042.227500", "142043.727500", "142045.227500", "142046.727500"],
      "ContentTime": ["141724.807000", "141724.811000", "141724.814000", "141724.817000", "141724.820000", "141724.823000", "141724.836000", "141724.839000", "141724.842000", "141724.845000", "141724.848000", "141724.852000", "141724.855000", "141724.858000", "141724.860000", "141724.867000", "141724.870000", "141724.873000", "141724.876000", "141724.882000", "141724.885000", "141724.888000", "141724.891000", "141724.894000", "141724.909000", "141724.912000", "141724.915000", "141724.918000", "141804.802000", "141804.805000", "141804.808000", "141804.811000", "141804.815000", "141804.818000", "141804.821000", "141804.823000", "141804.827000", "141804.830000", "141804.833000", "141804.836000", "141804.839000", "141804.841000", "141804.844000", "141804.847000", "141804.856000", "141804.859000", "141804.862000", "141804.865000", "141804.868000", "141804.871000", "141804.874000", "141804.877000", "141804.880000", "141804.883000", "141804.886000", "141844.801000", "141844.813000", "141844.816000", "141844.819000", "141844.822000", "141844.825000", "141844.828000", "141844.831000", "141844.834000", "141844.837000", "141844.840000", "141844.843000", "141844.845000", "141844.849000", "141844.851000", "141844.854000", "141844.857000", "141844.861000", "141844.863000", "141844.866000", "141844.869000", "141844.872000", "141844.875000", "141844.878000", "141844.881000", "141844.884000", "141924.802000", "141924.805000", "141924.808000", "141924.811000", "141924.814000", "141924.817000", "141924.820000", "141924.823000", "141924.826000", "141924.829000", "141924.832000", "141924.835000", "141924.838000", "141924.841000", "141924.856000", "141924.858000", "141924.861000", "141924.864000", "141924.868000", "141924.870000", "141924.873000", "141924.877000", "141924.879000", "141924.882000", "141924.885000", "141924.888000", "141924.891000", "142004.802000", "142004.805000", "142004.808000", "142004.811000", "142004.814000", "142004.817000", "142004.820000", "142004.823000", "142004.826000", "142004.829000", "142004.832000", "142004.835000", "142004.838000", "142004.841000", "142004.844000", "142004.847000", "142004.850000", "142004.853000", "142004.856000", "142004.859000", "142004.862000", "142004.865000", "142004.868000", "142004.871000", "142004.874000", "142004.877000", "142004.880000", "142044.801000", "142044.804000", "142044.807000", "142044.810000", "142044.813000", "142044.816000", "142044.819000", "142044.822000", "142044.825000", "142044.828000", "142044.831000", "142044.834000", "142044.837000", "142044.840000", "142044.843000", "142044.846000", "142044.849000", "142044.852000", "142044.855000", "142044.858000", "142044.861000", "142044.864000", "142044.867000", "142044.870000", "142044.873000", "142044.876000", "142048.222000", "142048.226000", "142048.229000"],
      "InstanceCreationTime": ["141724.807000", "141724.811000", "141724.814000", "141724.817000", "141724.820000", "141724.823000", "141724.836000", "141724.839000", "141724.842000", "141724.845000", "141724.848000", "141724.852000", "141724.855000", "141724.858000", "141724.860000", "141724.867000", "141724.870000", "141724.873000", "141724.876000", "141724.882000", "141724.885000", "141724.888000", "141724.891000", "141724.894000", "141724.909000", "141724.912000", "141724.915000", "141724.918000", "141804.802000", "141804.805000", "141804.808000", "141804.811000", "141804.815000", "141804.818000", "141804.821000", "141804.823000", "141804.827000", "141804.830000", "141804.833000", "141804.836000", "141804.839000", "141804.841000", "141804.844000", "141804.847000", "141804.856000", "141804.859000", "141804.862000", "141804.865000", "141804.868000", "141804.871000", "141804.874000", "141804.877000", "141804.880000", "141804.883000", "141804.886000", "141844.801000", "141844.813000", "141844.816000", "141844.819000", "141844.822000", "141844.825000", "141844.828000", "141844.831000", "141844.834000", "141844.837000", "141844.840000", "141844.843000", "141844.845000", "141844.849000", "141844.851000", "141844.854000", "141844.857000", "141844.861000", "141844.863000", "141844.866000", "141844.869000", "141844.872000", "141844.875000", "141844.878000", "141844.881000", "141844.884000", "141924.802000", "141924.805000", "141924.808000", "141924.811000", "141924.814000", "141924.817000", "141924.820000", "141924.823000", "141924.826000", "141924.829000", "141924.832000", "141924.835000", "141924.838000", "141924.841000", "141924.856000", "141924.858000", "141924.861000", "141924.864000", "141924.868000", "141924.870000", "141924.873000", "141924.877000", "141924.879000", "141924.882000", "141924.885000", "141924.888000", "141924.891000", "142004.802000", "142004.805000", "142004.808000", "142004.811000", "142004.814000", "142004.817000", "142004.820000", "142004.823000", "142004.826000", "142004.829000", "142004.832000", "142004.835000", "142004.838000", "142004.841000", "142004.844000", "142004.847000", "142004.850000", "142004.853000", "142004.856000", "142004.859000", "142004.862000", "142004.865000", "142004.868000", "142004.871000", "142004.874000", "142004.877000", "142004.880000", "142044.801000", "142044.804000", "142044.807000", "142044.810000", "142044.813000", "142044.816000", "142044.819000", "142044.822000", "142044.825000", "142044.828000", "142044.831000", "142044.834000", "142044.837000", "142044.840000", "142044.843000", "142044.846000", "142044.849000", "142044.852000", "142044.855000", "142044.858000", "142044.861000", "142044.864000", "142044.867000", "142044.870000", "142044.873000", "142044.876000", "142048.222000", "142048.226000", "142048.229000"],
      "InstanceNumber": [1, 2, 3, 4, 5, 6, 7, 8, 9, 10, 11, 12, 13, 14, 15, 16, 17, 18, 19, 20, 21, 22, 23, 24, 25, 26, 27, 28, 29, 30, 31, 32, 33, 34, 35, 36, 37, 38, 39, 40, 41, 42, 43, 44, 45, 46, 47, 48, 49, 50, 51, 52, 53, 54, 55, 56, 57, 58, 59, 60, 61, 62, 63, 64, 65, 66, 67, 68, 69, 70, 71, 72, 73, 74, 75, 76, 77, 78, 79, 80, 81, 82, 83, 84, 85, 86, 87, 88, 89, 90, 91, 92, 93, 94, 95, 96, 97, 98, 99, 100, 101, 102, 103, 104, 105, 106, 107, 108, 109, 110, 111, 112, 113, 114, 115, 116, 117, 118, 119, 120, 121, 122, 123, 124, 125, 126, 127, 128, 129, 130, 131, 132, 133, 134, 135, 136, 137, 138, 139, 140, 141, 142, 143, 144, 145, 146, 147, 148, 149, 150, 151, 152, 153, 154, 155, 156, 157, 158, 159, 160, 161, 162, 163, 164],
      "LargestImagePixelValue": [2598, 2590, 2596, 2556, 2585, 2582, 2560, 2548, 2522, 2603, 2547, 2568, 2589, 2536, 2596, 2615, 2542, 2587, 2554, 2531, 2600, 2585, 2519, 2587, 2498, 2556, 2554, 2498, 2576, 2552, 2550, 2580, 2505, 2517, 2557, 2505, 2534, 2598, 2545, 2549, 2569, 2581, 2597, 2542, 2580, 2496, 2519, 2484, 2563, 2572, 2509, 2541, 2497, 2526, 2529, 2578, 2541, 2512, 2629, 2517, 2593, 2612, 2528, 2601, 2513, 2610, 2517, 2577, 2586, 2530, 2601, 2547, 2528, 2613, 2490, 2537, 2562, 2541, 2568, 2504, 2602, 2526, 2565, 2497, 2593, 2617, 2500, 2577, 2516, 2534, 2631, 2525, 2577, 2616, 2534, 2625, 2543, 2585, 2643, 2533, 2580, 2538, 2557, 2523, 2570, 2513, 2552, 2570, 2479, 2571, 2520, 2547, 2451, 2493, 2485, 2497, 2553, 2541, 2558, 2518, 2555, 2592, 2534, 2509, 2549, 2485, 2478, 2551, 2449, 2486, 2488, 2470, 2465, 2485, 2544, 2477, 2576, 2460, 2594, 2476, 2526, 2463, 2510, 2554, 2483, 2495, 2570, 2438, 2483, 2518, 2553, 2442, 2465, 2488, 2476, 2475, 2483, 2431, 2419, 2511, 2491, 2436, 2490, 2434],
      "WindowCenter": [647.0, 647.0, 646.0, 646.0, 646.0, 646.0, 647.0, 647.0, 647.0, 648.0, 647.0, 647.0, 647.0, 646.0, 647.0, 647.0, 647.0, 647.0, 647.0, 646.0, 647.0, 646.0, 646.0, 647.0, 646.0, 648.0, 647.0, 647.0, 648.0, 647.0, 647.0, 648.0, 647.0, 647.0, 647.0, 647.0, 647.0, 649.0, 648.0, 648.0, 645.0, 650.0, 650.0, 648.0, 648.0, 646.0, 646.0, 646.0, 647.0, 648.0, 647.0, 647.0, 647.0, 648.0, 647.0, 648.0, 647.0, 646.0, 647.0, 646.0, 647.0, 647.0, 646.0, 647.0, 648.0, 651.0, 649.0, 649.0, 648.0, 647.0, 648.0, 648.0, 647.0, 648.0, 646.0, 646.0, 647.0, 647.0, 648.0, 648.0, 649.0, 648.0, 649.0, 648.0, 650.0, 651.0, 650.0, 650.0, 649.0, 648.0, 649.0, 648.0, 650.0, 651.0, 651.0, 651.0, 649.0, 649.0, 650.0, 650.0, 651.0, 650.0, 649.0, 648.0, 648.0, 648.0, 648.0, 648.0, 647.0, 649.0, 648.0, 650.0, 648.0, 648.0, 648.0, 647.0, 647.0, 647.0, 647.0, 648.0, 649.0, 650.0, 649.0, 649.0, 649.0, 646.0, 646.0, 646.0, 644.0, 646.0, 647.0, 648.0, 647.0, 647.0, 648.0, 647.0, 648.0, 647.0, 648.0, 647.0, 648.0, 648.0, 649.0, 649.0, 647.0, 646.0, 647.0, 645.0, 647.0, 647.0, 649.0, 648.0, 648.0, 647.0, 648.0, 647.0, 648.0, 647.0, 646.0, 646.0, 645.0, 645.0, 646.0, 646.0],
      "WindowWidth": [1381.0, 1380.0, 1380.0, 1379.0, 1380.0, 1378.0, 1381.0, 1381.0, 1381.0, 1384.0, 1381.0, 1382.0, 1380.0, 1378.0, 1380.0, 1381.0, 1380.0, 1381.0, 1382.0, 1380.0, 1380.0, 1379.0, 1378.0, 1382.0, 1380.0, 1383.0, 1382.0, 1382.0, 1383.0, 1382.0, 1382.0, 1383.0, 1382.0, 1383.0, 1382.0, 1381.0, 1382.0, 1385.0, 1384.0, 1385.0, 1378.0, 1389.0, 1388.0, 1384.0, 1384.0, 1379.0, 1380.0, 1380.0, 1382.0, 1383.0, 1381.0, 1381.0, 1381.0, 1383.0, 1382.0, 1384.0, 1381.0, 1380.0, 1381.0, 1379.0, 1380.0, 1380.0, 1379.0, 1382.0, 1384.0, 1390.0, 1387.0, 1386.0, 1383.0, 1382.0, 1384.0, 1383.0, 1382.0, 1383.0, 1379.0, 1380.0, 1380.0, 1381.0, 1383.0, 1384.0, 1386.0, 1384.0, 1385.0, 1385.0, 1389.0, 1391.0, 1388.0, 1388.0, 1386.0, 1384.0, 1385.0, 1385.0, 1388.0, 1390.0, 1390.0, 1390.0, 1386.0, 1386.0, 1387.0, 1388.0, 1391.0, 1388.0, 1386.0, 1384.0, 1384.0, 1383.0, 1383.0, 1383.0, 1382.0, 1385.0, 1385.0, 1387.0, 1385.0, 1385.0, 1383.0, 1382.0, 1381.0, 1382.0, 1382.0, 1383.0, 1385.0, 1388.0, 1387.0, 1385.0, 1385.0, 1380.0, 1378.0, 1378.0, 1376.0, 1379.0, 1381.0, 1383.0, 1381.0, 1382.0, 1382.0, 1381.0, 1382.0, 1381.0, 1383.0, 1381.0, 1383.0, 1385.0, 1387.0, 1386.0, 1382.0, 1380.0, 1381.0, 1378.0, 1381.0, 1381.0, 1385.0, 1383.0, 1383.0, 1382.0, 1383.0, 1383.0, 1385.0, 1381.0, 1379.0, 1379.0, 1377.0, 1377.0, 1379.0, 1380.0]
    },
    "slices": {}
  }
}