{
  "AcquisitionMatrixPE": 72,
  "AcquisitionNumber": 1,
  "AcquisitionTime": "17:43:46.527500",
  "BandwidthPerPixelPhaseEncode": 17.943,
  "BaseResolution": 96,
  "BodyPartExamined": "BRAIN",
  "CoilCombinationMethod": "Sum of Squares",
  "ConsistencyInfo": "N4_VE11C_LATEST_20160120",
  "ConversionSoftware": "dcm2niix",
  "ConversionSoftwareVersion": "v1.0.20211006",
  "DerivedVendorReportedEchoSpacing": 0.000552897,
  "DeviceSerialNumber": "166011",
  "EchoTime": 0.03,
  "EchoTrainLength": 58,
  "EffectiveEchoSpacing": 0.000580542,
  "FlipAngle": 62,
  "ImageOrientationPatientDICOM": [0.999814, -0.00316849, -0.0190456, -0.00191952, 0.965243, -0.261348],
  "ImageType": [
    "ORIGINAL",
    "PRIMARY",
    "M",
    "ND",
    "MOSAIC"
],
  "ImagingFrequency": 123.259,
  "InPlanePhaseEncodingDirectionDICOM": "COL",
  "InstitutionAddress": "West 130th Street 610,NY,NYC,US,10025",
  "InstitutionName": "MBBI",
  "MRAcquisitionType": "2D",
  "MagneticFieldStrength": 3,
  "Manufacturer": "Siemens",
  "ManufacturersModelName": "Prisma",
  "Modality": "MR",
  "MultibandAccelerationFactor": 3,
  "PartialFourier": 0.75,
  "PatientPosition": "HFS",
  "PercentPhaseFOV": 100,
  "PercentSampling": 75,
  "PhaseEncodingDirection": "j-",
  "PhaseEncodingSteps": 58,
  "PhaseOversampling": 0.05,
  "PhaseResolution": 0.75,
  "PixelBandwidth": 2265,
  "ProcedureStepDescription": "White^Word_recognition",
  "ProtocolName": "func_vwfate_run6",
  "PulseSequenceDetails": "%SiemensSeq%\\ep2d_bold",
  "ReceiveCoilActiveElements": "HC1-7;NC1",
  "ReceiveCoilName": "HeadNeck_64",
  "ReconMatrixPE": 96,
  "RefLinesPE": 40,
  "RepetitionTime": 1.5,
  "SAR": 0.0495676,
  "ScanOptions": "PFP\\FS",
  "ScanningSequence": "EP",
  "SequenceName": "*epfid2d1_72",
  "SequenceVariant": "SK\\OSP",
  "SeriesDescription": "func_vwfate_run6",
  "SeriesNumber": 15,
  "ShimSetting": [-1166, -1394, 707, 657, -133, -87, -52, 48],
  "SliceThickness": 2,
  "SliceTiming": [1.0775, 0, 0.74, 0.0675, 0.8075, 0.135, 0.875, 0.2025, 0.9425, 0.27, 1.01, 0.405, 1.145, 0.4725, 1.2125, 0.54, 1.28, 0.6075, 1.3475, 0.6725, 1.4125, 0.3375, 1.0775, 0, 0.74, 0.0675, 0.8075, 0.135, 0.875, 0.2025, 0.9425, 0.27, 1.01, 0.405, 1.145, 0.4725, 1.2125, 0.54, 1.28, 0.6075, 1.3475, 0.6725, 1.4125, 0.3375, 1.0775, 0, 0.74, 0.0675, 0.8075, 0.135, 0.875, 0.2025, 0.9425, 0.27, 1.01, 0.405, 1.145, 0.4725, 1.2125, 0.54, 1.28, 0.6075, 1.3475, 0.6725, 1.4125, 0.3375],
  "SoftwareVersions": "syngo MR E11",
  "SpacingBetweenSlices": 2,
  "StationName": "AWP166011",
  "TaskName": "vwfate",
  "TotalReadoutTime": 0.0551515,
  "TxRefAmp": 214.819,
  "dcmmeta_affine": [
    [-1.9996272325515747, -0.003839044366031885, -0.0384233221411705, 103.92756652832031],
    [0.006336976774036884, 1.9304852485656738, -0.5226724147796631, -59.97991943359375],
    [-0.038091111928224564, 0.5226967334747314, 1.9301133155822754, -82.24171447753906],
    [0.0, 0.0, 0.0, 1.0]
],
  "dcmmeta_reorient_transform": [
    [0.0, -1.0, 0.0, 95.0],
    [1.0, 0.0, 0.0, 0.0],
    [0.0, 0.0, 1.0, 0.0],
    [0.0, 0.0, 0.0, 1.0]
],
  "dcmmeta_shape": [96, 96, 66, 164],
  "dcmmeta_slice_dim": 2,
  "dcmmeta_version": 0.6,
  "global": {
    "const": {
      "AcquisitionMatrix": [96, 0, 0, 72],
      "AngioFlag": "N",
      "BitsAllocated": 16,
      "BitsStored": 12,
      "BodyPartExamined": "BRAIN",
      "Columns": 864,
      "EchoNumbers": 1,
      "EchoTime": 30.0,
      "EchoTrainLength": 58,
      "FlipAngle": 62.0,
      "HighBit": 11,
      "ImageOrientationPatient": [0.99981359637879, -0.0031684884794, -0.0190455553048, -0.0019195221998, 0.96524263895279, -0.261348356379],
      "ImagePositionPatient": [-869.94550666005, -862.28912815804, 182.75699420525],
      "ImageType": [
        "ORIGINAL",
        "PRIMARY",
        "M",
        "ND",
        "MOSAIC"
],
      "ImagedNucleus": "1H",
      "ImagingFrequency": 123.259425,
      "InPlanePhaseEncodingDirection": "COL",
      "MRAcquisitionType": "2D",
      "MagneticFieldStrength": 3.0,
      "Manufacturer": "SIEMENS",
      "ManufacturerModelName": "Prisma",
      "Modality": "MR",
      "NumberOfAverages": 1.0,
      "NumberOfPhaseEncodingSteps": 58,
      "PercentPhaseFieldOfView": 100.0,
      "PercentSampling": 75.0,
      "PerformedProcedureStepStartTime": "163648.140000",
      "PhotometricInterpretation": "MONOCHROME2",
      "PixelBandwidth": 2265.0,
      "PixelRepresentation": 0,
      "PixelSpacing": [2.0, 2.0],
      "ProtocolName": "func_vwfate_run6",
      "RepetitionTime": 1500.0,
      "Rows": 864,
      "SAR": 0.04956764232286,
      "SamplesPerPixel": 1,
      "ScanOptions": [
        "PFP",
        "FS"
],
      "ScanningSequence": "EP",
      "SequenceName": "*epfid2d1_72",
      "SequenceVariant": [
        "SK",
        "OSP"
],
      "SeriesDescription": "func_vwfate_run6",
      "SeriesNumber": 15,
      "SeriesTime": "174352.296000",
      "SliceLocation": -65.689611823555,
      "SliceThickness": 2.0,
      "SmallestImagePixelValue": 0,
      "SoftwareVersions": "syngo MR E11",
      "SpacingBetweenSlices": 2.0000000082234,
      "SpecificCharacterSet": "ISO_IR 100",
      "StudyID": "1",
      "StudyTime": "163648.086000",
      "TransmitCoilName": "Body",
      "VariableFlipAngleFlag": "N",
      "WindowCenterWidthExplanation": "Algo1",
      "dBdt": 0.0},
    "slices": {}
  },
  "time": {
    "samples": {
      "AcquisitionNumber": [1, 2, 3, 4, 5, 6, 7, 8, 9, 10, 11, 12, 13, 14, 15, 16, 17, 18, 19, 20, 21, 22, 23, 24, 25, 26, 27, 28, 29, 30, 31, 32, 33, 34, 35, 36, 37, 38, 39, 40, 41, 42, 43, 44, 45, 46, 47, 48, 49, 50, 51, 52, 53, 54, 55, 56, 57, 58, 59, 60, 61, 62, 63, 64, 65, 66, 67, 68, 69, 70, 71, 72, 73, 74, 75, 76, 77, 78, 79, 80, 81, 82, 83, 84, 85, 86, 87, 88, 89, 90, 91, 92, 93, 94, 95, 96, 97, 98, 99, 100, 101, 102, 103, 104, 105, 106, 107, 108, 109, 110, 111, 112, 113, 114, 115, 116, 117, 118, 119, 120, 121, 122, 123, 124, 125, 126, 127, 128, 129, 130, 131, 132, 133, 134, 135, 136, 137, 138, 139, 140, 141, 142, 143, 144, 145, 146, 147, 148, 149, 150, 151, 152, 153, 154, 155, 156, 157, 158, 159, 160, 161, 162, 163, 164],
      "AcquisitionTime": ["174346.527500", "174348.027500", "174349.527500", "174351.027500", "174352.527500", "174354.027500", "174355.527500", "174357.027500", "174358.527500", "174400.027500", "174401.527500", "174403.027500", "174404.527500", "174406.027500", "174407.527500", "174409.027500", "174410.527500", "174412.027500", "174413.527500", "174415.027500", "174416.527500", "174418.027500", "174419.527500", "174421.027500", "174422.527500", "174424.027500", "174425.527500", "174427.027500", "174428.527500", "174430.027500", "174431.527500", "174433.027500", "174434.527500", "174436.027500", "174437.527500", "174439.027500", "174440.527500", "174442.027500", "174443.527500", "174445.027500", "174446.527500", "174448.027500", "174449.527500", "174451.027500", "174452.527500", "174454.027500", "174455.527500", "174457.027500", "174458.527500", "174500.027500", "174501.527500", "174503.027500", "174504.527500", "174506.027500", "174507.527500", "174509.027500", "174510.527500", "174512.027500", "174513.527500", "174515.027500", "174516.527500", "174518.027500", "174519.527500", "174521.027500", "174522.527500", "174524.027500", "174525.527500", "174527.027500", "174528.527500", "174530.027500", "174531.527500", "174533.027500", "174534.527500", "174536.027500", "174537.527500", "174539.027500", "174540.527500", "174542.027500", "174543.527500", "174545.027500", "174546.527500", "174548.027500", "174549.527500", "174551.027500", "174552.527500", "174554.027500", "174555.527500", "174557.027500", "174558.527500", "174600.027500", "174601.527500", "174603.027500", "174604.527500", "174606.027500", "174607.527500", "174609.027500", "174610.527500", "174612.027500", "174613.527500", "174615.027500", "174616.527500", "174618.027500", "174619.527500", "174621.027500", "174622.527500", "174624.027500", "174625.527500", "174627.027500", "174628.527500", "174630.027500", "174631.527500", "174633.027500", "174634.527500", "174636.027500", "174637.527500", "174639.027500", "174640.527500", "174642.027500", "174643.527500", "174645.027500", "174646.527500", "174648.027500", "174649.527500", "174651.027500", "174652.527500", "174654.027500", "174655.527500", "174657.027500", "174658.527500", "174700.027500", "174701.527500", "174703.027500", "174704.527500", "174706.027500", "174707.527500", "174709.027500", "174710.527500", "174712.027500", "174713.527500", "174715.027500", "174716.527500", "174718.027500", "174719.527500", "174721.027500", "174722.527500", "174724.027500", "174725.527500", "174727.027500", "174728.527500", "174730.027500", "174731.527500", "174733.027500", "174734.527500", "174736.027500", "174737.527500", "174739.027500", "174740.527500", "174742.027500", "174743.527500", "174745.027500", "174746.527500", "174748.027500", "174749.527500", "174751.027500"],
      "ContentTime": ["174352.300000", "174352.304000", "174352.307000", "174352.310000", "174432.295000", "174432.303000", "174432.306000", "174432.309000", "174432.313000", "174432.316000", "174432.319000", "174432.322000", "174432.333000", "174432.337000", "174432.340000", "174432.343000", "174432.346000", "174432.349000", "174432.356000", "174432.359000", "174432.362000", "174432.365000", "174432.368000", "174432.372000", "174432.375000", "174432.378000", "174432.381000", "174432.384000", "174432.387000", "174432.390000", "174512.294000", "174512.298000", "174512.301000", "174512.304000", "174512.307000", "174512.310000", "174512.313000", "174512.316000", "174512.319000", "174512.322000", "174512.325000", "174512.328000", "174512.331000", "174512.334000", "174512.337000", "174512.340000", "174512.343000", "174512.346000", "174512.356000", "174512.359000", "174512.362000", "174512.365000", "174512.368000", "174512.371000", "174512.374000", "174512.377000", "174512.385000", "174552.314000", "174552.317000", "174552.320000", "174552.323000", "174552.327000", "174552.330000", "174552.333000", "174552.336000", "174552.339000", "174552.342000", "174552.345000", "174552.348000", "174552.351000", "174552.354000", "174552.357000", "174552.360000", "174552.368000", "174552.371000", "174552.374000", "174552.377000", "174552.381000", "174552.384000", "174552.387000", "174552.390000", "174552.393000", "174552.396000", "174552.399000", "174632.295000", "174632.299000", "174632.302000", "174632.305000", "174632.308000", "174632.311000", "174632.314000", "174632.317000", "174632.320000", "174632.323000", "174632.326000", "174632.329000", "174632.332000", "174632.335000", "174632.338000", "174632.341000", "174632.344000", "174632.348000", "174632.351000", "174632.354000", "174632.357000", "174632.360000", "174632.363000", "174632.366000", "174632.369000", "174632.372000", "174712.294000", "174712.297000", "174712.301000", "174712.304000", "174712.307000", "174712.310000", "174712.313000", "174712.316000", "174712.319000", "174712.322000", "174712.325000", "174712.328000", "174712.331000", "174712.335000", "174712.338000", "174712.341000", "174712.344000", "174712.347000", "174712.350000", "174712.359000", "174712.362000", "174712.365000", "174712.368000", "174712.371000", "174712.374000", "174712.377000", "174712.380000", "174752.029000", "174752.033000", "174752.036000", "174752.039000", "174752.042000", "174752.045000", "174752.048000", "174752.051000", "174752.054000", "174752.057000", "174752.060000", "174752.063000", "174752.067000", "174752.070000", "174752.073000", "174752.076000", "174752.079000", "174752.082000", "174752.085000", "174752.088000", "174752.091000", "174752.094000", "174752.097000", "174752.100000", "174752.104000", "174752.107000", "174752.110000"],
      "InstanceCreationTime": ["174352.300000", "174352.304000", "174352.307000", "174352.310000", "174432.295000", "174432.303000", "174432.306000", "174432.309000", "174432.313000", "174432.316000", "174432.319000", "174432.322000", "174432.333000", "174432.337000", "174432.340000", "174432.343000", "174432.346000", "174432.349000", "174432.356000", "174432.359000", "174432.362000", "174432.365000", "174432.368000", "174432.372000", "174432.375000", "174432.378000", "174432.381000", "174432.384000", "174432.387000", "174432.390000", "174512.294000", "174512.298000", "174512.301000", "174512.304000", "174512.307000", "174512.310000", "174512.313000", "174512.316000", "174512.319000", "174512.322000", "174512.325000", "174512.328000", "174512.331000", "174512.334000", "174512.337000", "174512.340000", "174512.343000", "174512.346000", "174512.356000", "174512.359000", "174512.362000", "174512.365000", "174512.368000", "174512.371000", "174512.374000", "174512.377000", "174512.385000", "174552.314000", "174552.317000", "174552.320000", "174552.323000", "174552.327000", "174552.330000", "174552.333000", "174552.336000", "174552.339000", "174552.342000", "174552.345000", "174552.348000", "174552.351000", "174552.354000", "174552.357000", "174552.360000", "174552.368000", "174552.371000", "174552.374000", "174552.377000", "174552.381000", "174552.384000", "174552.387000", "174552.390000", "174552.393000", "174552.396000", "174552.399000", "174632.295000", "174632.299000", "174632.302000", "174632.305000", "174632.308000", "174632.311000", "174632.314000", "174632.317000", "174632.320000", "174632.323000", "174632.326000", "174632.329000", "174632.332000", "174632.335000", "174632.338000", "174632.341000", "174632.344000", "174632.348000", "174632.351000", "174632.354000", "174632.357000", "174632.360000", "174632.363000", "174632.366000", "174632.369000", "174632.372000", "174712.294000", "174712.297000", "174712.301000", "174712.304000", "174712.307000", "174712.310000", "174712.313000", "174712.316000", "174712.319000", "174712.322000", "174712.325000", "174712.328000", "174712.331000", "174712.335000", "174712.338000", "174712.341000", "174712.344000", "174712.347000", "174712.350000", "174712.359000", "174712.362000", "174712.365000", "174712.368000", "174712.371000", "174712.374000", "174712.377000", "174712.380000", "174752.029000", "174752.033000", "174752.036000", "174752.039000", "174752.042000", "174752.045000", "174752.048000", "174752.051000", "174752.054000", "174752.057000", "174752.060000", "174752.063000", "174752.067000", "174752.070000", "174752.073000", "174752.076000", "174752.079000", "174752.082000", "174752.085000", "174752.088000", "174752.091000", "174752.094000", "174752.097000", "174752.100000", "174752.104000", "174752.107000", "174752.110000"],
      "InstanceNumber": [1, 2, 3, 4, 5, 6, 7, 8, 9, 10, 11, 12, 13, 14, 15, 16, 17, 18, 19, 20, 21, 22, 23, 24, 25, 26, 27, 28, 29, 30, 31, 32, 33, 34, 35, 36, 37, 38, 39, 40, 41, 42, 43, 44, 45, 46, 47, 48, 49, 50, 51, 52, 53, 54, 55, 56, 57, 58, 59, 60, 61, 62, 63, 64, 65, 66, 67, 68, 69, 70, 71, 72, 73, 74, 75, 76, 77, 78, 79, 80, 81, 82, 83, 84, 85, 86, 87, 88, 89, 90, 91, 92, 93, 94, 95, 96, 97, 98, 99, 100, 101, 102, 103, 104, 105, 106, 107, 108, 109, 110, 111, 112, 113, 114, 115, 116, 117, 118, 119, 120, 121, 122, 123, 124, 125, 126, 127, 128, 129, 130, 131, 132, 133, 134, 135, 136, 137, 138, 139, 140, 141, 142, 143, 144, 145, 146, 147, 148, 149, 150, 151, 152, 153, 154, 155, 156, 157, 158, 159, 160, 161, 162, 163, 164],
      "LargestImagePixelValue": [2506, 2457, 2410, 2399, 2375, 2384, 2372, 2376, 2365, 2375, 2375, 2387, 2362, 2388, 2403, 2365, 2388, 2360, 2396, 2362, 2390, 2359, 2376, 2369, 2398, 2388, 2381, 2380, 2384, 2409, 2384, 2404, 2401, 2416, 2383, 2374, 2418, 2416, 2430, 2389, 2404, 2399, 2411, 2380, 2392, 2401, 2398, 2400, 2407, 2406, 2387, 2401, 2376, 2386, 2443, 2451, 2435, 2446, 2453, 2454, 2452, 2441, 2426, 2453, 2438, 2442, 2435, 2465, 2473, 2490, 2473, 2469, 2459, 2443, 2484, 2472, 2503, 2492, 2477, 2461, 2472, 2487, 2451, 2470, 2459, 2479, 2480, 2499, 2492, 2511, 2492, 2469, 2473, 2476, 2493, 2484, 2475, 2472, 2466, 2480, 2487, 2478, 2474, 2480, 2491, 2471, 2502, 2494, 2502, 2519, 2500, 2479, 2495, 2508, 2505, 2490, 2492, 2488, 2480, 2479, 2501, 2502, 2502, 2485, 2490, 2498, 2492, 2475, 2400, 2464, 2495, 2492, 2492, 2485, 2483, 2501, 2484, 2505, 2499, 2509, 2508, 2501, 2509, 2488, 2485, 2460, 2478, 2469, 2485, 2472, 2455, 2488, 2500, 2481, 2471, 2485, 2485, 2485, 2483, 2505, 2502, 2489, 2479, 2471],
      "WindowCenter": [714.0, 713.0, 712.0, 711.0, 710.0, 709.0, 709.0, 709.0, 710.0, 710.0, 710.0, 710.0, 709.0, 709.0, 710.0, 709.0, 709.0, 710.0, 710.0, 710.0, 711.0, 711.0, 711.0, 711.0, 712.0, 712.0, 712.0, 711.0, 711.0, 711.0, 711.0, 711.0, 711.0, 711.0, 711.0, 711.0, 712.0, 712.0, 711.0, 710.0, 710.0, 710.0, 710.0, 710.0, 710.0, 710.0, 710.0, 710.0, 710.0, 710.0, 709.0, 710.0, 710.0, 712.0, 714.0, 713.0, 712.0, 710.0, 708.0, 706.0, 705.0, 705.0, 705.0, 705.0, 706.0, 707.0, 709.0, 710.0, 711.0, 712.0, 713.0, 714.0, 714.0, 713.0, 713.0, 713.0, 714.0, 714.0, 715.0, 715.0, 715.0, 714.0, 714.0, 714.0, 713.0, 712.0, 711.0, 711.0, 711.0, 712.0, 712.0, 711.0, 710.0, 709.0, 709.0, 710.0, 711.0, 712.0, 712.0, 712.0, 711.0, 712.0, 713.0, 712.0, 712.0, 712.0, 713.0, 713.0, 712.0, 711.0, 710.0, 711.0, 712.0, 713.0, 713.0, 713.0, 712.0, 712.0, 711.0, 711.0, 711.0, 712.0, 711.0, 711.0, 710.0, 709.0, 709.0, 709.0, 709.0, 709.0, 710.0, 710.0, 710.0, 710.0, 710.0, 710.0, 709.0, 710.0, 710.0, 710.0, 711.0, 712.0, 711.0, 711.0, 710.0, 710.0, 711.0, 711.0, 712.0, 712.0, 712.0, 712.0, 714.0, 714.0, 713.0, 711.0, 710.0, 710.0, 709.0, 710.0, 710.0, 709.0, 710.0, 711.0],
      "WindowWidth": [1525.0, 1521.0, 1518.0, 1516.0, 1513.0, 1511.0, 1510.0, 1511.0, 1512.0, 1513.0, 1512.0, 1512.0, 1511.0, 1512.0, 1512.0, 1511.0, 1511.0, 1512.0, 1514.0, 1513.0, 1515.0, 1516.0, 1516.0, 1517.0, 1519.0, 1519.0, 1518.0, 1516.0, 1516.0, 1516.0, 1516.0, 1516.0, 1516.0, 1517.0, 1515.0, 1516.0, 1517.0, 1517.0, 1516.0, 1514.0, 1513.0, 1512.0, 1513.0, 1512.0, 1514.0, 1513.0, 1513.0, 1513.0, 1515.0, 1514.0, 1512.0, 1513.0, 1514.0, 1518.0, 1524.0, 1520.0, 1517.0, 1512.0, 1507.0, 1502.0, 1500.0, 1501.0, 1500.0, 1501.0, 1503.0, 1507.0, 1510.0, 1513.0, 1516.0, 1518.0, 1521.0, 1523.0, 1523.0, 1522.0, 1522.0, 1521.0, 1523.0, 1523.0, 1525.0, 1525.0, 1525.0, 1524.0, 1523.0, 1522.0, 1521.0, 1518.0, 1516.0, 1514.0, 1516.0, 1518.0, 1517.0, 1515.0, 1513.0, 1511.0, 1511.0, 1514.0, 1516.0, 1518.0, 1517.0, 1517.0, 1517.0, 1519.0, 1520.0, 1518.0, 1519.0, 1519.0, 1520.0, 1521.0, 1517.0, 1516.0, 1514.0, 1517.0, 1519.0, 1520.0, 1520.0, 1520.0, 1519.0, 1517.0, 1516.0, 1515.0, 1516.0, 1518.0, 1516.0, 1514.0, 1512.0, 1511.0, 1510.0, 1510.0, 1510.0, 1512.0, 1514.0, 1513.0, 1514.0, 1512.0, 1512.0, 1513.0, 1512.0, 1512.0, 1513.0, 1514.0, 1516.0, 1518.0, 1517.0, 1516.0, 1514.0, 1512.0, 1514.0, 1516.0, 1518.0, 1518.0, 1518.0, 1519.0, 1523.0, 1522.0, 1519.0, 1516.0, 1513.0, 1512.0, 1511.0, 1512.0, 1512.0, 1511.0, 1512.0, 1517.0]
    },
    "slices": {}
  }
}