{
  "AcquisitionMatrixPE": 72,
  "AcquisitionNumber": 1,
  "AcquisitionTime": "17:38:23.442500",
  "BandwidthPerPixelPhaseEncode": 17.943,
  "BaseResolution": 96,
  "BodyPartExamined": "BRAIN",
  "CoilCombinationMethod": "Sum of Squares",
  "ConsistencyInfo": "N4_VE11C_LATEST_20160120",
  "ConversionSoftware": "dcm2niix",
  "ConversionSoftwareVersion": "v1.0.20211006",
  "DerivedVendorReportedEchoSpacing": 0.000552897,
  "DeviceSerialNumber": "166011",
  "EchoTime": 0.03,
  "EchoTrainLength": 58,
  "EffectiveEchoSpacing": 0.000580542,
  "FlipAngle": 62,
  "ImageOrientationPatientDICOM": [0.999814, -0.00316849, -0.0190456, -0.00191952, 0.965243, -0.261348],
  "ImageType": [
    "ORIGINAL",
    "PRIMARY",
    "M",
    "ND",
    "MOSAIC"
],
  "ImagingFrequency": 123.259,
  "InPlanePhaseEncodingDirectionDICOM": "COL",
  "InstitutionAddress": "West 130th Street 610,NY,NYC,US,10025",
  "InstitutionName": "MBBI",
  "MRAcquisitionType": "2D",
  "MagneticFieldStrength": 3,
  "Manufacturer": "Siemens",
  "ManufacturersModelName": "Prisma",
  "Modality": "MR",
  "MultibandAccelerationFactor": 3,
  "PartialFourier": 0.75,
  "PatientPosition": "HFS",
  "PercentPhaseFOV": 100,
  "PercentSampling": 75,
  "PhaseEncodingDirection": "j-",
  "PhaseEncodingSteps": 58,
  "PhaseOversampling": 0.05,
  "PhaseResolution": 0.75,
  "PixelBandwidth": 2265,
  "ProcedureStepDescription": "White^Word_recognition",
  "ProtocolName": "func_vwfate_run5",
  "PulseSequenceDetails": "%SiemensSeq%\\ep2d_bold",
  "ReceiveCoilActiveElements": "HC1-7;NC1",
  "ReceiveCoilName": "HeadNeck_64",
  "ReconMatrixPE": 96,
  "RefLinesPE": 40,
  "RepetitionTime": 1.5,
  "SAR": 0.0495676,
  "ScanOptions": "PFP\\FS",
  "ScanningSequence": "EP",
  "SequenceName": "*epfid2d1_72",
  "SequenceVariant": "SK\\OSP",
  "SeriesDescription": "func_vwfate_run5",
  "SeriesNumber": 14,
  "ShimSetting": [-1166, -1394, 707, 657, -133, -87, -52, 48],
  "SliceThickness": 2,
  "SliceTiming": [1.075, 0, 0.74, 0.0675, 0.8075, 0.1325, 0.8725, 0.2, 0.94, 0.2675, 1.0075, 0.4025, 1.1425, 0.47, 1.21, 0.5375, 1.2775, 0.605, 1.345, 0.6725, 1.4125, 0.335, 1.075, 0, 0.74, 0.0675, 0.8075, 0.1325, 0.8725, 0.2, 0.94, 0.2675, 1.0075, 0.4025, 1.1425, 0.47, 1.21, 0.5375, 1.2775, 0.605, 1.345, 0.6725, 1.4125, 0.335, 1.075, 0, 0.74, 0.0675, 0.8075, 0.1325, 0.8725, 0.2, 0.94, 0.2675, 1.0075, 0.4025, 1.1425, 0.47, 1.21, 0.5375, 1.2775, 0.605, 1.345, 0.6725, 1.4125, 0.335],
  "SoftwareVersions": "syngo MR E11",
  "SpacingBetweenSlices": 2,
  "StationName": "AWP166011",
  "TaskName": "vwfate",
  "TotalReadoutTime": 0.0551515,
  "TxRefAmp": 214.819,
  "dcmmeta_affine": [
    [-1.9996272325515747, -0.003839044366031885, -0.0384233221411705, 103.92756652832031],
    [0.006336976774036884, 1.9304852485656738, -0.5226724147796631, -59.97991943359375],
    [-0.038091111928224564, 0.5226967334747314, 1.9301133155822754, -82.24171447753906],
    [0.0, 0.0, 0.0, 1.0]
],
  "dcmmeta_reorient_transform": [
    [0.0, -1.0, 0.0, 95.0],
    [1.0, 0.0, 0.0, 0.0],
    [0.0, 0.0, 1.0, 0.0],
    [0.0, 0.0, 0.0, 1.0]
],
  "dcmmeta_shape": [96, 96, 66, 164],
  "dcmmeta_slice_dim": 2,
  "dcmmeta_version": 0.6,
  "global": {
    "const": {
      "AcquisitionMatrix": [96, 0, 0, 72],
      "AngioFlag": "N",
      "BitsAllocated": 16,
      "BitsStored": 12,
      "BodyPartExamined": "BRAIN",
      "Columns": 864,
      "EchoNumbers": 1,
      "EchoTime": 30.0,
      "EchoTrainLength": 58,
      "FlipAngle": 62.0,
      "HighBit": 11,
      "ImageOrientationPatient": [0.99981359637879, -0.0031684884794, -0.0190455553048, -0.0019195221998, 0.96524263895279, -0.261348356379],
      "ImagePositionPatient": [-869.94550666005, -862.28912815804, 182.75699420525],
      "ImageType": [
        "ORIGINAL",
        "PRIMARY",
        "M",
        "ND",
        "MOSAIC"
],
      "ImagedNucleus": "1H",
      "ImagingFrequency": 123.259422,
      "InPlanePhaseEncodingDirection": "COL",
      "MRAcquisitionType": "2D",
      "MagneticFieldStrength": 3.0,
      "Manufacturer": "SIEMENS",
      "ManufacturerModelName": "Prisma",
      "Modality": "MR",
      "NumberOfAverages": 1.0,
      "NumberOfPhaseEncodingSteps": 58,
      "PercentPhaseFieldOfView": 100.0,
      "PercentSampling": 75.0,
      "PerformedProcedureStepStartTime": "163648.140000",
      "PhotometricInterpretation": "MONOCHROME2",
      "PixelBandwidth": 2265.0,
      "PixelRepresentation": 0,
      "PixelSpacing": [2.0, 2.0],
      "ProtocolName": "func_vwfate_run5",
      "RepetitionTime": 1500.0,
      "Rows": 864,
      "SAR": 0.04956764232286,
      "SamplesPerPixel": 1,
      "ScanOptions": [
        "PFP",
        "FS"
],
      "ScanningSequence": "EP",
      "SequenceName": "*epfid2d1_72",
      "SequenceVariant": [
        "SK",
        "OSP"
],
      "SeriesDescription": "func_vwfate_run5",
      "SeriesNumber": 14,
      "SeriesTime": "173900.301000",
      "SliceLocation": -65.689611823555,
      "SliceThickness": 2.0,
      "SmallestImagePixelValue": 0,
      "SoftwareVersions": "syngo MR E11",
      "SpacingBetweenSlices": 2.0000000082234,
      "SpecificCharacterSet": "ISO_IR 100",
      "StudyID": "1",
      "StudyTime": "163648.086000",
      "TransmitCoilName": "Body",
      "VariableFlipAngleFlag": "N",
      "WindowCenterWidthExplanation": "Algo1",
      "dBdt": 0.0},
    "slices": {}
  },
  "time": {
    "samples": {
      "AcquisitionNumber": [1, 2, 3, 4, 5, 6, 7, 8, 9, 10, 11, 12, 13, 14, 15, 16, 17, 18, 19, 20, 21, 22, 23, 24, 25, 26, 27, 28, 29, 30, 31, 32, 33, 34, 35, 36, 37, 38, 39, 40, 41, 42, 43, 44, 45, 46, 47, 48, 49, 50, 51, 52, 53, 54, 55, 56, 57, 58, 59, 60, 61, 62, 63, 64, 65, 66, 67, 68, 69, 70, 71, 72, 73, 74, 75, 76, 77, 78, 79, 80, 81, 82, 83, 84, 85, 86, 87, 88, 89, 90, 91, 92, 93, 94, 95, 96, 97, 98, 99, 100, 101, 102, 103, 104, 105, 106, 107, 108, 109, 110, 111, 112, 113, 114, 115, 116, 117, 118, 119, 120, 121, 122, 123, 124, 125, 126, 127, 128, 129, 130, 131, 132, 133, 134, 135, 136, 137, 138, 139, 140, 141, 142, 143, 144, 145, 146, 147, 148, 149, 150, 151, 152, 153, 154, 155, 156, 157, 158, 159, 160, 161, 162, 163, 164],
      "AcquisitionTime": ["173823.442500", "173824.942500", "173826.442500", "173827.942500", "173829.442500", "173830.942500", "173832.442500", "173833.942500", "173835.442500", "173836.942500", "173838.442500", "173839.942500", "173841.442500", "173842.942500", "173844.442500", "173845.942500", "173847.442500", "173848.942500", "173850.442500", "173851.942500", "173853.442500", "173854.942500", "173856.442500", "173857.942500", "173859.442500", "173900.942500", "173902.442500", "173903.942500", "173905.442500", "173906.942500", "173908.442500", "173909.942500", "173911.442500", "173912.942500", "173914.442500", "173915.942500", "173917.442500", "173918.942500", "173920.442500", "173921.942500", "173923.442500", "173924.942500", "173926.442500", "173927.942500", "173929.442500", "173930.942500", "173932.442500", "173933.942500", "173935.442500", "173936.942500", "173938.442500", "173939.942500", "173941.442500", "173942.942500", "173944.442500", "173945.942500", "173947.442500", "173948.942500", "173950.442500", "173951.942500", "173953.442500", "173954.942500", "173956.442500", "173957.942500", "173959.442500", "174000.942500", "174002.442500", "174003.942500", "174005.442500", "174006.942500", "174008.442500", "174009.942500", "174011.442500", "174012.942500", "174014.442500", "174015.942500", "174017.442500", "174018.942500", "174020.442500", "174021.942500", "174023.442500", "174024.942500", "174026.442500", "174027.942500", "174029.442500", "174030.942500", "174032.442500", "174033.942500", "174035.442500", "174036.942500", "174038.442500", "174039.942500", "174041.442500", "174042.942500", "174044.442500", "174045.942500", "174047.442500", "174048.942500", "174050.442500", "174051.942500", "174053.442500", "174054.942500", "174056.442500", "174057.942500", "174059.442500", "174100.942500", "174102.442500", "174103.942500", "174105.442500", "174106.942500", "174108.442500", "174109.942500", "174111.442500", "174112.942500", "174114.442500", "174115.942500", "174117.442500", "174118.942500", "174120.442500", "174121.942500", "174123.442500", "174124.942500", "174126.442500", "174127.942500", "174129.442500", "174130.942500", "174132.442500", "174133.942500", "174135.442500", "174136.942500", "174138.442500", "174139.942500", "174141.442500", "174142.942500", "174144.442500", "174145.942500", "174147.442500", "174148.942500", "174150.442500", "174151.942500", "174153.442500", "174154.942500", "174156.442500", "174157.942500", "174159.442500", "174200.942500", "174202.442500", "174203.942500", "174205.442500", "174206.942500", "174208.442500", "174209.942500", "174211.442500", "174212.942500", "174214.442500", "174215.942500", "174217.442500", "174218.942500", "174220.442500", "174221.942500", "174223.442500", "174224.942500", "174226.442500", "174227.942500"],
      "ContentTime": ["173900.305000", "173900.309000", "173900.312000", "173900.327000", "173900.330000", "173900.333000", "173900.337000", "173900.340000", "173900.343000", "173900.346000", "173900.350000", "173900.353000", "173900.361000", "173900.364000", "173900.367000", "173900.370000", "173900.378000", "173900.382000", "173900.385000", "173900.388000", "173900.391000", "173900.394000", "173900.397000", "173900.400000", "173940.300000", "173940.303000", "173940.307000", "173940.318000", "173940.321000", "173940.324000", "173940.327000", "173940.330000", "173940.333000", "173940.336000", "173940.339000", "173940.342000", "173940.345000", "173940.348000", "173940.351000", "173940.354000", "173940.357000", "173940.360000", "173940.363000", "173940.366000", "173940.369000", "173940.372000", "173940.375000", "173940.379000", "173940.382000", "173940.390000", "173940.393000", "174020.300000", "174020.304000", "174020.307000", "174020.310000", "174020.313000", "174020.316000", "174020.319000", "174020.322000", "174020.325000", "174020.328000", "174020.331000", "174020.353000", "174020.357000", "174020.360000", "174020.364000", "174020.367000", "174020.371000", "174020.374000", "174020.377000", "174020.380000", "174020.383000", "174020.387000", "174020.390000", "174020.393000", "174020.396000", "174020.400000", "174100.301000", "174100.304000", "174100.307000", "174100.310000", "174100.313000", "174100.317000", "174100.320000", "174100.323000", "174100.326000", "174100.329000", "174100.332000", "174100.335000", "174100.338000", "174100.342000", "174100.345000", "174100.347000", "174100.351000", "174100.354000", "174100.357000", "174100.360000", "174100.363000", "174100.366000", "174100.369000", "174100.372000", "174100.375000", "174100.378000", "174100.381000", "174140.300000", "174140.303000", "174140.306000", "174140.309000", "174140.312000", "174140.315000", "174140.318000", "174140.321000", "174140.325000", "174140.328000", "174140.331000", "174140.334000", "174140.337000", "174140.340000", "174140.343000", "174140.346000", "174140.349000", "174140.352000", "174140.356000", "174140.359000", "174140.362000", "174140.365000", "174140.368000", "174140.371000", "174140.374000", "174140.377000", "174140.380000", "174220.300000", "174220.303000", "174220.306000", "174220.309000", "174220.312000", "174220.315000", "174220.319000", "174220.322000", "174220.325000", "174220.328000", "174220.331000", "174220.334000", "174220.337000", "174220.340000", "174220.343000", "174220.346000", "174220.350000", "174220.353000", "174220.356000", "174220.359000", "174220.362000", "174220.365000", "174220.368000", "174220.371000", "174220.374000", "174220.377000", "174229.568000", "174229.572000", "174229.575000", "174229.578000", "174229.582000", "174229.586000", "174229.589000"],
      "InstanceCreationTime": ["173900.305000", "173900.309000", "173900.312000", "173900.327000", "173900.330000", "173900.333000", "173900.337000", "173900.340000", "173900.343000", "173900.346000", "173900.350000", "173900.353000", "173900.361000", "173900.364000", "173900.367000", "173900.370000", "173900.378000", "173900.382000", "173900.385000", "173900.388000", "173900.391000", "173900.394000", "173900.397000", "173900.400000", "173940.300000", "173940.303000", "173940.307000", "173940.318000", "173940.321000", "173940.324000", "173940.327000", "173940.330000", "173940.333000", "173940.336000", "173940.339000", "173940.342000", "173940.345000", "173940.348000", "173940.351000", "173940.354000", "173940.357000", "173940.360000", "173940.363000", "173940.366000", "173940.369000", "173940.372000", "173940.375000", "173940.379000", "173940.382000", "173940.390000", "173940.393000", "174020.300000", "174020.304000", "174020.307000", "174020.310000", "174020.313000", "174020.316000", "174020.319000", "174020.322000", "174020.325000", "174020.328000", "174020.331000", "174020.353000", "174020.357000", "174020.360000", "174020.364000", "174020.367000", "174020.371000", "174020.374000", "174020.377000", "174020.380000", "174020.383000", "174020.387000", "174020.390000", "174020.393000", "174020.396000", "174020.400000", "174100.301000", "174100.304000", "174100.307000", "174100.310000", "174100.313000", "174100.317000", "174100.320000", "174100.323000", "174100.326000", "174100.329000", "174100.332000", "174100.335000", "174100.338000", "174100.342000", "174100.345000", "174100.347000", "174100.351000", "174100.354000", "174100.357000", "174100.360000", "174100.363000", "174100.366000", "174100.369000", "174100.372000", "174100.375000", "174100.378000", "174100.381000", "174140.300000", "174140.303000", "174140.306000", "174140.309000", "174140.312000", "174140.315000", "174140.318000", "174140.321000", "174140.325000", "174140.328000", "174140.331000", "174140.334000", "174140.337000", "174140.340000", "174140.343000", "174140.346000", "174140.349000", "174140.352000", "174140.356000", "174140.359000", "174140.362000", "174140.365000", "174140.368000", "174140.371000", "174140.374000", "174140.377000", "174140.380000", "174220.300000", "174220.303000", "174220.306000", "174220.309000", "174220.312000", "174220.315000", "174220.319000", "174220.322000", "174220.325000", "174220.328000", "174220.331000", "174220.334000", "174220.337000", "174220.340000", "174220.343000", "174220.346000", "174220.350000", "174220.353000", "174220.356000", "174220.359000", "174220.362000", "174220.365000", "174220.368000", "174220.371000", "174220.374000", "174220.377000", "174229.568000", "174229.572000", "174229.575000", "174229.578000", "174229.582000", "174229.586000", "174229.589000"],
      "InstanceNumber": [1, 2, 3, 4, 5, 6, 7, 8, 9, 10, 11, 12, 13, 14, 15, 16, 17, 18, 19, 20, 21, 22, 23, 24, 25, 26, 27, 28, 29, 30, 31, 32, 33, 34, 35, 36, 37, 38, 39, 40, 41, 42, 43, 44, 45, 46, 47, 48, 49, 50, 51, 52, 53, 54, 55, 56, 57, 58, 59, 60, 61, 62, 63, 64, 65, 66, 67, 68, 69, 70, 71, 72, 73, 74, 75, 76, 77, 78, 79, 80, 81, 82, 83, 84, 85, 86, 87, 88, 89, 90, 91, 92, 93, 94, 95, 96, 97, 98, 99, 100, 101, 102, 103, 104, 105, 106, 107, 108, 109, 110, 111, 112, 113, 114, 115, 116, 117, 118, 119, 120, 121, 122, 123, 124, 125, 126, 127, 128, 129, 130, 131, 132, 133, 134, 135, 136, 137, 138, 139, 140, 141, 142, 143, 144, 145, 146, 147, 148, 149, 150, 151, 152, 153, 154, 155, 156, 157, 158, 159, 160, 161, 162, 163, 164],
      "LargestImagePixelValue": [2506, 2422, 2411, 2405, 2359, 2341, 2322, 2358, 2325, 2351, 2313, 2334, 2356, 2327, 2352, 2349, 2377, 2358, 2360, 2349, 2350, 2357, 2335, 2329, 2310, 2363, 2338, 2337, 2330, 2317, 2334, 2309, 2337, 2322, 2346, 2333, 2314, 2336, 2314, 2349, 2321, 2306, 2320, 2329, 2333, 2336, 2331, 2337, 2390, 2321, 2326, 2336, 2346, 2337, 2332, 2340, 2333, 2355, 2331, 2356, 2327, 2352, 2360, 2336, 2353, 2346, 2375, 2331, 2381, 2330, 2344, 2368, 2359, 2367, 2333, 2394, 2340, 2332, 2362, 2319, 2347, 2358, 2374, 2371, 2365, 2363, 2388, 2387, 2371, 2366, 2353, 2379, 2367, 2369, 2367, 2385, 2387, 2401, 2386, 2367, 2380, 2360, 2388, 2371, 2377, 2376, 2409, 2356, 2378, 2373, 2373, 2387, 2379, 2384, 2371, 2366, 2379, 2374, 2388, 2368, 2390, 2390, 2374, 2380, 2399, 2394, 2378, 2400, 2340, 2393, 2389, 2390, 2367, 2397, 2401, 2384, 2393, 2384, 2382, 2401, 2379, 2403, 2396, 2419, 2407, 2367, 2372, 2372, 2407, 2376, 2407, 2385, 2348, 2381, 2370, 2375, 2392, 2360, 2368, 2372, 2395, 2348, 2383, 2381],
      "WindowCenter": [714.0, 712.0, 711.0, 710.0, 709.0, 709.0, 709.0, 710.0, 709.0, 709.0, 708.0, 709.0, 710.0, 709.0, 710.0, 710.0, 710.0, 710.0, 710.0, 711.0, 711.0, 711.0, 710.0, 710.0, 710.0, 711.0, 711.0, 711.0, 710.0, 710.0, 710.0, 710.0, 710.0, 710.0, 710.0, 710.0, 709.0, 708.0, 708.0, 709.0, 709.0, 710.0, 710.0, 710.0, 711.0, 711.0, 710.0, 710.0, 710.0, 710.0, 710.0, 710.0, 710.0, 709.0, 709.0, 708.0, 708.0, 709.0, 708.0, 709.0, 709.0, 710.0, 710.0, 710.0, 711.0, 711.0, 712.0, 711.0, 711.0, 709.0, 709.0, 709.0, 710.0, 711.0, 711.0, 711.0, 711.0, 710.0, 710.0, 709.0, 708.0, 708.0, 708.0, 708.0, 708.0, 708.0, 708.0, 708.0, 708.0, 709.0, 710.0, 711.0, 711.0, 711.0, 711.0, 711.0, 711.0, 711.0, 712.0, 711.0, 711.0, 710.0, 709.0, 709.0, 709.0, 709.0, 709.0, 709.0, 710.0, 710.0, 711.0, 710.0, 710.0, 710.0, 709.0, 709.0, 710.0, 710.0, 709.0, 709.0, 709.0, 709.0, 709.0, 709.0, 709.0, 710.0, 710.0, 710.0, 710.0, 711.0, 711.0, 710.0, 709.0, 709.0, 709.0, 709.0, 710.0, 711.0, 710.0, 710.0, 709.0, 709.0, 710.0, 711.0, 710.0, 708.0, 709.0, 709.0, 710.0, 710.0, 709.0, 709.0, 708.0, 709.0, 710.0, 710.0, 710.0, 708.0, 707.0, 707.0, 707.0, 707.0, 708.0, 709.0],
      "WindowWidth": [1523.0, 1518.0, 1515.0, 1513.0, 1510.0, 1510.0, 1510.0, 1512.0, 1511.0, 1511.0, 1509.0, 1510.0, 1513.0, 1512.0, 1513.0, 1512.0, 1512.0, 1512.0, 1513.0, 1515.0, 1516.0, 1515.0, 1512.0, 1512.0, 1513.0, 1514.0, 1515.0, 1515.0, 1514.0, 1513.0, 1514.0, 1513.0, 1514.0, 1513.0, 1513.0, 1513.0, 1511.0, 1509.0, 1508.0, 1510.0, 1512.0, 1512.0, 1513.0, 1513.0, 1515.0, 1515.0, 1513.0, 1513.0, 1514.0, 1513.0, 1513.0, 1513.0, 1513.0, 1511.0, 1509.0, 1508.0, 1509.0, 1509.0, 1509.0, 1510.0, 1511.0, 1514.0, 1514.0, 1514.0, 1515.0, 1516.0, 1517.0, 1515.0, 1514.0, 1512.0, 1511.0, 1510.0, 1512.0, 1514.0, 1515.0, 1516.0, 1515.0, 1513.0, 1512.0, 1511.0, 1509.0, 1508.0, 1509.0, 1508.0, 1508.0, 1507.0, 1508.0, 1507.0, 1508.0, 1510.0, 1513.0, 1515.0, 1516.0, 1516.0, 1516.0, 1515.0, 1515.0, 1516.0, 1517.0, 1517.0, 1515.0, 1512.0, 1511.0, 1510.0, 1510.0, 1509.0, 1510.0, 1510.0, 1512.0, 1514.0, 1515.0, 1513.0, 1512.0, 1513.0, 1511.0, 1511.0, 1512.0, 1512.0, 1511.0, 1510.0, 1511.0, 1511.0, 1511.0, 1509.0, 1511.0, 1512.0, 1513.0, 1514.0, 1513.0, 1516.0, 1514.0, 1513.0, 1511.0, 1509.0, 1509.0, 1510.0, 1512.0, 1514.0, 1513.0, 1512.0, 1509.0, 1511.0, 1513.0, 1514.0, 1512.0, 1508.0, 1509.0, 1510.0, 1512.0, 1512.0, 1511.0, 1510.0, 1509.0, 1510.0, 1513.0, 1513.0, 1512.0, 1508.0, 1506.0, 1505.0, 1506.0, 1506.0, 1509.0, 1511.0]
    },
    "slices": {}
  }
}