{
  "AcquisitionMatrixPE": 72,
  "AcquisitionNumber": 1,
  "AcquisitionTime": "17:01:7.287500",
  "BandwidthPerPixelPhaseEncode": 17.943,
  "BaseResolution": 96,
  "BodyPartExamined": "BRAIN",
  "CoilCombinationMethod": "Sum of Squares",
  "ConsistencyInfo": "N4_VE11C_LATEST_20160120",
  "ConversionSoftware": "dcm2niix",
  "ConversionSoftwareVersion": "v1.0.20211006",
  "DerivedVendorReportedEchoSpacing": 0.000552897,
  "DeviceSerialNumber": "166011",
  "EchoTime": 0.03,
  "EchoTrainLength": 58,
  "EffectiveEchoSpacing": 0.000580542,
  "FlipAngle": 62,
  "ImageOrientationPatientDICOM": [0.999814, -0.00316849, -0.0190456, -0.00191952, 0.965243, -0.261348],
  "ImageType": [
    "ORIGINAL",
    "PRIMARY",
    "M",
    "ND",
    "MOSAIC"
],
  "ImagingFrequency": 123.259,
  "InPlanePhaseEncodingDirectionDICOM": "COL",
  "InstitutionAddress": "West 130th Street 610,NY,NYC,US,10025",
  "InstitutionName": "MBBI",
  "MRAcquisitionType": "2D",
  "MagneticFieldStrength": 3,
  "Manufacturer": "Siemens",
  "ManufacturersModelName": "Prisma",
  "Modality": "MR",
  "MultibandAccelerationFactor": 3,
  "PartialFourier": 0.75,
  "PatientPosition": "HFS",
  "PercentPhaseFOV": 100,
  "PercentSampling": 75,
  "PhaseEncodingDirection": "j-",
  "PhaseEncodingSteps": 58,
  "PhaseOversampling": 0.05,
  "PhaseResolution": 0.75,
  "PixelBandwidth": 2265,
  "ProcedureStepDescription": "White^Word_recognition",
  "ProtocolName": "func_vwfate_run1",
  "PulseSequenceDetails": "%SiemensSeq%\\ep2d_bold",
  "ReceiveCoilActiveElements": "HC1-7;NC1",
  "ReceiveCoilName": "HeadNeck_64",
  "ReconMatrixPE": 96,
  "RefLinesPE": 40,
  "RepetitionTime": 1.5,
  "SAR": 0.0495676,
  "ScanOptions": "PFP\\FS",
  "ScanningSequence": "EP",
  "SequenceName": "*epfid2d1_72",
  "SequenceVariant": "SK\\OSP",
  "SeriesDescription": "func_vwfate_run1",
  "SeriesNumber": 8,
  "ShimSetting": [-1166, -1394, 707, 657, -133, -87, -52, 48],
  "SliceThickness": 2,
  "SliceTiming": [1.075, 0, 0.74, 0.0675, 0.8075, 0.135, 0.875, 0.2025, 0.9425, 0.27, 1.01, 0.4025, 1.1425, 0.47, 1.21, 0.5375, 1.2775, 0.605, 1.345, 0.6725, 1.4125, 0.335, 1.075, 0, 0.74, 0.0675, 0.8075, 0.135, 0.875, 0.2025, 0.9425, 0.27, 1.01, 0.4025, 1.1425, 0.47, 1.21, 0.5375, 1.2775, 0.605, 1.345, 0.6725, 1.4125, 0.335, 1.075, 0, 0.74, 0.0675, 0.8075, 0.135, 0.875, 0.2025, 0.9425, 0.27, 1.01, 0.4025, 1.1425, 0.47, 1.21, 0.5375, 1.2775, 0.605, 1.345, 0.6725, 1.4125, 0.335],
  "SoftwareVersions": "syngo MR E11",
  "SpacingBetweenSlices": 2,
  "StationName": "AWP166011",
  "TaskName": "vwfate",
  "TotalReadoutTime": 0.0551515,
  "TxRefAmp": 214.819,
  "dcmmeta_affine": [
    [-1.9996272325515747, -0.003839044366031885, -0.0384233221411705, 103.92756652832031],
    [0.006336976774036884, 1.9304852485656738, -0.5226724147796631, -59.97991943359375],
    [-0.038091111928224564, 0.5226967334747314, 1.9301133155822754, -82.24171447753906],
    [0.0, 0.0, 0.0, 1.0]
],
  "dcmmeta_reorient_transform": [
    [0.0, -1.0, 0.0, 95.0],
    [1.0, 0.0, 0.0, 0.0],
    [0.0, 0.0, 1.0, 0.0],
    [0.0, 0.0, 0.0, 1.0]
],
  "dcmmeta_shape": [96, 96, 66, 164],
  "dcmmeta_slice_dim": 2,
  "dcmmeta_version": 0.6,
  "global": {
    "const": {
      "AcquisitionMatrix": [96, 0, 0, 72],
      "AngioFlag": "N",
      "BitsAllocated": 16,
      "BitsStored": 12,
      "BodyPartExamined": "BRAIN",
      "Columns": 864,
      "EchoNumbers": 1,
      "EchoTime": 30.0,
      "EchoTrainLength": 58,
      "FlipAngle": 62.0,
      "HighBit": 11,
      "ImageOrientationPatient": [0.99981359637879, -0.0031684884794, -0.0190455553048, -0.0019195221998, 0.96524263895279, -0.261348356379],
      "ImagePositionPatient": [-869.94550666005, -862.28912815804, 182.75699420525],
      "ImageType": [
        "ORIGINAL",
        "PRIMARY",
        "M",
        "ND",
        "MOSAIC"
],
      "ImagedNucleus": "1H",
      "ImagingFrequency": 123.259405,
      "InPlanePhaseEncodingDirection": "COL",
      "MRAcquisitionType": "2D",
      "MagneticFieldStrength": 3.0,
      "Manufacturer": "SIEMENS",
      "ManufacturerModelName": "Prisma",
      "Modality": "MR",
      "NumberOfAverages": 1.0,
      "NumberOfPhaseEncodingSteps": 58,
      "PercentPhaseFieldOfView": 100.0,
      "PercentSampling": 75.0,
      "PerformedProcedureStepStartTime": "163648.140000",
      "PhotometricInterpretation": "MONOCHROME2",
      "PixelBandwidth": 2265.0,
      "PixelRepresentation": 0,
      "PixelSpacing": [2.0, 2.0],
      "ProtocolName": "func_vwfate_run1",
      "RepetitionTime": 1500.0,
      "Rows": 864,
      "SAR": 0.04956764232286,
      "SamplesPerPixel": 1,
      "ScanOptions": [
        "PFP",
        "FS"
],
      "ScanningSequence": "EP",
      "SequenceName": "*epfid2d1_72",
      "SequenceVariant": [
        "SK",
        "OSP"
],
      "SeriesDescription": "func_vwfate_run1",
      "SeriesNumber": 8,
      "SeriesTime": "170140.302000",
      "SliceLocation": -65.689611823555,
      "SliceThickness": 2.0,
      "SmallestImagePixelValue": 0,
      "SoftwareVersions": "syngo MR E11",
      "SpacingBetweenSlices": 2.0000000082234,
      "SpecificCharacterSet": "ISO_IR 100",
      "StudyID": "1",
      "StudyTime": "163648.086000",
      "TransmitCoilName": "Body",
      "VariableFlipAngleFlag": "N",
      "WindowCenterWidthExplanation": "Algo1",
      "dBdt": 0.0},
    "slices": {}
  },
  "time": {
    "samples": {
      "AcquisitionNumber": [1, 2, 3, 4, 5, 6, 7, 8, 9, 10, 11, 12, 13, 14, 15, 16, 17, 18, 19, 20, 21, 22, 23, 24, 25, 26, 27, 28, 29, 30, 31, 32, 33, 34, 35, 36, 37, 38, 39, 40, 41, 42, 43, 44, 45, 46, 47, 48, 49, 50, 51, 52, 53, 54, 55, 56, 57, 58, 59, 60, 61, 62, 63, 64, 65, 66, 67, 68, 69, 70, 71, 72, 73, 74, 75, 76, 77, 78, 79, 80, 81, 82, 83, 84, 85, 86, 87, 88, 89, 90, 91, 92, 93, 94, 95, 96, 97, 98, 99, 100, 101, 102, 103, 104, 105, 106, 107, 108, 109, 110, 111, 112, 113, 114, 115, 116, 117, 118, 119, 120, 121, 122, 123, 124, 125, 126, 127, 128, 129, 130, 131, 132, 133, 134, 135, 136, 137, 138, 139, 140, 141, 142, 143, 144, 145, 146, 147, 148, 149, 150, 151, 152, 153, 154, 155, 156, 157, 158, 159, 160, 161, 162, 163, 164],
      "AcquisitionTime": ["170107.287500", "170108.787500", "170110.287500", "170111.787500", "170113.287500", "170114.787500", "170116.287500", "170117.787500", "170119.287500", "170120.787500", "170122.287500", "170123.787500", "170125.287500", "170126.787500", "170128.287500", "170129.787500", "170131.287500", "170132.787500", "170134.287500", "170135.787500", "170137.287500", "170138.787500", "170140.287500", "170141.787500", "170143.287500", "170144.787500", "170146.287500", "170147.787500", "170149.287500", "170150.787500", "170152.287500", "170153.787500", "170155.287500", "170156.787500", "170158.287500", "170159.787500", "170201.287500", "170202.787500", "170204.287500", "170205.787500", "170207.287500", "170208.787500", "170210.287500", "170211.787500", "170213.287500", "170214.787500", "170216.287500", "170217.787500", "170219.287500", "170220.787500", "170222.287500", "170223.787500", "170225.287500", "170226.787500", "170228.287500", "170229.787500", "170231.287500", "170232.787500", "170234.287500", "170235.787500", "170237.287500", "170238.787500", "170240.287500", "170241.787500", "170243.287500", "170244.787500", "170246.287500", "170247.787500", "170249.287500", "170250.787500", "170252.287500", "170253.787500", "170255.287500", "170256.787500", "170258.287500", "170259.787500", "170301.287500", "170302.787500", "170304.287500", "170305.787500", "170307.287500", "170308.787500", "170310.287500", "170311.787500", "170313.287500", "170314.787500", "170316.287500", "170317.787500", "170319.287500", "170320.787500", "170322.287500", "170323.787500", "170325.287500", "170326.787500", "170328.287500", "170329.787500", "170331.287500", "170332.787500", "170334.287500", "170335.787500", "170337.287500", "170338.787500", "170340.287500", "170341.787500", "170343.287500", "170344.787500", "170346.287500", "170347.787500", "170349.287500", "170350.787500", "170352.287500", "170353.787500", "170355.287500", "170356.787500", "170358.287500", "170359.787500", "170401.287500", "170402.787500", "170404.287500", "170405.787500", "170407.287500", "170408.787500", "170410.287500", "170411.787500", "170413.287500", "170414.787500", "170416.287500", "170417.787500", "170419.287500", "170420.787500", "170422.287500", "170423.787500", "170425.287500", "170426.787500", "170428.287500", "170429.787500", "170431.287500", "170432.787500", "170434.287500", "170435.787500", "170437.287500", "170438.787500", "170440.287500", "170441.787500", "170443.287500", "170444.787500", "170446.287500", "170447.787500", "170449.287500", "170450.787500", "170452.287500", "170453.787500", "170455.287500", "170456.787500", "170458.287500", "170459.787500", "170501.287500", "170502.787500", "170504.287500", "170505.787500", "170507.287500", "170508.787500", "170510.287500", "170511.787500"],
      "ContentTime": ["170140.306000", "170140.310000", "170140.318000", "170140.321000", "170140.324000", "170140.327000", "170140.330000", "170140.334000", "170140.337000", "170140.340000", "170140.343000", "170140.346000", "170140.349000", "170140.352000", "170140.355000", "170140.358000", "170140.367000", "170140.370000", "170140.373000", "170140.376000", "170140.379000", "170140.382000", "170220.300000", "170220.309000", "170220.312000", "170220.316000", "170220.318000", "170220.322000", "170220.325000", "170220.328000", "170220.331000", "170220.334000", "170220.337000", "170220.342000", "170220.346000", "170220.350000", "170220.354000", "170220.357000", "170220.360000", "170220.364000", "170220.367000", "170220.370000", "170220.373000", "170220.376000", "170220.379000", "170220.382000", "170220.385000", "170220.388000", "170240.300000", "170240.304000", "170240.307000", "170240.310000", "170240.313000", "170240.316000", "170240.319000", "170240.322000", "170240.325000", "170240.335000", "170240.338000", "170240.341000", "170240.344000", "170240.348000", "170320.300000", "170320.303000", "170320.306000", "170320.310000", "170320.313000", "170320.316000", "170320.319000", "170320.322000", "170320.325000", "170320.328000", "170320.332000", "170320.335000", "170320.338000", "170320.341000", "170320.344000", "170320.347000", "170320.350000", "170320.354000", "170320.357000", "170320.360000", "170320.363000", "170320.366000", "170320.371000", "170320.376000", "170320.379000", "170320.382000", "170400.301000", "170400.304000", "170400.307000", "170400.311000", "170400.314000", "170400.317000", "170400.320000", "170400.324000", "170400.327000", "170400.330000", "170400.333000", "170400.337000", "170400.340000", "170400.343000", "170400.346000", "170400.349000", "170400.352000", "170400.355000", "170400.358000", "170400.361000", "170400.364000", "170400.368000", "170400.371000", "170400.374000", "170400.377000", "170400.380000", "170400.383000", "170440.300000", "170440.303000", "170440.306000", "170440.309000", "170440.312000", "170440.315000", "170440.334000", "170440.338000", "170440.341000", "170440.353000", "170440.356000", "170440.359000", "170440.362000", "170440.365000", "170440.368000", "170440.371000", "170440.374000", "170440.377000", "170440.381000", "170440.384000", "170440.387000", "170440.390000", "170440.393000", "170440.396000", "170440.399000", "170440.402000", "170440.405000", "170512.836000", "170512.839000", "170512.842000", "170512.846000", "170512.849000", "170512.852000", "170512.856000", "170512.859000", "170512.863000", "170512.866000", "170512.870000", "170512.873000", "170512.876000", "170512.880000", "170512.883000", "170512.886000", "170512.889000", "170512.892000", "170512.895000", "170512.899000", "170512.902000", "170512.905000"],
      "InstanceCreationTime": ["170140.306000", "170140.310000", "170140.318000", "170140.321000", "170140.324000", "170140.327000", "170140.330000", "170140.334000", "170140.337000", "170140.340000", "170140.343000", "170140.346000", "170140.349000", "170140.352000", "170140.355000", "170140.358000", "170140.367000", "170140.370000", "170140.373000", "170140.376000", "170140.379000", "170140.382000", "170220.300000", "170220.309000", "170220.312000", "170220.316000", "170220.318000", "170220.322000", "170220.325000", "170220.328000", "170220.331000", "170220.334000", "170220.337000", "170220.342000", "170220.346000", "170220.350000", "170220.354000", "170220.357000", "170220.360000", "170220.364000", "170220.367000", "170220.370000", "170220.373000", "170220.376000", "170220.379000", "170220.382000", "170220.385000", "170220.388000", "170240.300000", "170240.304000", "170240.307000", "170240.310000", "170240.313000", "170240.316000", "170240.319000", "170240.322000", "170240.325000", "170240.335000", "170240.338000", "170240.341000", "170240.344000", "170240.348000", "170320.300000", "170320.303000", "170320.306000", "170320.310000", "170320.313000", "170320.316000", "170320.319000", "170320.322000", "170320.325000", "170320.328000", "170320.332000", "170320.335000", "170320.338000", "170320.341000", "170320.344000", "170320.347000", "170320.350000", "170320.354000", "170320.357000", "170320.360000", "170320.363000", "170320.366000", "170320.371000", "170320.376000", "170320.379000", "170320.382000", "170400.301000", "170400.304000", "170400.307000", "170400.311000", "170400.314000", "170400.317000", "170400.320000", "170400.324000", "170400.327000", "170400.330000", "170400.333000", "170400.337000", "170400.340000", "170400.343000", "170400.346000", "170400.349000", "170400.352000", "170400.355000", "170400.358000", "170400.361000", "170400.364000", "170400.368000", "170400.371000", "170400.374000", "170400.377000", "170400.380000", "170400.383000", "170440.300000", "170440.303000", "170440.306000", "170440.309000", "170440.312000", "170440.315000", "170440.334000", "170440.338000", "170440.341000", "170440.353000", "170440.356000", "170440.359000", "170440.362000", "170440.365000", "170440.368000", "170440.371000", "170440.374000", "170440.377000", "170440.381000", "170440.384000", "170440.387000", "170440.390000", "170440.393000", "170440.396000", "170440.399000", "170440.402000", "170440.405000", "170512.836000", "170512.839000", "170512.842000", "170512.846000", "170512.849000", "170512.852000", "170512.856000", "170512.859000", "170512.863000", "170512.866000", "170512.870000", "170512.873000", "170512.876000", "170512.880000", "170512.883000", "170512.886000", "170512.889000", "170512.892000", "170512.895000", "170512.899000", "170512.902000", "170512.905000"],
      "InstanceNumber": [1, 2, 3, 4, 5, 6, 7, 8, 9, 10, 11, 12, 13, 14, 15, 16, 17, 18, 19, 20, 21, 22, 23, 24, 25, 26, 27, 28, 29, 30, 31, 32, 33, 34, 35, 36, 37, 38, 39, 40, 41, 42, 43, 44, 45, 46, 47, 48, 49, 50, 51, 52, 53, 54, 55, 56, 57, 58, 59, 60, 61, 62, 63, 64, 65, 66, 67, 68, 69, 70, 71, 72, 73, 74, 75, 76, 77, 78, 79, 80, 81, 82, 83, 84, 85, 86, 87, 88, 89, 90, 91, 92, 93, 94, 95, 96, 97, 98, 99, 100, 101, 102, 103, 104, 105, 106, 107, 108, 109, 110, 111, 112, 113, 114, 115, 116, 117, 118, 119, 120, 121, 122, 123, 124, 125, 126, 127, 128, 129, 130, 131, 132, 133, 134, 135, 136, 137, 138, 139, 140, 141, 142, 143, 144, 145, 146, 147, 148, 149, 150, 151, 152, 153, 154, 155, 156, 157, 158, 159, 160, 161, 162, 163, 164],
      "LargestImagePixelValue": [2465, 2417, 2365, 2357, 2327, 2335, 2340, 2302, 2317, 2343, 2329, 2343, 2333, 2352, 2340, 2327, 2346, 2342, 2321, 2327, 2307, 2332, 2342, 2331, 2344, 2299, 2313, 2310, 2288, 2347, 2332, 2333, 2325, 2319, 2345, 2357, 2336, 2363, 2321, 2341, 2357, 2334, 2316, 2283, 2312, 2364, 2306, 2342, 2312, 2308, 2320, 2331, 2341, 2335, 2303, 2324, 2315, 2335, 2320, 2322, 2316, 2296, 2311, 2336, 2303, 2343, 2311, 2320, 2315, 2293, 2327, 2295, 2312, 2319, 2297, 2318, 2322, 2314, 2349, 2278, 2313, 2313, 2284, 2324, 2285, 2307, 2354, 2292, 2353, 2312, 2351, 2359, 2324, 2314, 2325, 2340, 2339, 2330, 2290, 2332, 2318, 2344, 2353, 2324, 2341, 2350, 2326, 2344, 2344, 2371, 2363, 2332, 2333, 2357, 2339, 2379, 2334, 2354, 2374, 2345, 2331, 2350, 2319, 2371, 2369, 2358, 2390, 2383, 2305, 2378, 2365, 2366, 2398, 2387, 2362, 2380, 2432, 2383, 2243, 2274, 2284, 2258, 2295, 2297, 2281, 2333, 2311, 2332, 2324, 2301, 2336, 2310, 2333, 2351, 2281, 2314, 2305, 2324, 2330, 2312, 2353, 2312, 2301, 2287],
      "WindowCenter": [709.0, 709.0, 709.0, 711.0, 712.0, 712.0, 713.0, 714.0, 714.0, 715.0, 716.0, 716.0, 716.0, 717.0, 717.0, 717.0, 716.0, 716.0, 716.0, 716.0, 715.0, 714.0, 714.0, 714.0, 715.0, 714.0, 715.0, 714.0, 715.0, 714.0, 714.0, 714.0, 714.0, 714.0, 714.0, 714.0, 714.0, 714.0, 714.0, 714.0, 715.0, 715.0, 715.0, 716.0, 716.0, 716.0, 715.0, 715.0, 714.0, 714.0, 714.0, 714.0, 714.0, 714.0, 714.0, 713.0, 713.0, 712.0, 712.0, 713.0, 713.0, 713.0, 714.0, 713.0, 713.0, 713.0, 713.0, 713.0, 713.0, 713.0, 713.0, 713.0, 713.0, 713.0, 713.0, 714.0, 714.0, 715.0, 715.0, 715.0, 714.0, 714.0, 713.0, 713.0, 712.0, 713.0, 715.0, 715.0, 716.0, 714.0, 713.0, 712.0, 712.0, 713.0, 713.0, 713.0, 713.0, 714.0, 714.0, 714.0, 715.0, 715.0, 715.0, 715.0, 714.0, 714.0, 714.0, 714.0, 714.0, 714.0, 714.0, 714.0, 714.0, 714.0, 714.0, 714.0, 714.0, 715.0, 715.0, 714.0, 714.0, 713.0, 713.0, 714.0, 713.0, 713.0, 713.0, 713.0, 712.0, 713.0, 714.0, 714.0, 714.0, 714.0, 714.0, 714.0, 716.0, 716.0, 711.0, 714.0, 713.0, 712.0, 713.0, 713.0, 714.0, 715.0, 714.0, 715.0, 715.0, 715.0, 715.0, 715.0, 715.0, 714.0, 713.0, 713.0, 713.0, 714.0, 715.0, 714.0, 714.0, 714.0, 715.0, 715.0],
      "WindowWidth": [1512.0, 1510.0, 1512.0, 1516.0, 1518.0, 1519.0, 1521.0, 1523.0, 1525.0, 1527.0, 1528.0, 1529.0, 1530.0, 1530.0, 1530.0, 1531.0, 1530.0, 1529.0, 1530.0, 1528.0, 1526.0, 1525.0, 1524.0, 1524.0, 1525.0, 1525.0, 1526.0, 1525.0, 1525.0, 1525.0, 1524.0, 1524.0, 1523.0, 1523.0, 1523.0, 1523.0, 1524.0, 1523.0, 1523.0, 1524.0, 1525.0, 1525.0, 1527.0, 1528.0, 1529.0, 1529.0, 1526.0, 1525.0, 1524.0, 1523.0, 1523.0, 1523.0, 1524.0, 1525.0, 1524.0, 1522.0, 1520.0, 1518.0, 1518.0, 1520.0, 1521.0, 1522.0, 1523.0, 1522.0, 1522.0, 1522.0, 1521.0, 1521.0, 1520.0, 1522.0, 1522.0, 1521.0, 1521.0, 1522.0, 1521.0, 1523.0, 1524.0, 1526.0, 1527.0, 1525.0, 1525.0, 1524.0, 1522.0, 1521.0, 1519.0, 1520.0, 1526.0, 1527.0, 1528.0, 1524.0, 1521.0, 1519.0, 1518.0, 1520.0, 1520.0, 1521.0, 1522.0, 1523.0, 1523.0, 1524.0, 1525.0, 1527.0, 1527.0, 1525.0, 1524.0, 1523.0, 1522.0, 1523.0, 1523.0, 1524.0, 1523.0, 1523.0, 1523.0, 1524.0, 1523.0, 1524.0, 1524.0, 1525.0, 1525.0, 1522.0, 1522.0, 1521.0, 1521.0, 1522.0, 1521.0, 1520.0, 1520.0, 1520.0, 1519.0, 1522.0, 1523.0, 1523.0, 1524.0, 1523.0, 1522.0, 1523.0, 1529.0, 1528.0, 1517.0, 1522.0, 1520.0, 1519.0, 1520.0, 1522.0, 1523.0, 1524.0, 1524.0, 1525.0, 1525.0, 1525.0, 1526.0, 1525.0, 1524.0, 1522.0, 1520.0, 1521.0, 1521.0, 1524.0, 1525.0, 1524.0, 1524.0, 1524.0, 1526.0, 1526.0]
    },
    "slices": {}
  }
}