{
  "AcquisitionMatrixPE": 72,
  "AcquisitionNumber": 1,
  "AcquisitionTime": "14:11:28.557500",
  "BandwidthPerPixelPhaseEncode": 17.943,
  "BaseResolution": 96,
  "BodyPartExamined": "BRAIN",
  "CoilCombinationMethod": "Sum of Squares",
  "ConsistencyInfo": "N4_VE11C_LATEST_20160120",
  "ConversionSoftware": "dcm2niix",
  "ConversionSoftwareVersion": "v1.0.20211006",
  "DerivedVendorReportedEchoSpacing": 0.000552897,
  "DeviceSerialNumber": "166011",
  "EchoTime": 0.03,
  "EchoTrainLength": 58,
  "EffectiveEchoSpacing": 0.000580542,
  "FlipAngle": 62,
  "ImageOrientationPatientDICOM": [0.99721, 0.0256127, 0.0701164, -0.00887652, 0.973316, -0.229297],
  "ImageType": [
    "ORIGINAL",
    "PRIMARY",
    "M",
    "ND",
    "MOSAIC"
],
  "ImagingFrequency": 123.259,
  "InPlanePhaseEncodingDirectionDICOM": "COL",
  "InstitutionAddress": "West 130th Street 610,NY,NYC,US,10025",
  "InstitutionName": "MBBI",
  "MRAcquisitionType": "2D",
  "MagneticFieldStrength": 3,
  "Manufacturer": "Siemens",
  "ManufacturersModelName": "Prisma",
  "Modality": "MR",
  "MultibandAccelerationFactor": 3,
  "PartialFourier": 0.75,
  "PatientPosition": "HFS",
  "PercentPhaseFOV": 100,
  "PercentSampling": 75,
  "PhaseEncodingDirection": "j-",
  "PhaseEncodingSteps": 58,
  "PhaseOversampling": 0.05,
  "PhaseResolution": 0.75,
  "PixelBandwidth": 2265,
  "ProcedureStepDescription": "White^Word_recognition",
  "ProtocolName": "func_vwfate_run3",
  "PulseSequenceDetails": "%SiemensSeq%\\ep2d_bold",
  "ReceiveCoilActiveElements": "HC1-7",
  "ReceiveCoilName": "HeadNeck_64",
  "ReconMatrixPE": 96,
  "RefLinesPE": 40,
  "RepetitionTime": 1.5,
  "SAR": 0.0501957,
  "ScanOptions": "PFP\\FS",
  "ScanningSequence": "EP",
  "SequenceName": "*epfid2d1_72",
  "SequenceVariant": "SK\\OSP",
  "SeriesDescription": "func_vwfate_run3",
  "SeriesNumber": 11,
  "ShimSetting": [-1143, -1321, 650, 400, -69, -65, -66, -8],
  "SliceThickness": 2,
  "SliceTiming": [1.0775, 0, 0.74, 0.0675, 0.8075, 0.135, 0.875, 0.2025, 0.9425, 0.27, 1.01, 0.405, 1.145, 0.4725, 1.2125, 0.54, 1.28, 0.6075, 1.3475, 0.6725, 1.4125, 0.3375, 1.0775, 0, 0.74, 0.0675, 0.8075, 0.135, 0.875, 0.2025, 0.9425, 0.27, 1.01, 0.405, 1.145, 0.4725, 1.2125, 0.54, 1.28, 0.6075, 1.3475, 0.6725, 1.4125, 0.3375, 1.0775, 0, 0.74, 0.0675, 0.8075, 0.135, 0.875, 0.2025, 0.9425, 0.27, 1.01, 0.405, 1.145, 0.4725, 1.2125, 0.54, 1.28, 0.6075, 1.3475, 0.6725, 1.4125, 0.3375],
  "SoftwareVersions": "syngo MR E11",
  "SpacingBetweenSlices": 2,
  "StationName": "AWP166011",
  "TaskName": "vwfate",
  "TotalReadoutTime": 0.0551515,
  "TxRefAmp": 242.786,
  "dcmmeta_affine": [
    [-1.9944199323654175, -0.01775304041802883, 0.14823664724826813, 99.9979476928711],
    [-0.051225364208221436, 1.9466320276260376, -0.4560697376728058, -54.68618392944336],
    [0.14023278653621674, 0.45859402418136597, 1.9416555166244507, -96.10363006591797],
    [0.0, 0.0, 0.0, 1.0]
],
  "dcmmeta_reorient_transform": [
    [0.0, -1.0, 0.0, 95.0],
    [1.0, 0.0, 0.0, 0.0],
    [0.0, 0.0, 1.0, 0.0],
    [0.0, 0.0, 0.0, 1.0]
],
  "dcmmeta_shape": [96, 96, 66, 164],
  "dcmmeta_slice_dim": 2,
  "dcmmeta_version": 0.6,
  "global": {
    "const": {
      "AcquisitionMatrix": [96, 0, 0, 72],
      "AngioFlag": "N",
      "BitsAllocated": 16,
      "BitsStored": 12,
      "BodyPartExamined": "BRAIN",
      "Columns": 864,
      "EchoNumbers": 1,
      "EchoTime": 30.0,
      "EchoTrainLength": 58,
      "FlipAngle": 62.0,
      "HighBit": 11,
      "ImageOrientationPatient": [0.99720994864603, 0.0256126825442, 0.07011639476089, -0.0088765202685, 0.97331602577555, -0.2292970155855],
      "ImagePositionPatient": [-857.35148551672, -897.42111037864, 69.713521541378],
      "ImageType": [
        "ORIGINAL",
        "PRIMARY",
        "M",
        "ND",
        "MOSAIC"
],
      "ImagedNucleus": "1H",
      "ImagingFrequency": 123.259411,
      "InPlanePhaseEncodingDirection": "COL",
      "MRAcquisitionType": "2D",
      "MagneticFieldStrength": 3.0,
      "Manufacturer": "SIEMENS",
      "ManufacturerModelName": "Prisma",
      "Modality": "MR",
      "NumberOfAverages": 1.0,
      "NumberOfPhaseEncodingSteps": 58,
      "PercentPhaseFieldOfView": 100.0,
      "PercentSampling": 75.0,
      "PerformedProcedureStepStartTime": "132525.019000",
      "PhotometricInterpretation": "MONOCHROME2",
      "PixelBandwidth": 2265.0,
      "PixelRepresentation": 0,
      "PixelSpacing": [2.0, 2.0],
      "ProtocolName": "func_vwfate_run3",
      "RepetitionTime": 1500.0,
      "Rows": 864,
      "SAR": 0.05019573612505,
      "SamplesPerPixel": 1,
      "ScanOptions": [
        "PFP",
        "FS"
],
      "ScanningSequence": "EP",
      "SequenceName": "*epfid2d1_72",
      "SequenceVariant": [
        "SK",
        "OSP"
],
      "SeriesDescription": "func_vwfate_run3",
      "SeriesNumber": 11,
      "SeriesTime": "141144.672000",
      "SliceLocation": -73.418034385891,
      "SliceThickness": 2.0,
      "SmallestImagePixelValue": 0,
      "SoftwareVersions": "syngo MR E11",
      "SpacingBetweenSlices": 2.000000003212,
      "SpecificCharacterSet": "ISO_IR 100",
      "StudyID": "1",
      "StudyTime": "132524.946000",
      "TransmitCoilName": "Body",
      "VariableFlipAngleFlag": "N",
      "WindowCenterWidthExplanation": "Algo1",
      "dBdt": 0.0},
    "slices": {}
  },
  "time": {
    "samples": {
      "AcquisitionNumber": [1, 2, 3, 4, 5, 6, 7, 8, 9, 10, 11, 12, 13, 14, 15, 16, 17, 18, 19, 20, 21, 22, 23, 24, 25, 26, 27, 28, 29, 30, 31, 32, 33, 34, 35, 36, 37, 38, 39, 40, 41, 42, 43, 44, 45, 46, 47, 48, 49, 50, 51, 52, 53, 54, 55, 56, 57, 58, 59, 60, 61, 62, 63, 64, 65, 66, 67, 68, 69, 70, 71, 72, 73, 74, 75, 76, 77, 78, 79, 80, 81, 82, 83, 84, 85, 86, 87, 88, 89, 90, 91, 92, 93, 94, 95, 96, 97, 98, 99, 100, 101, 102, 103, 104, 105, 106, 107, 108, 109, 110, 111, 112, 113, 114, 115, 116, 117, 118, 119, 120, 121, 122, 123, 124, 125, 126, 127, 128, 129, 130, 131, 132, 133, 134, 135, 136, 137, 138, 139, 140, 141, 142, 143, 144, 145, 146, 147, 148, 149, 150, 151, 152, 153, 154, 155, 156, 157, 158, 159, 160, 161, 162, 163, 164],
      "AcquisitionTime": ["141128.557500", "141130.057500", "141131.557500", "141133.057500", "141134.557500", "141136.057500", "141137.557500", "141139.057500", "141140.557500", "141142.057500", "141143.557500", "141145.057500", "141146.557500", "141148.057500", "141149.557500", "141151.057500", "141152.557500", "141154.057500", "141155.557500", "141157.057500", "141158.557500", "141200.057500", "141201.557500", "141203.057500", "141204.557500", "141206.057500", "141207.557500", "141209.057500", "141210.557500", "141212.057500", "141213.557500", "141215.057500", "141216.557500", "141218.057500", "141219.557500", "141221.057500", "141222.557500", "141224.057500", "141225.557500", "141227.057500", "141228.557500", "141230.057500", "141231.557500", "141233.057500", "141234.557500", "141236.057500", "141237.557500", "141239.057500", "141240.557500", "141242.057500", "141243.557500", "141245.057500", "141246.557500", "141248.057500", "141249.557500", "141251.057500", "141252.557500", "141254.057500", "141255.557500", "141257.057500", "141258.557500", "141300.057500", "141301.557500", "141303.057500", "141304.557500", "141306.057500", "141307.557500", "141309.057500", "141310.557500", "141312.057500", "141313.557500", "141315.057500", "141316.557500", "141318.057500", "141319.557500", "141321.057500", "141322.557500", "141324.057500", "141325.557500", "141327.057500", "141328.557500", "141330.057500", "141331.557500", "141333.057500", "141334.557500", "141336.057500", "141337.557500", "141339.057500", "141340.557500", "141342.057500", "141343.557500", "141345.057500", "141346.557500", "141348.057500", "141349.557500", "141351.057500", "141352.557500", "141354.057500", "141355.557500", "141357.057500", "141358.557500", "141400.057500", "141401.557500", "141403.057500", "141404.557500", "141406.057500", "141407.557500", "141409.057500", "141410.557500", "141412.057500", "141413.557500", "141415.057500", "141416.557500", "141418.057500", "141419.557500", "141421.057500", "141422.557500", "141424.057500", "141425.557500", "141427.057500", "141428.557500", "141430.057500", "141431.557500", "141433.057500", "141434.557500", "141436.057500", "141437.557500", "141439.057500", "141440.557500", "141442.057500", "141443.557500", "141445.057500", "141446.557500", "141448.057500", "141449.557500", "141451.057500", "141452.557500", "141454.057500", "141455.557500", "141457.057500", "141458.557500", "141500.057500", "141501.557500", "141503.057500", "141504.557500", "141506.057500", "141507.557500", "141509.057500", "141510.557500", "141512.057500", "141513.557500", "141515.057500", "141516.557500", "141518.057500", "141519.557500", "141521.057500", "141522.557500", "141524.057500", "141525.557500", "141527.057500", "141528.557500", "141530.057500", "141531.557500", "141533.057500"],
      "ContentTime": ["141144.676000", "141144.680000", "141144.683000", "141144.695000", "141144.698000", "141144.700000", "141144.703000", "141144.706000", "141144.709000", "141144.712000", "141224.655000", "141224.658000", "141224.662000", "141224.664000", "141224.667000", "141224.670000", "141224.673000", "141224.681000", "141224.684000", "141224.687000", "141224.690000", "141224.693000", "141224.696000", "141224.699000", "141224.702000", "141224.705000", "141224.708000", "141224.711000", "141224.714000", "141224.717000", "141224.720000", "141224.723000", "141224.726000", "141224.729000", "141224.732000", "141224.735000", "141224.738000", "141304.654000", "141304.657000", "141304.660000", "141304.663000", "141304.666000", "141304.676000", "141304.679000", "141304.682000", "141304.685000", "141304.688000", "141304.691000", "141304.694000", "141304.697000", "141304.700000", "141304.703000", "141304.706000", "141304.709000", "141304.712000", "141304.715000", "141304.718000", "141304.721000", "141304.726000", "141304.729000", "141304.732000", "141304.735000", "141304.738000", "141304.741000", "141344.654000", "141344.657000", "141344.660000", "141344.663000", "141344.666000", "141344.669000", "141344.672000", "141344.675000", "141344.678000", "141344.681000", "141344.684000", "141344.687000", "141344.690000", "141344.693000", "141344.696000", "141344.699000", "141344.702000", "141344.705000", "141344.708000", "141344.719000", "141344.722000", "141344.725000", "141344.728000", "141344.731000", "141344.734000", "141344.737000", "141424.655000", "141424.658000", "141424.661000", "141424.664000", "141424.667000", "141424.670000", "141424.673000", "141424.676000", "141424.679000", "141424.682000", "141424.685000", "141424.688000", "141424.691000", "141424.694000", "141424.697000", "141424.700000", "141424.703000", "141424.711000", "141424.714000", "141424.717000", "141424.720000", "141424.723000", "141424.726000", "141424.729000", "141424.732000", "141424.735000", "141424.738000", "141504.654000", "141504.664000", "141504.667000", "141504.670000", "141504.673000", "141504.676000", "141504.679000", "141504.682000", "141504.685000", "141504.688000", "141504.691000", "141504.694000", "141504.697000", "141504.700000", "141504.703000", "141504.706000", "141504.709000", "141504.712000", "141504.715000", "141504.718000", "141504.721000", "141504.724000", "141504.727000", "141504.739000", "141504.742000", "141504.745000", "141504.748000", "141534.617000", "141534.621000", "141534.624000", "141534.627000", "141534.630000", "141534.633000", "141534.636000", "141534.640000", "141534.643000", "141534.646000", "141534.649000", "141534.652000", "141534.655000", "141534.658000", "141534.661000", "141534.664000", "141534.667000", "141534.671000", "141534.674000", "141534.677000"],
      "InstanceCreationTime": ["141144.676000", "141144.680000", "141144.683000", "141144.695000", "141144.698000", "141144.700000", "141144.703000", "141144.706000", "141144.709000", "141144.712000", "141224.655000", "141224.658000", "141224.662000", "141224.664000", "141224.667000", "141224.670000", "141224.673000", "141224.681000", "141224.684000", "141224.687000", "141224.690000", "141224.693000", "141224.696000", "141224.699000", "141224.702000", "141224.705000", "141224.708000", "141224.711000", "141224.714000", "141224.717000", "141224.720000", "141224.723000", "141224.726000", "141224.729000", "141224.732000", "141224.735000", "141224.738000", "141304.654000", "141304.657000", "141304.660000", "141304.663000", "141304.666000", "141304.676000", "141304.679000", "141304.682000", "141304.685000", "141304.688000", "141304.691000", "141304.694000", "141304.697000", "141304.700000", "141304.703000", "141304.706000", "141304.709000", "141304.712000", "141304.715000", "141304.718000", "141304.721000", "141304.726000", "141304.729000", "141304.732000", "141304.735000", "141304.738000", "141304.741000", "141344.654000", "141344.657000", "141344.660000", "141344.663000", "141344.666000", "141344.669000", "141344.672000", "141344.675000", "141344.678000", "141344.681000", "141344.684000", "141344.687000", "141344.690000", "141344.693000", "141344.696000", "141344.699000", "141344.702000", "141344.705000", "141344.708000", "141344.719000", "141344.722000", "141344.725000", "141344.728000", "141344.731000", "141344.734000", "141344.737000", "141424.655000", "141424.658000", "141424.661000", "141424.664000", "141424.667000", "141424.670000", "141424.673000", "141424.676000", "141424.679000", "141424.682000", "141424.685000", "141424.688000", "141424.691000", "141424.694000", "141424.697000", "141424.700000", "141424.703000", "141424.711000", "141424.714000", "141424.717000", "141424.720000", "141424.723000", "141424.726000", "141424.729000", "141424.732000", "141424.735000", "141424.738000", "141504.654000", "141504.664000", "141504.667000", "141504.670000", "141504.673000", "141504.676000", "141504.679000", "141504.682000", "141504.685000", "141504.688000", "141504.691000", "141504.694000", "141504.697000", "141504.700000", "141504.703000", "141504.706000", "141504.709000", "141504.712000", "141504.715000", "141504.718000", "141504.721000", "141504.724000", "141504.727000", "141504.739000", "141504.742000", "141504.745000", "141504.748000", "141534.617000", "141534.621000", "141534.624000", "141534.627000", "141534.630000", "141534.633000", "141534.636000", "141534.640000", "141534.643000", "141534.646000", "141534.649000", "141534.652000", "141534.655000", "141534.658000", "141534.661000", "141534.664000", "141534.667000", "141534.671000", "141534.674000", "141534.677000"],
      "InstanceNumber": [1, 2, 3, 4, 5, 6, 7, 8, 9, 10, 11, 12, 13, 14, 15, 16, 17, 18, 19, 20, 21, 22, 23, 24, 25, 26, 27, 28, 29, 30, 31, 32, 33, 34, 35, 36, 37, 38, 39, 40, 41, 42, 43, 44, 45, 46, 47, 48, 49, 50, 51, 52, 53, 54, 55, 56, 57, 58, 59, 60, 61, 62, 63, 64, 65, 66, 67, 68, 69, 70, 71, 72, 73, 74, 75, 76, 77, 78, 79, 80, 81, 82, 83, 84, 85, 86, 87, 88, 89, 90, 91, 92, 93, 94, 95, 96, 97, 98, 99, 100, 101, 102, 103, 104, 105, 106, 107, 108, 109, 110, 111, 112, 113, 114, 115, 116, 117, 118, 119, 120, 121, 122, 123, 124, 125, 126, 127, 128, 129, 130, 131, 132, 133, 134, 135, 136, 137, 138, 139, 140, 141, 142, 143, 144, 145, 146, 147, 148, 149, 150, 151, 152, 153, 154, 155, 156, 157, 158, 159, 160, 161, 162, 163, 164],
      "LargestImagePixelValue": [3080, 3060, 2974, 2942, 2918, 2935, 2891, 2893, 2877, 2881, 2880, 2886, 2896, 2868, 2841, 2849, 2884, 2872, 2849, 2881, 2870, 2891, 2864, 2885, 2848, 2869, 2858, 2861, 2883, 2866, 2847, 2853, 2847, 2860, 2855, 2875, 2861, 2866, 2862, 2895, 2838, 2871, 2840, 2899, 2830, 2884, 2866, 2875, 2877, 2910, 2883, 2856, 2884, 2896, 2857, 2881, 2864, 2893, 2873, 2868, 2863, 2867, 2851, 2862, 2840, 2841, 2843, 2852, 2849, 2857, 2863, 2853, 2871, 2859, 2862, 2861, 2824, 2849, 2871, 2861, 2874, 2870, 2883, 2896, 2878, 2881, 2858, 2851, 2841, 2841, 2861, 2859, 2883, 2857, 2888, 2850, 2891, 2839, 2863, 2846, 2868, 2847, 2866, 2840, 2870, 2880, 2846, 2844, 2855, 2884, 2842, 2841, 2847, 2882, 2824, 2855, 2810, 2870, 2855, 2832, 2884, 2860, 2882, 2881, 2885, 2904, 2892, 2933, 2732, 2792, 2788, 2817, 2774, 2780, 2802, 2837, 2858, 2853, 2872, 2833, 2885, 2847, 2875, 2843, 2880, 2867, 2858, 2849, 2677, 2839, 2869, 2833, 2853, 2812, 2851, 2856, 2883, 2863, 2860, 2830, 2856, 2803, 2880, 2810],
      "WindowCenter": [767.0, 767.0, 765.0, 766.0, 767.0, 768.0, 767.0, 768.0, 768.0, 768.0, 767.0, 766.0, 766.0, 766.0, 766.0, 767.0, 767.0, 767.0, 766.0, 766.0, 766.0, 767.0, 768.0, 769.0, 768.0, 767.0, 766.0, 766.0, 767.0, 767.0, 767.0, 767.0, 765.0, 764.0, 765.0, 766.0, 766.0, 767.0, 767.0, 766.0, 767.0, 767.0, 768.0, 768.0, 768.0, 768.0, 768.0, 768.0, 768.0, 769.0, 769.0, 768.0, 769.0, 768.0, 768.0, 767.0, 767.0, 767.0, 768.0, 768.0, 768.0, 768.0, 768.0, 769.0, 769.0, 767.0, 767.0, 767.0, 766.0, 766.0, 767.0, 767.0, 767.0, 766.0, 766.0, 767.0, 767.0, 767.0, 768.0, 767.0, 767.0, 766.0, 766.0, 766.0, 767.0, 767.0, 768.0, 768.0, 767.0, 767.0, 766.0, 766.0, 766.0, 767.0, 767.0, 768.0, 767.0, 767.0, 767.0, 767.0, 768.0, 768.0, 767.0, 766.0, 766.0, 766.0, 766.0, 766.0, 767.0, 767.0, 767.0, 766.0, 766.0, 766.0, 767.0, 766.0, 767.0, 766.0, 766.0, 766.0, 766.0, 766.0, 766.0, 765.0, 767.0, 767.0, 768.0, 767.0, 768.0, 768.0, 766.0, 765.0, 764.0, 764.0, 764.0, 765.0, 766.0, 766.0, 765.0, 765.0, 765.0, 765.0, 766.0, 766.0, 766.0, 767.0, 767.0, 768.0, 766.0, 767.0, 767.0, 766.0, 766.0, 765.0, 765.0, 765.0, 765.0, 765.0, 767.0, 767.0, 767.0, 766.0, 767.0, 767.0],
      "WindowWidth": [1641.0, 1639.0, 1636.0, 1638.0, 1640.0, 1642.0, 1641.0, 1642.0, 1642.0, 1641.0, 1639.0, 1637.0, 1636.0, 1638.0, 1638.0, 1641.0, 1640.0, 1638.0, 1636.0, 1636.0, 1637.0, 1640.0, 1642.0, 1644.0, 1642.0, 1640.0, 1638.0, 1637.0, 1639.0, 1640.0, 1640.0, 1639.0, 1634.0, 1633.0, 1635.0, 1637.0, 1638.0, 1639.0, 1638.0, 1638.0, 1638.0, 1640.0, 1643.0, 1642.0, 1643.0, 1642.0, 1642.0, 1642.0, 1643.0, 1644.0, 1644.0, 1642.0, 1644.0, 1643.0, 1641.0, 1640.0, 1640.0, 1641.0, 1642.0, 1641.0, 1642.0, 1641.0, 1643.0, 1644.0, 1644.0, 1641.0, 1641.0, 1639.0, 1637.0, 1638.0, 1639.0, 1639.0, 1640.0, 1638.0, 1638.0, 1640.0, 1640.0, 1640.0, 1641.0, 1639.0, 1640.0, 1638.0, 1637.0, 1637.0, 1639.0, 1641.0, 1643.0, 1642.0, 1641.0, 1639.0, 1638.0, 1636.0, 1638.0, 1639.0, 1640.0, 1641.0, 1640.0, 1639.0, 1639.0, 1641.0, 1642.0, 1642.0, 1639.0, 1638.0, 1638.0, 1637.0, 1636.0, 1636.0, 1639.0, 1639.0, 1640.0, 1638.0, 1638.0, 1638.0, 1638.0, 1638.0, 1639.0, 1638.0, 1638.0, 1638.0, 1637.0, 1636.0, 1636.0, 1635.0, 1639.0, 1641.0, 1641.0, 1640.0, 1641.0, 1640.0, 1636.0, 1635.0, 1631.0, 1631.0, 1632.0, 1634.0, 1635.0, 1636.0, 1634.0, 1633.0, 1634.0, 1634.0, 1636.0, 1636.0, 1637.0, 1640.0, 1641.0, 1642.0, 1635.0, 1638.0, 1638.0, 1636.0, 1635.0, 1633.0, 1633.0, 1633.0, 1633.0, 1635.0, 1638.0, 1638.0, 1639.0, 1637.0, 1639.0, 1637.0]
    },
    "slices": {}
  }
}