{
  "AcquisitionMatrixPE": 72,
  "AcquisitionNumber": 1,
  "AcquisitionTime": "14:30:31.977500",
  "BandwidthPerPixelPhaseEncode": 17.943,
  "BaseResolution": 96,
  "BodyPartExamined": "BRAIN",
  "CoilCombinationMethod": "Sum of Squares",
  "ConsistencyInfo": "N4_VE11C_LATEST_20160120",
  "ConversionSoftware": "dcm2niix",
  "ConversionSoftwareVersion": "v1.0.20211006",
  "DerivedVendorReportedEchoSpacing": 0.000552897,
  "DeviceSerialNumber": "166011",
  "EchoTime": 0.03,
  "EchoTrainLength": 58,
  "EffectiveEchoSpacing": 0.000580542,
  "FlipAngle": 62,
  "ImageOrientationPatientDICOM": [0.99721, 0.0256127, 0.0701164, -0.00887652, 0.973316, -0.229297],
  "ImageType": [
    "ORIGINAL",
    "PRIMARY",
    "M",
    "ND",
    "MOSAIC"
],
  "ImagingFrequency": 123.259,
  "InPlanePhaseEncodingDirectionDICOM": "COL",
  "InstitutionAddress": "West 130th Street 610,NY,NYC,US,10025",
  "InstitutionName": "MBBI",
  "MRAcquisitionType": "2D",
  "MagneticFieldStrength": 3,
  "Manufacturer": "Siemens",
  "ManufacturersModelName": "Prisma",
  "Modality": "MR",
  "MultibandAccelerationFactor": 3,
  "PartialFourier": 0.75,
  "PatientPosition": "HFS",
  "PercentPhaseFOV": 100,
  "PercentSampling": 75,
  "PhaseEncodingDirection": "j-",
  "PhaseEncodingSteps": 58,
  "PhaseOversampling": 0.05,
  "PhaseResolution": 0.75,
  "PixelBandwidth": 2265,
  "ProcedureStepDescription": "White^Word_recognition",
  "ProtocolName": "func_vwfate_run5",
  "PulseSequenceDetails": "%SiemensSeq%\\ep2d_bold",
  "ReceiveCoilActiveElements": "HC1-7",
  "ReceiveCoilName": "HeadNeck_64",
  "ReconMatrixPE": 96,
  "RefLinesPE": 40,
  "RepetitionTime": 1.5,
  "SAR": 0.0501957,
  "ScanOptions": "PFP\\FS",
  "ScanningSequence": "EP",
  "SequenceName": "*epfid2d1_72",
  "SequenceVariant": "SK\\OSP",
  "SeriesDescription": "func_vwfate_run5",
  "SeriesNumber": 14,
  "ShimSetting": [-1143, -1321, 650, 400, -69, -65, -66, -8],
  "SliceThickness": 2,
  "SliceTiming": [1.0775, 0, 0.74, 0.0675, 0.8075, 0.135, 0.875, 0.2025, 0.9425, 0.27, 1.01, 0.405, 1.145, 0.4725, 1.2125, 0.54, 1.28, 0.605, 1.345, 0.6725, 1.4125, 0.3375, 1.0775, 0, 0.74, 0.0675, 0.8075, 0.135, 0.875, 0.2025, 0.9425, 0.27, 1.01, 0.405, 1.145, 0.4725, 1.2125, 0.54, 1.28, 0.605, 1.345, 0.6725, 1.4125, 0.3375, 1.0775, 0, 0.74, 0.0675, 0.8075, 0.135, 0.875, 0.2025, 0.9425, 0.27, 1.01, 0.405, 1.145, 0.4725, 1.2125, 0.54, 1.28, 0.605, 1.345, 0.6725, 1.4125, 0.3375],
  "SoftwareVersions": "syngo MR E11",
  "SpacingBetweenSlices": 2,
  "StationName": "AWP166011",
  "TaskName": "vwfate",
  "TotalReadoutTime": 0.0551515,
  "TxRefAmp": 242.786,
  "dcmmeta_affine": [
    [-1.9944199323654175, -0.01775304041802883, 0.14823664724826813, 99.9979476928711],
    [-0.051225364208221436, 1.9466320276260376, -0.4560697376728058, -54.68618392944336],
    [0.14023278653621674, 0.45859402418136597, 1.9416555166244507, -96.10363006591797],
    [0.0, 0.0, 0.0, 1.0]
],
  "dcmmeta_reorient_transform": [
    [0.0, -1.0, 0.0, 95.0],
    [1.0, 0.0, 0.0, 0.0],
    [0.0, 0.0, 1.0, 0.0],
    [0.0, 0.0, 0.0, 1.0]
],
  "dcmmeta_shape": [96, 96, 66, 164],
  "dcmmeta_slice_dim": 2,
  "dcmmeta_version": 0.6,
  "global": {
    "const": {
      "AcquisitionMatrix": [96, 0, 0, 72],
      "AngioFlag": "N",
      "BitsAllocated": 16,
      "BitsStored": 12,
      "BodyPartExamined": "BRAIN",
      "Columns": 864,
      "EchoNumbers": 1,
      "EchoTime": 30.0,
      "EchoTrainLength": 58,
      "FlipAngle": 62.0,
      "HighBit": 11,
      "ImageOrientationPatient": [0.99720994864603, 0.0256126825442, 0.07011639476089, -0.0088765202685, 0.97331602577555, -0.2292970155855],
      "ImagePositionPatient": [-857.35148551672, -897.42111037864, 69.713521541378],
      "ImageType": [
        "ORIGINAL",
        "PRIMARY",
        "M",
        "ND",
        "MOSAIC"
],
      "ImagedNucleus": "1H",
      "ImagingFrequency": 123.259423,
      "InPlanePhaseEncodingDirection": "COL",
      "MRAcquisitionType": "2D",
      "MagneticFieldStrength": 3.0,
      "Manufacturer": "SIEMENS",
      "ManufacturerModelName": "Prisma",
      "Modality": "MR",
      "NumberOfAverages": 1.0,
      "NumberOfPhaseEncodingSteps": 58,
      "PercentPhaseFieldOfView": 100.0,
      "PercentSampling": 75.0,
      "PerformedProcedureStepStartTime": "132525.019000",
      "PhotometricInterpretation": "MONOCHROME2",
      "PixelBandwidth": 2265.0,
      "PixelRepresentation": 0,
      "PixelSpacing": [2.0, 2.0],
      "ProtocolName": "func_vwfate_run5",
      "RepetitionTime": 1500.0,
      "Rows": 864,
      "SAR": 0.05019573612505,
      "SamplesPerPixel": 1,
      "ScanOptions": [
        "PFP",
        "FS"
],
      "ScanningSequence": "EP",
      "SequenceName": "*epfid2d1_72",
      "SequenceVariant": [
        "SK",
        "OSP"
],
      "SeriesDescription": "func_vwfate_run5",
      "SeriesNumber": 14,
      "SeriesTime": "143104.656000",
      "SliceLocation": -73.418034385891,
      "SliceThickness": 2.0,
      "SmallestImagePixelValue": 0,
      "SoftwareVersions": "syngo MR E11",
      "SpacingBetweenSlices": 2.000000003212,
      "SpecificCharacterSet": "ISO_IR 100",
      "StudyID": "1",
      "StudyTime": "132524.946000",
      "TransmitCoilName": "Body",
      "VariableFlipAngleFlag": "N",
      "WindowCenterWidthExplanation": "Algo1",
      "dBdt": 0.0},
    "slices": {}
  },
  "time": {
    "samples": {
      "AcquisitionNumber": [1, 2, 3, 4, 5, 6, 7, 8, 9, 10, 11, 12, 13, 14, 15, 16, 17, 18, 19, 20, 21, 22, 23, 24, 25, 26, 27, 28, 29, 30, 31, 32, 33, 34, 35, 36, 37, 38, 39, 40, 41, 42, 43, 44, 45, 46, 47, 48, 49, 50, 51, 52, 53, 54, 55, 56, 57, 58, 59, 60, 61, 62, 63, 64, 65, 66, 67, 68, 69, 70, 71, 72, 73, 74, 75, 76, 77, 78, 79, 80, 81, 82, 83, 84, 85, 86, 87, 88, 89, 90, 91, 92, 93, 94, 95, 96, 97, 98, 99, 100, 101, 102, 103, 104, 105, 106, 107, 108, 109, 110, 111, 112, 113, 114, 115, 116, 117, 118, 119, 120, 121, 122, 123, 124, 125, 126, 127, 128, 129, 130, 131, 132, 133, 134, 135, 136, 137, 138, 139, 140, 141, 142, 143, 144, 145, 146, 147, 148, 149, 150, 151, 152, 153, 154, 155, 156, 157, 158, 159, 160, 161, 162, 163, 164],
      "AcquisitionTime": ["143031.977500", "143033.477500", "143034.977500", "143036.477500", "143037.977500", "143039.477500", "143040.977500", "143042.477500", "143043.977500", "143045.477500", "143046.977500", "143048.477500", "143049.977500", "143051.477500", "143052.977500", "143054.477500", "143055.977500", "143057.477500", "143058.977500", "143100.477500", "143101.977500", "143103.477500", "143104.977500", "143106.477500", "143107.977500", "143109.477500", "143110.977500", "143112.477500", "143113.977500", "143115.477500", "143116.977500", "143118.477500", "143119.977500", "143121.477500", "143122.977500", "143124.477500", "143125.977500", "143127.477500", "143128.977500", "143130.477500", "143131.977500", "143133.477500", "143134.977500", "143136.477500", "143137.977500", "143139.477500", "143140.977500", "143142.477500", "143143.977500", "143145.477500", "143146.977500", "143148.477500", "143149.977500", "143151.477500", "143152.977500", "143154.477500", "143155.977500", "143157.477500", "143158.977500", "143200.477500", "143201.977500", "143203.477500", "143204.977500", "143206.477500", "143207.977500", "143209.477500", "143210.977500", "143212.477500", "143213.977500", "143215.477500", "143216.977500", "143218.477500", "143219.977500", "143221.477500", "143222.977500", "143224.477500", "143225.977500", "143227.477500", "143228.977500", "143230.477500", "143231.977500", "143233.477500", "143234.977500", "143236.477500", "143237.977500", "143239.477500", "143240.977500", "143242.477500", "143243.977500", "143245.477500", "143246.977500", "143248.477500", "143249.977500", "143251.477500", "143252.977500", "143254.477500", "143255.977500", "143257.477500", "143258.977500", "143300.477500", "143301.977500", "143303.477500", "143304.977500", "143306.477500", "143307.977500", "143309.477500", "143310.977500", "143312.477500", "143313.977500", "143315.477500", "143316.977500", "143318.477500", "143319.977500", "143321.477500", "143322.977500", "143324.477500", "143325.977500", "143327.477500", "143328.977500", "143330.477500", "143331.977500", "143333.477500", "143334.977500", "143336.477500", "143337.977500", "143339.477500", "143340.977500", "143342.477500", "143343.977500", "143345.477500", "143346.977500", "143348.477500", "143349.977500", "143351.477500", "143352.977500", "143354.477500", "143355.977500", "143357.477500", "143358.977500", "143400.477500", "143401.977500", "143403.477500", "143404.977500", "143406.477500", "143407.977500", "143409.477500", "143410.977500", "143412.477500", "143413.977500", "143415.477500", "143416.977500", "143418.477500", "143419.977500", "143421.477500", "143422.977500", "143424.477500", "143425.977500", "143427.477500", "143428.977500", "143430.477500", "143431.977500", "143433.477500", "143434.977500", "143436.477500"],
      "ContentTime": ["143104.660000", "143104.670000", "143104.673000", "143104.676000", "143104.680000", "143104.683000", "143104.686000", "143104.689000", "143104.692000", "143104.694000", "143104.698000", "143104.701000", "143104.704000", "143104.713000", "143104.716000", "143104.719000", "143104.722000", "143104.725000", "143104.728000", "143104.731000", "143104.733000", "143104.736000", "143144.654000", "143144.658000", "143144.661000", "143144.664000", "143144.667000", "143144.675000", "143144.678000", "143144.681000", "143144.684000", "143144.687000", "143144.690000", "143144.693000", "143144.696000", "143144.699000", "143144.709000", "143144.712000", "143144.714000", "143144.717000", "143144.721000", "143144.724000", "143144.726000", "143144.729000", "143144.732000", "143144.735000", "143144.738000", "143144.741000", "143224.655000", "143224.658000", "143224.661000", "143224.664000", "143224.667000", "143224.670000", "143224.673000", "143224.676000", "143224.679000", "143224.682000", "143224.685000", "143224.688000", "143224.691000", "143224.694000", "143224.697000", "143224.700000", "143224.703000", "143224.706000", "143224.709000", "143224.724000", "143224.727000", "143224.730000", "143224.733000", "143224.736000", "143224.739000", "143224.742000", "143224.745000", "143304.655000", "143304.659000", "143304.662000", "143304.665000", "143304.667000", "143304.671000", "143304.674000", "143304.676000", "143304.679000", "143304.683000", "143304.685000", "143304.688000", "143304.691000", "143304.694000", "143304.697000", "143304.700000", "143304.703000", "143304.706000", "143304.709000", "143304.712000", "143304.715000", "143304.718000", "143304.721000", "143304.724000", "143304.727000", "143304.731000", "143344.654000", "143344.657000", "143344.660000", "143344.663000", "143344.666000", "143344.669000", "143344.672000", "143344.675000", "143344.678000", "143344.681000", "143344.684000", "143344.687000", "143344.690000", "143344.693000", "143344.696000", "143344.699000", "143344.702000", "143344.705000", "143344.715000", "143344.718000", "143344.721000", "143344.724000", "143344.727000", "143344.730000", "143344.733000", "143344.736000", "143344.739000", "143424.654000", "143424.657000", "143424.660000", "143424.663000", "143424.666000", "143424.669000", "143424.672000", "143424.675000", "143424.678000", "143424.681000", "143424.684000", "143424.687000", "143424.690000", "143424.693000", "143424.696000", "143424.699000", "143424.702000", "143424.705000", "143424.708000", "143424.711000", "143424.714000", "143424.733000", "143424.736000", "143424.739000", "143424.742000", "143424.745000", "143424.748000", "143437.623000", "143437.627000", "143437.630000", "143437.633000", "143437.636000", "143437.639000", "143437.643000", "143437.646000", "143437.649000"],
      "InstanceCreationTime": ["143104.660000", "143104.670000", "143104.673000", "143104.676000", "143104.680000", "143104.683000", "143104.686000", "143104.689000", "143104.692000", "143104.694000", "143104.698000", "143104.701000", "143104.704000", "143104.713000", "143104.716000", "143104.719000", "143104.722000", "143104.725000", "143104.728000", "143104.731000", "143104.733000", "143104.736000", "143144.654000", "143144.658000", "143144.661000", "143144.664000", "143144.667000", "143144.675000", "143144.678000", "143144.681000", "143144.684000", "143144.687000", "143144.690000", "143144.693000", "143144.696000", "143144.699000", "143144.709000", "143144.712000", "143144.714000", "143144.717000", "143144.721000", "143144.724000", "143144.726000", "143144.729000", "143144.732000", "143144.735000", "143144.738000", "143144.741000", "143224.655000", "143224.658000", "143224.661000", "143224.664000", "143224.667000", "143224.670000", "143224.673000", "143224.676000", "143224.679000", "143224.682000", "143224.685000", "143224.688000", "143224.691000", "143224.694000", "143224.697000", "143224.700000", "143224.703000", "143224.706000", "143224.709000", "143224.724000", "143224.727000", "143224.730000", "143224.733000", "143224.736000", "143224.739000", "143224.742000", "143224.745000", "143304.655000", "143304.659000", "143304.662000", "143304.665000", "143304.667000", "143304.671000", "143304.674000", "143304.676000", "143304.679000", "143304.683000", "143304.685000", "143304.688000", "143304.691000", "143304.694000", "143304.697000", "143304.700000", "143304.703000", "143304.706000", "143304.709000", "143304.712000", "143304.715000", "143304.718000", "143304.721000", "143304.724000", "143304.727000", "143304.731000", "143344.654000", "143344.657000", "143344.660000", "143344.663000", "143344.666000", "143344.669000", "143344.672000", "143344.675000", "143344.678000", "143344.681000", "143344.684000", "143344.687000", "143344.690000", "143344.693000", "143344.696000", "143344.699000", "143344.702000", "143344.705000", "143344.715000", "143344.718000", "143344.721000", "143344.724000", "143344.727000", "143344.730000", "143344.733000", "143344.736000", "143344.739000", "143424.654000", "143424.657000", "143424.660000", "143424.663000", "143424.666000", "143424.669000", "143424.672000", "143424.675000", "143424.678000", "143424.681000", "143424.684000", "143424.687000", "143424.690000", "143424.693000", "143424.696000", "143424.699000", "143424.702000", "143424.705000", "143424.708000", "143424.711000", "143424.714000", "143424.733000", "143424.736000", "143424.739000", "143424.742000", "143424.745000", "143424.748000", "143437.623000", "143437.627000", "143437.630000", "143437.633000", "143437.636000", "143437.639000", "143437.643000", "143437.646000", "143437.649000"],
      "InstanceNumber": [1, 2, 3, 4, 5, 6, 7, 8, 9, 10, 11, 12, 13, 14, 15, 16, 17, 18, 19, 20, 21, 22, 23, 24, 25, 26, 27, 28, 29, 30, 31, 32, 33, 34, 35, 36, 37, 38, 39, 40, 41, 42, 43, 44, 45, 46, 47, 48, 49, 50, 51, 52, 53, 54, 55, 56, 57, 58, 59, 60, 61, 62, 63, 64, 65, 66, 67, 68, 69, 70, 71, 72, 73, 74, 75, 76, 77, 78, 79, 80, 81, 82, 83, 84, 85, 86, 87, 88, 89, 90, 91, 92, 93, 94, 95, 96, 97, 98, 99, 100, 101, 102, 103, 104, 105, 106, 107, 108, 109, 110, 111, 112, 113, 114, 115, 116, 117, 118, 119, 120, 121, 122, 123, 124, 125, 126, 127, 128, 129, 130, 131, 132, 133, 134, 135, 136, 137, 138, 139, 140, 141, 142, 143, 144, 145, 146, 147, 148, 149, 150, 151, 152, 153, 154, 155, 156, 157, 158, 159, 160, 161, 162, 163, 164],
      "LargestImagePixelValue": [2822, 2758, 2711, 2756, 2703, 2742, 2710, 2719, 2729, 2722, 2682, 2707, 2684, 2723, 2731, 2721, 2748, 2732, 2747, 2696, 2714, 2696, 2732, 2726, 2701, 2726, 2716, 2706, 2674, 2714, 2691, 2731, 2705, 2738, 2720, 2741, 2715, 2707, 2706, 2688, 2654, 2705, 2648, 2712, 2741, 2743, 2701, 2681, 2731, 2692, 2746, 2704, 2720, 2696, 2708, 2725, 2704, 2737, 2700, 2726, 2763, 2734, 2763, 2734, 2726, 2678, 2715, 2737, 2714, 2766, 2753, 2727, 2745, 2747, 2707, 2733, 2724, 2741, 2713, 2754, 2761, 2740, 2761, 2776, 2759, 2771, 2742, 2756, 2741, 2705, 2727, 2750, 2748, 2742, 2712, 2740, 2751, 2751, 2742, 2707, 2721, 2698, 2693, 2690, 2714, 2688, 2710, 2698, 2684, 2678, 2657, 2675, 2701, 2685, 2698, 2670, 2716, 2720, 2718, 2693, 2710, 2696, 2691, 2666, 2685, 2717, 2678, 2698, 2686, 2698, 2681, 2696, 2697, 2711, 2666, 2676, 2704, 2684, 2713, 2687, 2709, 2711, 2720, 2683, 2685, 2677, 2695, 2686, 2707, 2728, 2658, 2733, 2688, 2741, 2714, 2747, 2695, 2741, 2716, 2725, 2722, 2724, 2679, 2742],
      "WindowCenter": [751.0, 750.0, 748.0, 750.0, 750.0, 751.0, 751.0, 751.0, 752.0, 751.0, 750.0, 749.0, 748.0, 748.0, 749.0, 750.0, 752.0, 752.0, 751.0, 750.0, 750.0, 750.0, 751.0, 751.0, 750.0, 750.0, 751.0, 751.0, 751.0, 752.0, 751.0, 752.0, 751.0, 753.0, 753.0, 753.0, 752.0, 749.0, 751.0, 752.0, 752.0, 752.0, 751.0, 751.0, 752.0, 752.0, 752.0, 753.0, 753.0, 752.0, 752.0, 752.0, 752.0, 752.0, 750.0, 750.0, 749.0, 750.0, 750.0, 752.0, 752.0, 752.0, 752.0, 752.0, 752.0, 753.0, 753.0, 753.0, 753.0, 753.0, 753.0, 752.0, 752.0, 751.0, 752.0, 753.0, 754.0, 755.0, 754.0, 754.0, 753.0, 753.0, 752.0, 754.0, 753.0, 754.0, 753.0, 753.0, 752.0, 752.0, 752.0, 754.0, 753.0, 752.0, 752.0, 751.0, 752.0, 752.0, 752.0, 752.0, 752.0, 752.0, 752.0, 751.0, 751.0, 750.0, 751.0, 751.0, 751.0, 752.0, 751.0, 751.0, 750.0, 751.0, 752.0, 752.0, 752.0, 752.0, 752.0, 751.0, 751.0, 750.0, 750.0, 750.0, 751.0, 751.0, 750.0, 751.0, 750.0, 750.0, 750.0, 751.0, 751.0, 752.0, 751.0, 750.0, 750.0, 750.0, 751.0, 751.0, 751.0, 752.0, 752.0, 752.0, 752.0, 752.0, 752.0, 753.0, 753.0, 752.0, 751.0, 751.0, 750.0, 750.0, 750.0, 751.0, 752.0, 752.0, 751.0, 750.0, 749.0, 750.0, 750.0, 751.0],
      "WindowWidth": [1602.0, 1597.0, 1594.0, 1597.0, 1599.0, 1602.0, 1601.0, 1601.0, 1602.0, 1601.0, 1598.0, 1595.0, 1593.0, 1592.0, 1594.0, 1598.0, 1602.0, 1602.0, 1601.0, 1599.0, 1598.0, 1597.0, 1599.0, 1599.0, 1598.0, 1598.0, 1599.0, 1601.0, 1601.0, 1602.0, 1601.0, 1602.0, 1601.0, 1605.0, 1606.0, 1605.0, 1602.0, 1596.0, 1600.0, 1602.0, 1602.0, 1602.0, 1600.0, 1600.0, 1602.0, 1603.0, 1603.0, 1604.0, 1606.0, 1602.0, 1602.0, 1602.0, 1602.0, 1601.0, 1599.0, 1597.0, 1596.0, 1598.0, 1598.0, 1602.0, 1604.0, 1603.0, 1602.0, 1602.0, 1603.0, 1606.0, 1606.0, 1606.0, 1604.0, 1604.0, 1604.0, 1602.0, 1602.0, 1601.0, 1602.0, 1605.0, 1609.0, 1610.0, 1609.0, 1608.0, 1605.0, 1604.0, 1604.0, 1607.0, 1607.0, 1608.0, 1606.0, 1604.0, 1603.0, 1602.0, 1604.0, 1607.0, 1606.0, 1604.0, 1602.0, 1601.0, 1602.0, 1602.0, 1603.0, 1602.0, 1604.0, 1603.0, 1602.0, 1600.0, 1600.0, 1598.0, 1599.0, 1600.0, 1601.0, 1602.0, 1600.0, 1600.0, 1599.0, 1599.0, 1602.0, 1604.0, 1604.0, 1603.0, 1602.0, 1601.0, 1600.0, 1599.0, 1599.0, 1599.0, 1600.0, 1600.0, 1598.0, 1599.0, 1597.0, 1598.0, 1598.0, 1600.0, 1601.0, 1602.0, 1599.0, 1599.0, 1598.0, 1598.0, 1599.0, 1599.0, 1601.0, 1603.0, 1604.0, 1603.0, 1603.0, 1602.0, 1603.0, 1604.0, 1605.0, 1603.0, 1599.0, 1599.0, 1596.0, 1597.0, 1597.0, 1601.0, 1601.0, 1602.0, 1599.0, 1597.0, 1596.0, 1597.0, 1597.0, 1600.0]
    },
    "slices": {}
  }
}