{
  "AcquisitionMatrixPE": 72,
  "AcquisitionNumber": 1,
  "AcquisitionTime": "18:24:6.695000",
  "BandwidthPerPixelPhaseEncode": 17.943,
  "BaseResolution": 96,
  "BodyPartExamined": "BRAIN",
  "CoilCombinationMethod": "Sum of Squares",
  "ConsistencyInfo": "N4_VE11C_LATEST_20160120",
  "ConversionSoftware": "dcm2niix",
  "ConversionSoftwareVersion": "v1.0.20211006",
  "DerivedVendorReportedEchoSpacing": 0.000552897,
  "DeviceSerialNumber": "166011",
  "EchoTime": 0.03,
  "EchoTrainLength": 58,
  "EffectiveEchoSpacing": 0.000580542,
  "FlipAngle": 62,
  "ImageOrientationPatientDICOM": [0.999216, 0.00455664, 0.0393366, 0.00122078, 0.989341, -0.145612],
  "ImageType": [
    "ORIGINAL",
    "PRIMARY",
    "M",
    "ND",
    "MOSAIC"
],
  "ImagingFrequency": 123.26,
  "InPlanePhaseEncodingDirectionDICOM": "COL",
  "InstitutionAddress": "West 130th Street 610,NY,NYC,US,10025",
  "InstitutionName": "MBBI",
  "MRAcquisitionType": "2D",
  "MagneticFieldStrength": 3,
  "Manufacturer": "Siemens",
  "ManufacturersModelName": "Prisma",
  "Modality": "MR",
  "MultibandAccelerationFactor": 3,
  "PartialFourier": 0.75,
  "PatientPosition": "HFS",
  "PercentPhaseFOV": 100,
  "PercentSampling": 75,
  "PhaseEncodingDirection": "j-",
  "PhaseEncodingSteps": 58,
  "PhaseOversampling": 0.05,
  "PhaseResolution": 0.75,
  "PixelBandwidth": 2265,
  "ProcedureStepDescription": "White^Word_recognition",
  "ProtocolName": "func_vwfate_run3",
  "PulseSequenceDetails": "%SiemensSeq%\\ep2d_bold",
  "ReceiveCoilActiveElements": "HC1-7",
  "ReceiveCoilName": "HeadNeck_64",
  "ReconMatrixPE": 96,
  "RefLinesPE": 40,
  "RepetitionTime": 1.5,
  "SAR": 0.0572132,
  "ScanOptions": "PFP\\FS",
  "ScanningSequence": "EP",
  "SequenceName": "*epfid2d1_72",
  "SequenceVariant": "SK\\OSP",
  "SeriesDescription": "func_vwfate_run3",
  "SeriesNumber": 11,
  "ShimSetting": [-1127, -1349, 699, 524, -140, 46, 6, 28],
  "SliceThickness": 2,
  "SliceTiming": [1.0775, 0, 0.74, 0.0675, 0.8075, 0.135, 0.875, 0.2025, 0.9425, 0.27, 1.01, 0.405, 1.145, 0.4725, 1.2125, 0.5375, 1.2775, 0.605, 1.345, 0.6725, 1.4125, 0.3375, 1.0775, 0, 0.74, 0.0675, 0.8075, 0.135, 0.875, 0.2025, 0.9425, 0.27, 1.01, 0.405, 1.145, 0.4725, 1.2125, 0.5375, 1.2775, 0.605, 1.345, 0.6725, 1.4125, 0.3375, 1.0775, 0, 0.74, 0.0675, 0.8075, 0.135, 0.875, 0.2025, 0.9425, 0.27, 1.01, 0.405, 1.145, 0.4725, 1.2125, 0.5375, 1.2775, 0.605, 1.345, 0.6725, 1.4125, 0.3375],
  "SoftwareVersions": "syngo MR E11",
  "SpacingBetweenSlices": 2,
  "StationName": "AWP166011",
  "TaskName": "vwfate",
  "TotalReadoutTime": 0.0551515,
  "TxRefAmp": 245.155,
  "dcmmeta_affine": [
    [-1.9984312057495117, 0.002441560151055455, 0.07916167378425598, 92.8245620727539],
    [-0.009113289415836334, 1.9786819219589233, -0.29109227657318115, -66.77652740478516],
    [0.07867325097322464, 0.2912246584892273, 1.977118730545044, -77.42840576171875],
    [0.0, 0.0, 0.0, 1.0]
],
  "dcmmeta_reorient_transform": [
    [0.0, -1.0, 0.0, 95.0],
    [1.0, 0.0, 0.0, 0.0],
    [0.0, 0.0, 1.0, 0.0],
    [0.0, 0.0, 0.0, 1.0]
],
  "dcmmeta_shape": [96, 96, 66, 164],
  "dcmmeta_slice_dim": 2,
  "dcmmeta_version": 0.6,
  "global": {
    "const": {
      "AcquisitionMatrix": [96, 0, 0, 72],
      "AngioFlag": "N",
      "BitsAllocated": 16,
      "BitsStored": 12,
      "BodyPartExamined": "BRAIN",
      "Columns": 864,
      "EchoNumbers": 1,
      "EchoTime": 30.0,
      "EchoTrainLength": 58,
      "FlipAngle": 62.0,
      "HighBit": 11,
      "ImageOrientationPatient": [0.99921562580748, 0.00455664481858, 0.03933662581061, 0.00122078006952, 0.98934097136203, -0.1456123349186],
      "ImagePositionPatient": [-861.39166854453, -884.51162470011, 31.857681724495],
      "ImageType": [
        "ORIGINAL",
        "PRIMARY",
        "M",
        "ND",
        "MOSAIC"
],
      "ImagedNucleus": "1H",
      "ImagingFrequency": 123.259503,
      "InPlanePhaseEncodingDirection": "COL",
      "MRAcquisitionType": "2D",
      "MagneticFieldStrength": 3.0,
      "Manufacturer": "SIEMENS",
      "ManufacturerModelName": "Prisma",
      "Modality": "MR",
      "NumberOfAverages": 1.0,
      "NumberOfPhaseEncodingSteps": 58,
      "PercentPhaseFieldOfView": 100.0,
      "PercentSampling": 75.0,
      "PerformedProcedureStepStartTime": "174147.275000",
      "PhotometricInterpretation": "MONOCHROME2",
      "PixelBandwidth": 2265.0,
      "PixelRepresentation": 0,
      "PixelSpacing": [2.0, 2.0],
      "ProtocolName": "func_vwfate_run3",
      "RepetitionTime": 1500.0,
      "Rows": 864,
      "SAR": 0.05721324391868,
      "SamplesPerPixel": 1,
      "ScanOptions": [
        "PFP",
        "FS"
],
      "ScanningSequence": "EP",
      "SequenceName": "*epfid2d1_72",
      "SequenceVariant": [
        "SK",
        "OSP"
],
      "SeriesDescription": "func_vwfate_run3",
      "SeriesNumber": 11,
      "SeriesTime": "182413.293000",
      "SliceLocation": -63.149438522338,
      "SliceThickness": 2.0,
      "SmallestImagePixelValue": 0,
      "SoftwareVersions": "syngo MR E11",
      "SpacingBetweenSlices": 1.9999999523173,
      "SpecificCharacterSet": "ISO_IR 100",
      "StudyID": "1",
      "StudyTime": "174147.206000",
      "TransmitCoilName": "Body",
      "VariableFlipAngleFlag": "N",
      "WindowCenterWidthExplanation": "Algo1",
      "dBdt": 0.0},
    "slices": {}
  },
  "time": {
    "samples": {
      "AcquisitionNumber": [1, 2, 3, 4, 5, 6, 7, 8, 9, 10, 11, 12, 13, 14, 15, 16, 17, 18, 19, 20, 21, 22, 23, 24, 25, 26, 27, 28, 29, 30, 31, 32, 33, 34, 35, 36, 37, 38, 39, 40, 41, 42, 43, 44, 45, 46, 47, 48, 49, 50, 51, 52, 53, 54, 55, 56, 57, 58, 59, 60, 61, 62, 63, 64, 65, 66, 67, 68, 69, 70, 71, 72, 73, 74, 75, 76, 77, 78, 79, 80, 81, 82, 83, 84, 85, 86, 87, 88, 89, 90, 91, 92, 93, 94, 95, 96, 97, 98, 99, 100, 101, 102, 103, 104, 105, 106, 107, 108, 109, 110, 111, 112, 113, 114, 115, 116, 117, 118, 119, 120, 121, 122, 123, 124, 125, 126, 127, 128, 129, 130, 131, 132, 133, 134, 135, 136, 137, 138, 139, 140, 141, 142, 143, 144, 145, 146, 147, 148, 149, 150, 151, 152, 153, 154, 155, 156, 157, 158, 159, 160, 161, 162, 163, 164],
      "AcquisitionTime": ["182406.695000", "182408.195000", "182409.695000", "182411.195000", "182412.695000", "182414.195000", "182415.695000", "182417.195000", "182418.695000", "182420.195000", "182421.695000", "182423.195000", "182424.695000", "182426.195000", "182427.695000", "182429.195000", "182430.695000", "182432.195000", "182433.695000", "182435.195000", "182436.695000", "182438.195000", "182439.695000", "182441.195000", "182442.695000", "182444.195000", "182445.695000", "182447.195000", "182448.695000", "182450.195000", "182451.695000", "182453.195000", "182454.695000", "182456.195000", "182457.695000", "182459.195000", "182500.695000", "182502.195000", "182503.695000", "182505.195000", "182506.695000", "182508.195000", "182509.695000", "182511.195000", "182512.695000", "182514.195000", "182515.695000", "182517.195000", "182518.695000", "182520.195000", "182521.695000", "182523.195000", "182524.695000", "182526.195000", "182527.695000", "182529.195000", "182530.695000", "182532.195000", "182533.695000", "182535.195000", "182536.695000", "182538.195000", "182539.695000", "182541.195000", "182542.695000", "182544.195000", "182545.695000", "182547.195000", "182548.695000", "182550.195000", "182551.695000", "182553.195000", "182554.695000", "182556.195000", "182557.695000", "182559.195000", "182600.695000", "182602.195000", "182603.695000", "182605.195000", "182606.695000", "182608.195000", "182609.695000", "182611.195000", "182612.695000", "182614.195000", "182615.695000", "182617.195000", "182618.695000", "182620.195000", "182621.695000", "182623.195000", "182624.695000", "182626.195000", "182627.695000", "182629.195000", "182630.695000", "182632.195000", "182633.695000", "182635.195000", "182636.695000", "182638.195000", "182639.695000", "182641.195000", "182642.695000", "182644.195000", "182645.695000", "182647.195000", "182648.695000", "182650.195000", "182651.695000", "182653.195000", "182654.695000", "182656.195000", "182657.695000", "182659.195000", "182700.695000", "182702.195000", "182703.695000", "182705.195000", "182706.695000", "182708.195000", "182709.695000", "182711.195000", "182712.695000", "182714.195000", "182715.695000", "182717.195000", "182718.695000", "182720.195000", "182721.695000", "182723.195000", "182724.695000", "182726.195000", "182727.695000", "182729.195000", "182730.695000", "182732.195000", "182733.695000", "182735.195000", "182736.695000", "182738.195000", "182739.695000", "182741.195000", "182742.695000", "182744.195000", "182745.695000", "182747.195000", "182748.695000", "182750.195000", "182751.695000", "182753.195000", "182754.695000", "182756.195000", "182757.695000", "182759.195000", "182800.695000", "182802.195000", "182803.695000", "182805.195000", "182806.695000", "182808.195000", "182809.695000", "182811.195000"],
      "ContentTime": ["182413.297000", "182413.301000", "182413.304000", "182413.308000", "182453.292000", "182453.295000", "182453.298000", "182453.301000", "182453.305000", "182453.308000", "182453.311000", "182453.314000", "182453.317000", "182453.320000", "182453.323000", "182453.326000", "182453.330000", "182453.333000", "182453.344000", "182453.347000", "182453.351000", "182453.354000", "182453.357000", "182453.360000", "182453.363000", "182453.366000", "182453.369000", "182453.372000", "182453.375000", "182453.378000", "182453.381000", "182533.291000", "182533.294000", "182533.297000", "182533.300000", "182533.303000", "182533.307000", "182533.321000", "182533.324000", "182533.327000", "182533.330000", "182533.333000", "182533.336000", "182533.339000", "182533.347000", "182533.350000", "182533.353000", "182533.356000", "182533.359000", "182533.362000", "182533.365000", "182533.368000", "182533.371000", "182533.374000", "182533.377000", "182533.380000", "182533.390000", "182613.291000", "182613.294000", "182613.297000", "182613.300000", "182613.303000", "182613.307000", "182613.310000", "182613.313000", "182613.316000", "182613.319000", "182613.322000", "182613.325000", "182613.328000", "182613.331000", "182613.335000", "182613.338000", "182613.341000", "182613.359000", "182613.362000", "182613.365000", "182613.368000", "182613.372000", "182613.375000", "182613.378000", "182613.381000", "182613.384000", "182613.387000", "182653.292000", "182653.295000", "182653.298000", "182653.301000", "182653.305000", "182653.308000", "182653.311000", "182653.314000", "182653.317000", "182653.320000", "182653.323000", "182653.326000", "182653.329000", "182653.332000", "182653.335000", "182653.338000", "182653.342000", "182653.345000", "182653.348000", "182653.351000", "182653.354000", "182653.357000", "182653.360000", "182653.363000", "182653.366000", "182653.369000", "182653.372000", "182733.292000", "182733.296000", "182733.299000", "182733.302000", "182733.305000", "182733.308000", "182733.311000", "182733.314000", "182733.317000", "182733.320000", "182733.323000", "182733.327000", "182733.330000", "182733.333000", "182733.336000", "182733.339000", "182733.342000", "182733.345000", "182733.348000", "182733.351000", "182733.354000", "182733.357000", "182733.360000", "182733.364000", "182733.367000", "182733.370000", "182812.420000", "182812.423000", "182812.426000", "182812.430000", "182812.433000", "182812.436000", "182812.439000", "182812.443000", "182812.446000", "182812.449000", "182812.452000", "182812.455000", "182812.459000", "182812.462000", "182812.466000", "182812.469000", "182812.472000", "182812.476000", "182812.479000", "182812.482000", "182812.486000", "182812.489000", "182812.493000", "182812.496000", "182812.499000", "182812.502000", "182812.505000"],
      "InstanceCreationTime": ["182413.297000", "182413.301000", "182413.304000", "182413.308000", "182453.292000", "182453.295000", "182453.298000", "182453.301000", "182453.305000", "182453.308000", "182453.311000", "182453.314000", "182453.317000", "182453.320000", "182453.323000", "182453.326000", "182453.330000", "182453.333000", "182453.344000", "182453.347000", "182453.351000", "182453.354000", "182453.357000", "182453.360000", "182453.363000", "182453.366000", "182453.369000", "182453.372000", "182453.375000", "182453.378000", "182453.381000", "182533.291000", "182533.294000", "182533.297000", "182533.300000", "182533.303000", "182533.307000", "182533.321000", "182533.324000", "182533.327000", "182533.330000", "182533.333000", "182533.336000", "182533.339000", "182533.347000", "182533.350000", "182533.353000", "182533.356000", "182533.359000", "182533.362000", "182533.365000", "182533.368000", "182533.371000", "182533.374000", "182533.377000", "182533.380000", "182533.390000", "182613.291000", "182613.294000", "182613.297000", "182613.300000", "182613.303000", "182613.307000", "182613.310000", "182613.313000", "182613.316000", "182613.319000", "182613.322000", "182613.325000", "182613.328000", "182613.331000", "182613.335000", "182613.338000", "182613.341000", "182613.359000", "182613.362000", "182613.365000", "182613.368000", "182613.372000", "182613.375000", "182613.378000", "182613.381000", "182613.384000", "182613.387000", "182653.292000", "182653.295000", "182653.298000", "182653.301000", "182653.305000", "182653.308000", "182653.311000", "182653.314000", "182653.317000", "182653.320000", "182653.323000", "182653.326000", "182653.329000", "182653.332000", "182653.335000", "182653.338000", "182653.342000", "182653.345000", "182653.348000", "182653.351000", "182653.354000", "182653.357000", "182653.360000", "182653.363000", "182653.366000", "182653.369000", "182653.372000", "182733.292000", "182733.296000", "182733.299000", "182733.302000", "182733.305000", "182733.308000", "182733.311000", "182733.314000", "182733.317000", "182733.320000", "182733.323000", "182733.327000", "182733.330000", "182733.333000", "182733.336000", "182733.339000", "182733.342000", "182733.345000", "182733.348000", "182733.351000", "182733.354000", "182733.357000", "182733.360000", "182733.364000", "182733.367000", "182733.370000", "182812.420000", "182812.423000", "182812.426000", "182812.430000", "182812.433000", "182812.436000", "182812.439000", "182812.443000", "182812.446000", "182812.449000", "182812.452000", "182812.455000", "182812.459000", "182812.462000", "182812.466000", "182812.469000", "182812.472000", "182812.476000", "182812.479000", "182812.482000", "182812.486000", "182812.489000", "182812.493000", "182812.496000", "182812.499000", "182812.502000", "182812.505000"],
      "InstanceNumber": [1, 2, 3, 4, 5, 6, 7, 8, 9, 10, 11, 12, 13, 14, 15, 16, 17, 18, 19, 20, 21, 22, 23, 24, 25, 26, 27, 28, 29, 30, 31, 32, 33, 34, 35, 36, 37, 38, 39, 40, 41, 42, 43, 44, 45, 46, 47, 48, 49, 50, 51, 52, 53, 54, 55, 56, 57, 58, 59, 60, 61, 62, 63, 64, 65, 66, 67, 68, 69, 70, 71, 72, 73, 74, 75, 76, 77, 78, 79, 80, 81, 82, 83, 84, 85, 86, 87, 88, 89, 90, 91, 92, 93, 94, 95, 96, 97, 98, 99, 100, 101, 102, 103, 104, 105, 106, 107, 108, 109, 110, 111, 112, 113, 114, 115, 116, 117, 118, 119, 120, 121, 122, 123, 124, 125, 126, 127, 128, 129, 130, 131, 132, 133, 134, 135, 136, 137, 138, 139, 140, 141, 142, 143, 144, 145, 146, 147, 148, 149, 150, 151, 152, 153, 154, 155, 156, 157, 158, 159, 160, 161, 162, 163, 164],
      "LargestImagePixelValue": [2766, 2622, 2552, 2551, 2484, 2477, 2427, 2453, 2432, 2447, 2446, 2430, 2413, 2401, 2491, 2411, 2520, 2510, 2488, 2562, 2555, 2570, 2643, 2593, 2672, 2637, 2650, 2622, 2635, 2656, 2640, 2626, 2657, 2642, 2650, 2645, 2634, 2603, 2628, 2625, 2607, 2631, 2627, 2637, 2620, 2624, 2616, 2617, 2583, 2598, 2604, 2582, 2568, 2570, 2548, 2584, 2523, 2555, 2574, 2563, 2598, 2507, 2532, 2498, 2513, 2489, 2453, 2453, 2464, 2447, 2490, 2459, 2497, 2493, 2506, 2483, 2460, 2445, 2453, 2441, 2478, 2448, 2469, 2453, 2480, 2468, 2464, 2484, 2459, 2475, 2452, 2492, 2481, 2476, 2472, 2488, 2526, 2508, 2522, 2511, 2503, 2533, 2539, 2531, 2527, 2512, 2528, 2545, 2517, 2517, 2492, 2521, 2517, 2515, 2516, 2492, 2504, 2493, 2525, 2519, 2498, 2514, 2512, 2512, 2493, 2529, 2515, 2495, 2495, 2491, 2497, 2516, 2487, 2501, 2507, 2519, 2503, 2496, 2490, 2509, 2509, 2504, 2540, 2501, 2513, 2517, 2518, 2498, 2482, 2506, 2485, 2507, 2472, 2506, 2507, 2486, 2499, 2515, 2489, 2493, 2489, 2495, 2473, 2505],
      "WindowCenter": [701.0, 699.0, 700.0, 700.0, 698.0, 698.0, 698.0, 699.0, 699.0, 699.0, 698.0, 697.0, 697.0, 696.0, 697.0, 696.0, 696.0, 696.0, 697.0, 697.0, 696.0, 696.0, 698.0, 699.0, 699.0, 699.0, 699.0, 699.0, 699.0, 698.0, 698.0, 698.0, 698.0, 699.0, 699.0, 699.0, 699.0, 699.0, 699.0, 699.0, 700.0, 700.0, 700.0, 700.0, 700.0, 700.0, 700.0, 700.0, 699.0, 699.0, 699.0, 699.0, 699.0, 699.0, 698.0, 699.0, 698.0, 699.0, 699.0, 700.0, 700.0, 699.0, 699.0, 698.0, 699.0, 699.0, 699.0, 699.0, 699.0, 699.0, 699.0, 699.0, 698.0, 699.0, 699.0, 699.0, 699.0, 700.0, 700.0, 700.0, 701.0, 700.0, 700.0, 701.0, 701.0, 701.0, 700.0, 700.0, 699.0, 700.0, 700.0, 700.0, 700.0, 701.0, 701.0, 701.0, 702.0, 701.0, 700.0, 701.0, 701.0, 700.0, 700.0, 700.0, 700.0, 700.0, 699.0, 699.0, 698.0, 699.0, 699.0, 700.0, 700.0, 700.0, 699.0, 698.0, 698.0, 699.0, 699.0, 700.0, 700.0, 701.0, 700.0, 699.0, 699.0, 699.0, 699.0, 700.0, 699.0, 699.0, 699.0, 699.0, 700.0, 700.0, 700.0, 701.0, 700.0, 701.0, 700.0, 700.0, 699.0, 698.0, 699.0, 700.0, 700.0, 700.0, 699.0, 700.0, 700.0, 700.0, 700.0, 699.0, 699.0, 700.0, 701.0, 700.0, 699.0, 699.0, 698.0, 698.0, 697.0, 698.0, 698.0, 700.0],
      "WindowWidth": [1500.0, 1495.0, 1496.0, 1496.0, 1492.0, 1492.0, 1492.0, 1495.0, 1495.0, 1493.0, 1490.0, 1488.0, 1488.0, 1488.0, 1489.0, 1488.0, 1487.0, 1487.0, 1488.0, 1489.0, 1487.0, 1487.0, 1492.0, 1493.0, 1494.0, 1493.0, 1493.0, 1493.0, 1494.0, 1492.0, 1492.0, 1492.0, 1492.0, 1492.0, 1494.0, 1494.0, 1493.0, 1493.0, 1493.0, 1493.0, 1496.0, 1497.0, 1496.0, 1497.0, 1496.0, 1496.0, 1497.0, 1496.0, 1494.0, 1494.0, 1494.0, 1495.0, 1495.0, 1494.0, 1492.0, 1493.0, 1493.0, 1494.0, 1495.0, 1496.0, 1496.0, 1494.0, 1494.0, 1492.0, 1494.0, 1494.0, 1495.0, 1495.0, 1493.0, 1494.0, 1495.0, 1493.0, 1493.0, 1494.0, 1494.0, 1494.0, 1494.0, 1496.0, 1497.0, 1497.0, 1498.0, 1498.0, 1497.0, 1499.0, 1499.0, 1499.0, 1497.0, 1497.0, 1495.0, 1496.0, 1496.0, 1497.0, 1498.0, 1498.0, 1498.0, 1500.0, 1500.0, 1499.0, 1498.0, 1498.0, 1498.0, 1497.0, 1496.0, 1496.0, 1496.0, 1497.0, 1495.0, 1494.0, 1492.0, 1493.0, 1493.0, 1496.0, 1496.0, 1496.0, 1494.0, 1492.0, 1493.0, 1494.0, 1495.0, 1497.0, 1497.0, 1498.0, 1496.0, 1494.0, 1493.0, 1493.0, 1495.0, 1496.0, 1495.0, 1494.0, 1494.0, 1495.0, 1496.0, 1496.0, 1497.0, 1499.0, 1497.0, 1498.0, 1497.0, 1496.0, 1493.0, 1492.0, 1494.0, 1496.0, 1498.0, 1497.0, 1495.0, 1496.0, 1496.0, 1497.0, 1496.0, 1493.0, 1493.0, 1496.0, 1498.0, 1497.0, 1495.0, 1493.0, 1491.0, 1491.0, 1490.0, 1490.0, 1492.0, 1496.0]
    },
    "slices": {}
  }
}