{
  "AcquisitionMatrixPE": 72,
  "AcquisitionNumber": 1,
  "AcquisitionTime": "18:35:4.752500",
  "BandwidthPerPixelPhaseEncode": 17.943,
  "BaseResolution": 96,
  "BodyPartExamined": "BRAIN",
  "CoilCombinationMethod": "Sum of Squares",
  "ConsistencyInfo": "N4_VE11C_LATEST_20160120",
  "ConversionSoftware": "dcm2niix",
  "ConversionSoftwareVersion": "v1.0.20211006",
  "DerivedVendorReportedEchoSpacing": 0.000552897,
  "DeviceSerialNumber": "166011",
  "EchoTime": 0.03,
  "EchoTrainLength": 58,
  "EffectiveEchoSpacing": 0.000580542,
  "FlipAngle": 62,
  "ImageOrientationPatientDICOM": [0.999216, 0.00455664, 0.0393366, 0.00122078, 0.989341, -0.145612],
  "ImageType": [
    "ORIGINAL",
    "PRIMARY",
    "M",
    "ND",
    "MOSAIC"
],
  "ImagingFrequency": 123.26,
  "InPlanePhaseEncodingDirectionDICOM": "COL",
  "InstitutionAddress": "West 130th Street 610,NY,NYC,US,10025",
  "InstitutionName": "MBBI",
  "MRAcquisitionType": "2D",
  "MagneticFieldStrength": 3,
  "Manufacturer": "Siemens",
  "ManufacturersModelName": "Prisma",
  "Modality": "MR",
  "MultibandAccelerationFactor": 3,
  "PartialFourier": 0.75,
  "PatientPosition": "HFS",
  "PercentPhaseFOV": 100,
  "PercentSampling": 75,
  "PhaseEncodingDirection": "j-",
  "PhaseEncodingSteps": 58,
  "PhaseOversampling": 0.05,
  "PhaseResolution": 0.75,
  "PixelBandwidth": 2265,
  "ProcedureStepDescription": "White^Word_recognition",
  "ProtocolName": "func_catLoc_run2",
  "PulseSequenceDetails": "%SiemensSeq%\\ep2d_bold",
  "ReceiveCoilActiveElements": "HC1-7",
  "ReceiveCoilName": "HeadNeck_64",
  "ReconMatrixPE": 96,
  "RefLinesPE": 40,
  "RepetitionTime": 1.5,
  "SAR": 0.0573923,
  "ScanOptions": "PFP\\FS",
  "ScanningSequence": "EP",
  "SequenceName": "*epfid2d1_72",
  "SequenceVariant": "SK\\OSP",
  "SeriesDescription": "func_catLoc_run2",
  "SeriesNumber": 13,
  "ShimSetting": [-1127, -1349, 699, 524, -140, 46, 6, 28],
  "SliceThickness": 2,
  "SliceTiming": [1.075, 0, 0.74, 0.0675, 0.8075, 0.1325, 0.8725, 0.2, 0.94, 0.2675, 1.0075, 0.4025, 1.1425, 0.47, 1.21, 0.5375, 1.2775, 0.605, 1.345, 0.6725, 1.4125, 0.335, 1.075, 0, 0.74, 0.0675, 0.8075, 0.1325, 0.8725, 0.2, 0.94, 0.2675, 1.0075, 0.4025, 1.1425, 0.47, 1.21, 0.5375, 1.2775, 0.605, 1.345, 0.6725, 1.4125, 0.335, 1.075, 0, 0.74, 0.0675, 0.8075, 0.1325, 0.8725, 0.2, 0.94, 0.2675, 1.0075, 0.4025, 1.1425, 0.47, 1.21, 0.5375, 1.2775, 0.605, 1.345, 0.6725, 1.4125, 0.335],
  "SoftwareVersions": "syngo MR E11",
  "SpacingBetweenSlices": 2,
  "StationName": "AWP166011",
  "TaskName": "catLoc",
  "TotalReadoutTime": 0.0551515,
  "TxRefAmp": 245.155,
  "dcmmeta_affine": [
    [-1.9984312057495117, 0.002441560151055455, 0.07916167378425598, 92.8245620727539],
    [-0.009113289415836334, 1.9786819219589233, -0.29109227657318115, -66.77652740478516],
    [0.07867325097322464, 0.2912246584892273, 1.977118730545044, -77.42840576171875],
    [0.0, 0.0, 0.0, 1.0]
],
  "dcmmeta_reorient_transform": [
    [0.0, -1.0, 0.0, 95.0],
    [1.0, 0.0, 0.0, 0.0],
    [0.0, 0.0, 1.0, 0.0],
    [0.0, 0.0, 0.0, 1.0]
],
  "dcmmeta_shape": [96, 96, 66, 214],
  "dcmmeta_slice_dim": 2,
  "dcmmeta_version": 0.6,
  "global": {
    "const": {
      "AcquisitionMatrix": [96, 0, 0, 72],
      "AngioFlag": "N",
      "BitsAllocated": 16,
      "BitsStored": 12,
      "BodyPartExamined": "BRAIN",
      "Columns": 864,
      "EchoNumbers": 1,
      "EchoTime": 30.0,
      "EchoTrainLength": 58,
      "FlipAngle": 62.0,
      "HighBit": 11,
      "ImageOrientationPatient": [0.99921562580748, 0.00455664481858, 0.03933662581061, 0.00122078006952, 0.98934097136203, -0.1456123349186],
      "ImagePositionPatient": [-861.39166854453, -884.51162470011, 31.857681724495],
      "ImageType": [
        "ORIGINAL",
        "PRIMARY",
        "M",
        "ND",
        "MOSAIC"
],
      "ImagedNucleus": "1H",
      "ImagingFrequency": 123.259508,
      "InPlanePhaseEncodingDirection": "COL",
      "MRAcquisitionType": "2D",
      "MagneticFieldStrength": 3.0,
      "Manufacturer": "SIEMENS",
      "ManufacturerModelName": "Prisma",
      "Modality": "MR",
      "NumberOfAverages": 1.0,
      "NumberOfPhaseEncodingSteps": 58,
      "PercentPhaseFieldOfView": 100.0,
      "PercentSampling": 75.0,
      "PerformedProcedureStepStartTime": "174147.275000",
      "PhotometricInterpretation": "MONOCHROME2",
      "PixelBandwidth": 2265.0,
      "PixelRepresentation": 0,
      "PixelSpacing": [2.0, 2.0],
      "ProtocolName": "func_catLoc_run2",
      "RepetitionTime": 1500.0,
      "Rows": 864,
      "SAR": 0.05739229147285,
      "SamplesPerPixel": 1,
      "ScanOptions": [
        "PFP",
        "FS"
],
      "ScanningSequence": "EP",
      "SequenceName": "*epfid2d1_72",
      "SequenceVariant": [
        "SK",
        "OSP"
],
      "SeriesDescription": "func_catLoc_run2",
      "SeriesNumber": 13,
      "SeriesTime": "183553.143000",
      "SliceLocation": -63.149438522338,
      "SliceThickness": 2.0,
      "SmallestImagePixelValue": 0,
      "SoftwareVersions": "syngo MR E11",
      "SpacingBetweenSlices": 1.9999999523173,
      "SpecificCharacterSet": "ISO_IR 100",
      "StudyID": "1",
      "StudyTime": "174147.206000",
      "TransmitCoilName": "Body",
      "VariableFlipAngleFlag": "N",
      "WindowCenterWidthExplanation": "Algo1",
      "dBdt": 0.0},
    "slices": {}
  },
  "time": {
    "samples": {
      "AcquisitionNumber": [1, 2, 3, 4, 5, 6, 7, 8, 9, 10, 11, 12, 13, 14, 15, 16, 17, 18, 19, 20, 21, 22, 23, 24, 25, 26, 27, 28, 29, 30, 31, 32, 33, 34, 35, 36, 37, 38, 39, 40, 41, 42, 43, 44, 45, 46, 47, 48, 49, 50, 51, 52, 53, 54, 55, 56, 57, 58, 59, 60, 61, 62, 63, 64, 65, 66, 67, 68, 69, 70, 71, 72, 73, 74, 75, 76, 77, 78, 79, 80, 81, 82, 83, 84, 85, 86, 87, 88, 89, 90, 91, 92, 93, 94, 95, 96, 97, 98, 99, 100, 101, 102, 103, 104, 105, 106, 107, 108, 109, 110, 111, 112, 113, 114, 115, 116, 117, 118, 119, 120, 121, 122, 123, 124, 125, 126, 127, 128, 129, 130, 131, 132, 133, 134, 135, 136, 137, 138, 139, 140, 141, 142, 143, 144, 145, 146, 147, 148, 149, 150, 151, 152, 153, 154, 155, 156, 157, 158, 159, 160, 161, 162, 163, 164, 165, 166, 167, 168, 169, 170, 171, 172, 173, 174, 175, 176, 177, 178, 179, 180, 181, 182, 183, 184, 185, 186, 187, 188, 189, 190, 191, 192, 193, 194, 195, 196, 197, 198, 199, 200, 201, 202, 203, 204, 205, 206, 207, 208, 209, 210, 211, 212, 213, 214],
      "AcquisitionTime": ["183504.752500", "183506.252500", "183507.752500", "183509.252500", "183510.752500", "183512.252500", "183513.752500", "183515.252500", "183516.752500", "183518.252500", "183519.752500", "183521.252500", "183522.752500", "183524.252500", "183525.752500", "183527.252500", "183528.752500", "183530.252500", "183531.752500", "183533.252500", "183534.752500", "183536.252500", "183537.752500", "183539.252500", "183540.752500", "183542.252500", "183543.752500", "183545.252500", "183546.752500", "183548.252500", "183549.752500", "183551.252500", "183552.752500", "183554.252500", "183555.752500", "183557.252500", "183558.752500", "183600.252500", "183601.752500", "183603.252500", "183604.752500", "183606.252500", "183607.752500", "183609.252500", "183610.752500", "183612.252500", "183613.752500", "183615.252500", "183616.752500", "183618.252500", "183619.752500", "183621.252500", "183622.752500", "183624.252500", "183625.752500", "183627.252500", "183628.752500", "183630.252500", "183631.752500", "183633.252500", "183634.752500", "183636.252500", "183637.752500", "183639.252500", "183640.752500", "183642.252500", "183643.752500", "183645.252500", "183646.752500", "183648.252500", "183649.752500", "183651.252500", "183652.752500", "183654.252500", "183655.752500", "183657.252500", "183658.752500", "183700.252500", "183701.752500", "183703.252500", "183704.752500", "183706.252500", "183707.752500", "183709.252500", "183710.752500", "183712.252500", "183713.752500", "183715.252500", "183716.752500", "183718.252500", "183719.752500", "183721.252500", "183722.752500", "183724.252500", "183725.752500", "183727.252500", "183728.752500", "183730.252500", "183731.752500", "183733.252500", "183734.752500", "183736.252500", "183737.752500", "183739.252500", "183740.752500", "183742.252500", "183743.752500", "183745.252500", "183746.752500", "183748.252500", "183749.752500", "183751.252500", "183752.752500", "183754.252500", "183755.752500", "183757.252500", "183758.752500", "183800.252500", "183801.752500", "183803.252500", "183804.752500", "183806.252500", "183807.752500", "183809.252500", "183810.752500", "183812.252500", "183813.752500", "183815.252500", "183816.752500", "183818.252500", "183819.752500", "183821.252500", "183822.752500", "183824.252500", "183825.752500", "183827.252500", "183828.752500", "183830.252500", "183831.752500", "183833.252500", "183834.752500", "183836.252500", "183837.752500", "183839.252500", "183840.752500", "183842.252500", "183843.752500", "183845.252500", "183846.752500", "183848.252500", "183849.752500", "183851.252500", "183852.752500", "183854.252500", "183855.752500", "183857.252500", "183858.752500", "183900.252500", "183901.752500", "183903.252500", "183904.752500", "183906.252500", "183907.752500", "183909.252500", "183910.752500", "183912.252500", "183913.752500", "183915.252500", "183916.752500", "183918.252500", "183919.752500", "183921.252500", "183922.752500", "183924.252500", "183925.752500", "183927.252500", "183928.752500", "183930.252500", "183931.752500", "183933.252500", "183934.752500", "183936.252500", "183937.752500", "183939.252500", "183940.752500", "183942.252500", "183943.752500", "183945.252500", "183946.752500", "183948.252500", "183949.752500", "183951.252500", "183952.752500", "183954.252500", "183955.752500", "183957.252500", "183958.752500", "184000.252500", "184001.752500", "184003.252500", "184004.752500", "184006.252500", "184007.752500", "184009.252500", "184010.752500", "184012.252500", "184013.752500", "184015.252500", "184016.752500", "184018.252500", "184019.752500", "184021.252500", "184022.752500", "184024.252500"],
      "ContentTime": ["183553.147000", "183553.151000", "183553.154000", "183553.157000", "183553.160000", "183553.163000", "183553.167000", "183553.170000", "183553.173000", "183553.176000", "183553.179000", "183553.182000", "183553.185000", "183553.188000", "183553.191000", "183553.194000", "183553.197000", "183553.200000", "183553.204000", "183553.207000", "183553.210000", "183553.213000", "183553.216000", "183553.220000", "183553.223000", "183553.235000", "183553.238000", "183553.241000", "183553.244000", "183553.247000", "183553.250000", "183553.253000", "183633.142000", "183633.145000", "183633.148000", "183633.152000", "183633.155000", "183633.158000", "183633.161000", "183633.164000", "183633.167000", "183633.170000", "183633.173000", "183633.176000", "183633.179000", "183633.182000", "183633.185000", "183633.189000", "183633.192000", "183633.195000", "183633.206000", "183633.210000", "183633.213000", "183633.216000", "183633.219000", "183633.222000", "183633.225000", "183633.228000", "183633.231000", "183713.141000", "183713.144000", "183713.160000", "183713.163000", "183713.166000", "183713.169000", "183713.173000", "183713.176000", "183713.179000", "183713.182000", "183713.185000", "183713.188000", "183713.191000", "183713.194000", "183713.197000", "183713.200000", "183713.203000", "183713.206000", "183713.209000", "183713.212000", "183713.215000", "183713.218000", "183713.222000", "183713.225000", "183713.228000", "183713.231000", "183713.234000", "183753.141000", "183753.144000", "183753.147000", "183753.151000", "183753.154000", "183753.157000", "183753.160000", "183753.163000", "183753.166000", "183753.169000", "183753.172000", "183753.175000", "183753.178000", "183753.192000", "183753.195000", "183753.198000", "183753.201000", "183753.204000", "183753.207000", "183753.211000", "183753.214000", "183753.217000", "183753.220000", "183753.223000", "183753.226000", "183753.229000", "183833.142000", "183833.145000", "183833.149000", "183833.152000", "183833.155000", "183833.158000", "183833.161000", "183833.164000", "183833.167000", "183833.170000", "183833.173000", "183833.177000", "183833.180000", "183833.183000", "183833.186000", "183833.189000", "183833.200000", "183833.203000", "183833.206000", "183833.209000", "183833.212000", "183833.215000", "183833.218000", "183833.221000", "183833.224000", "183833.237000", "183833.240000", "183913.142000", "183913.145000", "183913.154000", "183913.157000", "183913.160000", "183913.163000", "183913.166000", "183913.169000", "183913.172000", "183913.175000", "183913.179000", "183913.182000", "183913.185000", "183913.188000", "183913.191000", "183913.194000", "183913.197000", "183913.200000", "183913.204000", "183913.207000", "183913.210000", "183913.213000", "183913.216000", "183913.219000", "183913.222000", "183913.225000", "183913.228000", "183953.141000", "183953.144000", "183953.147000", "183953.151000", "183953.154000", "183953.157000", "183953.160000", "183953.163000", "183953.166000", "183953.169000", "183953.172000", "183953.175000", "183953.178000", "183953.181000", "183953.184000", "183953.188000", "183953.191000", "183953.194000", "183953.197000", "183953.200000", "183953.203000", "183953.206000", "183953.209000", "183953.213000", "183953.216000", "183953.219000", "184025.090000", "184025.094000", "184025.097000", "184025.100000", "184025.103000", "184025.107000", "184025.110000", "184025.113000", "184025.116000", "184025.120000", "184025.123000", "184025.126000", "184025.129000", "184025.133000", "184025.136000", "184025.140000", "184025.144000", "184025.147000", "184025.150000", "184025.154000", "184025.157000", "184025.161000"],
      "InstanceCreationTime": ["183553.147000", "183553.151000", "183553.154000", "183553.157000", "183553.160000", "183553.163000", "183553.167000", "183553.170000", "183553.173000", "183553.176000", "183553.179000", "183553.182000", "183553.185000", "183553.188000", "183553.191000", "183553.194000", "183553.197000", "183553.200000", "183553.204000", "183553.207000", "183553.210000", "183553.213000", "183553.216000", "183553.220000", "183553.223000", "183553.235000", "183553.238000", "183553.241000", "183553.244000", "183553.247000", "183553.250000", "183553.253000", "183633.142000", "183633.145000", "183633.148000", "183633.152000", "183633.155000", "183633.158000", "183633.161000", "183633.164000", "183633.167000", "183633.170000", "183633.173000", "183633.176000", "183633.179000", "183633.182000", "183633.185000", "183633.189000", "183633.192000", "183633.195000", "183633.206000", "183633.210000", "183633.213000", "183633.216000", "183633.219000", "183633.222000", "183633.225000", "183633.228000", "183633.231000", "183713.141000", "183713.144000", "183713.160000", "183713.163000", "183713.166000", "183713.169000", "183713.173000", "183713.176000", "183713.179000", "183713.182000", "183713.185000", "183713.188000", "183713.191000", "183713.194000", "183713.197000", "183713.200000", "183713.203000", "183713.206000", "183713.209000", "183713.212000", "183713.215000", "183713.218000", "183713.222000", "183713.225000", "183713.228000", "183713.231000", "183713.234000", "183753.141000", "183753.144000", "183753.147000", "183753.151000", "183753.154000", "183753.157000", "183753.160000", "183753.163000", "183753.166000", "183753.169000", "183753.172000", "183753.175000", "183753.178000", "183753.192000", "183753.195000", "183753.198000", "183753.201000", "183753.204000", "183753.207000", "183753.211000", "183753.214000", "183753.217000", "183753.220000", "183753.223000", "183753.226000", "183753.229000", "183833.142000", "183833.145000", "183833.149000", "183833.152000", "183833.155000", "183833.158000", "183833.161000", "183833.164000", "183833.167000", "183833.170000", "183833.173000", "183833.177000", "183833.180000", "183833.183000", "183833.186000", "183833.189000", "183833.200000", "183833.203000", "183833.206000", "183833.209000", "183833.212000", "183833.215000", "183833.218000", "183833.221000", "183833.224000", "183833.237000", "183833.240000", "183913.142000", "183913.145000", "183913.154000", "183913.157000", "183913.160000", "183913.163000", "183913.166000", "183913.169000", "183913.172000", "183913.175000", "183913.179000", "183913.182000", "183913.185000", "183913.188000", "183913.191000", "183913.194000", "183913.197000", "183913.200000", "183913.204000", "183913.207000", "183913.210000", "183913.213000", "183913.216000", "183913.219000", "183913.222000", "183913.225000", "183913.228000", "183953.141000", "183953.144000", "183953.147000", "183953.151000", "183953.154000", "183953.157000", "183953.160000", "183953.163000", "183953.166000", "183953.169000", "183953.172000", "183953.175000", "183953.178000", "183953.181000", "183953.184000", "183953.188000", "183953.191000", "183953.194000", "183953.197000", "183953.200000", "183953.203000", "183953.206000", "183953.209000", "183953.213000", "183953.216000", "183953.219000", "184025.090000", "184025.094000", "184025.097000", "184025.100000", "184025.103000", "184025.107000", "184025.110000", "184025.113000", "184025.116000", "184025.120000", "184025.123000", "184025.126000", "184025.129000", "184025.133000", "184025.136000", "184025.140000", "184025.144000", "184025.147000", "184025.150000", "184025.154000", "184025.157000", "184025.161000"],
      "InstanceNumber": [1, 2, 3, 4, 5, 6, 7, 8, 9, 10, 11, 12, 13, 14, 15, 16, 17, 18, 19, 20, 21, 22, 23, 24, 25, 26, 27, 28, 29, 30, 31, 32, 33, 34, 35, 36, 37, 38, 39, 40, 41, 42, 43, 44, 45, 46, 47, 48, 49, 50, 51, 52, 53, 54, 55, 56, 57, 58, 59, 60, 61, 62, 63, 64, 65, 66, 67, 68, 69, 70, 71, 72, 73, 74, 75, 76, 77, 78, 79, 80, 81, 82, 83, 84, 85, 86, 87, 88, 89, 90, 91, 92, 93, 94, 95, 96, 97, 98, 99, 100, 101, 102, 103, 104, 105, 106, 107, 108, 109, 110, 111, 112, 113, 114, 115, 116, 117, 118, 119, 120, 121, 122, 123, 124, 125, 126, 127, 128, 129, 130, 131, 132, 133, 134, 135, 136, 137, 138, 139, 140, 141, 142, 143, 144, 145, 146, 147, 148, 149, 150, 151, 152, 153, 154, 155, 156, 157, 158, 159, 160, 161, 162, 163, 164, 165, 166, 167, 168, 169, 170, 171, 172, 173, 174, 175, 176, 177, 178, 179, 180, 181, 182, 183, 184, 185, 186, 187, 188, 189, 190, 191, 192, 193, 194, 195, 196, 197, 198, 199, 200, 201, 202, 203, 204, 205, 206, 207, 208, 209, 210, 211, 212, 213, 214],
      "LargestImagePixelValue": [2563, 2513, 2428, 2427, 2431, 2418, 2412, 2408, 2392, 2420, 2408, 2434, 2417, 2425, 2406, 2415, 2422, 2441, 2426, 2439, 2454, 2411, 2434, 2428, 2425, 2423, 2417, 2439, 2391, 2439, 2432, 2421, 2440, 2420, 2406, 2443, 2433, 2452, 2428, 2402, 2385, 2415, 2402, 2426, 2391, 2388, 2381, 2390, 2364, 2369, 2404, 2370, 2368, 2382, 2364, 2375, 2359, 2350, 2384, 2370, 2338, 2389, 2375, 2374, 2374, 2375, 2361, 2363, 2350, 2349, 2364, 2337, 2363, 2426, 2398, 2379, 2413, 2403, 2388, 2382, 2355, 2392, 2372, 2377, 2383, 2397, 2415, 2407, 2406, 2398, 2389, 2375, 2355, 2379, 2398, 2394, 2376, 2374, 2392, 2402, 2379, 2366, 2445, 2400, 2397, 2372, 2402, 2430, 2402, 2405, 2409, 2424, 2431, 2429, 2438, 2405, 2408, 2402, 2395, 2411, 2401, 2420, 2422, 2432, 2427, 2464, 2452, 2401, 2421, 2444, 2461, 2455, 2458, 2448, 2436, 2447, 2429, 2449, 2463, 2404, 2407, 2426, 2413, 2438, 2463, 2433, 2425, 2397, 2401, 2397, 2396, 2394, 2408, 2431, 2403, 2417, 2405, 2388, 2419, 2380, 2359, 2391, 2400, 2381, 2382, 2393, 2394, 2407, 2417, 2397, 2432, 2400, 2385, 2428, 2427, 2430, 2437, 2422, 2396, 2372, 2380, 2403, 2403, 2403, 2376, 2405, 2409, 2399, 2390, 2403, 2398, 2406, 2429, 2395, 2414, 2404, 2395, 2392, 2415, 2377, 2389, 2376, 2416, 2397, 2393, 2387, 2409, 2419, 2390, 2393, 2369, 2407, 2400, 2419],
      "WindowCenter": [697.0, 696.0, 695.0, 694.0, 695.0, 695.0, 694.0, 694.0, 694.0, 694.0, 694.0, 695.0, 695.0, 695.0, 695.0, 694.0, 693.0, 693.0, 693.0, 694.0, 694.0, 694.0, 694.0, 694.0, 695.0, 695.0, 695.0, 696.0, 695.0, 695.0, 695.0, 695.0, 696.0, 695.0, 696.0, 697.0, 697.0, 697.0, 697.0, 696.0, 695.0, 695.0, 695.0, 695.0, 695.0, 694.0, 694.0, 694.0, 694.0, 694.0, 695.0, 694.0, 695.0, 695.0, 695.0, 694.0, 694.0, 693.0, 693.0, 692.0, 693.0, 694.0, 694.0, 694.0, 693.0, 693.0, 693.0, 694.0, 694.0, 694.0, 693.0, 693.0, 693.0, 694.0, 694.0, 694.0, 694.0, 693.0, 693.0, 694.0, 695.0, 695.0, 694.0, 694.0, 694.0, 695.0, 696.0, 696.0, 694.0, 694.0, 693.0, 693.0, 694.0, 695.0, 695.0, 695.0, 694.0, 694.0, 694.0, 694.0, 694.0, 694.0, 695.0, 694.0, 694.0, 693.0, 693.0, 694.0, 694.0, 693.0, 693.0, 693.0, 693.0, 694.0, 694.0, 693.0, 692.0, 692.0, 692.0, 693.0, 693.0, 693.0, 693.0, 693.0, 694.0, 693.0, 693.0, 692.0, 692.0, 693.0, 694.0, 695.0, 695.0, 694.0, 693.0, 693.0, 693.0, 693.0, 693.0, 692.0, 692.0, 692.0, 692.0, 693.0, 693.0, 692.0, 692.0, 692.0, 693.0, 693.0, 693.0, 693.0, 693.0, 694.0, 693.0, 693.0, 693.0, 693.0, 694.0, 693.0, 692.0, 692.0, 693.0, 693.0, 692.0, 694.0, 693.0, 693.0, 693.0, 692.0, 693.0, 693.0, 692.0, 693.0, 693.0, 693.0, 693.0, 693.0, 693.0, 693.0, 693.0, 693.0, 691.0, 692.0, 692.0, 693.0, 693.0, 693.0, 692.0, 692.0, 692.0, 693.0, 693.0, 693.0, 693.0, 693.0, 693.0, 694.0, 694.0, 693.0, 693.0, 693.0, 694.0, 694.0, 694.0, 693.0, 693.0, 693.0, 693.0, 692.0, 692.0, 693.0, 693.0, 694.0],
      "WindowWidth": [1490.0, 1486.0, 1484.0, 1482.0, 1483.0, 1483.0, 1482.0, 1482.0, 1482.0, 1482.0, 1481.0, 1483.0, 1484.0, 1484.0, 1483.0, 1482.0, 1480.0, 1479.0, 1479.0, 1480.0, 1481.0, 1481.0, 1481.0, 1482.0, 1484.0, 1485.0, 1485.0, 1486.0, 1484.0, 1484.0, 1483.0, 1483.0, 1485.0, 1484.0, 1486.0, 1488.0, 1488.0, 1488.0, 1487.0, 1486.0, 1484.0, 1484.0, 1483.0, 1485.0, 1484.0, 1482.0, 1482.0, 1481.0, 1481.0, 1481.0, 1482.0, 1482.0, 1483.0, 1484.0, 1483.0, 1482.0, 1481.0, 1479.0, 1478.0, 1478.0, 1478.0, 1481.0, 1482.0, 1481.0, 1479.0, 1479.0, 1479.0, 1481.0, 1481.0, 1480.0, 1480.0, 1479.0, 1479.0, 1481.0, 1482.0, 1481.0, 1480.0, 1479.0, 1478.0, 1481.0, 1483.0, 1484.0, 1482.0, 1482.0, 1482.0, 1484.0, 1485.0, 1485.0, 1482.0, 1481.0, 1478.0, 1479.0, 1481.0, 1482.0, 1484.0, 1484.0, 1482.0, 1481.0, 1480.0, 1480.0, 1482.0, 1482.0, 1484.0, 1481.0, 1480.0, 1478.0, 1478.0, 1480.0, 1480.0, 1479.0, 1478.0, 1478.0, 1479.0, 1481.0, 1481.0, 1479.0, 1477.0, 1477.0, 1477.0, 1478.0, 1478.0, 1478.0, 1478.0, 1478.0, 1479.0, 1479.0, 1479.0, 1476.0, 1477.0, 1478.0, 1480.0, 1482.0, 1483.0, 1479.0, 1478.0, 1478.0, 1479.0, 1479.0, 1478.0, 1476.0, 1476.0, 1476.0, 1477.0, 1478.0, 1477.0, 1476.0, 1475.0, 1476.0, 1477.0, 1477.0, 1477.0, 1479.0, 1479.0, 1481.0, 1479.0, 1478.0, 1478.0, 1479.0, 1480.0, 1477.0, 1476.0, 1477.0, 1477.0, 1477.0, 1477.0, 1480.0, 1479.0, 1478.0, 1477.0, 1477.0, 1478.0, 1477.0, 1477.0, 1477.0, 1477.0, 1479.0, 1479.0, 1479.0, 1479.0, 1478.0, 1478.0, 1477.0, 1474.0, 1475.0, 1475.0, 1478.0, 1478.0, 1477.0, 1477.0, 1476.0, 1477.0, 1478.0, 1479.0, 1478.0, 1478.0, 1478.0, 1479.0, 1480.0, 1480.0, 1477.0, 1477.0, 1477.0, 1480.0, 1480.0, 1479.0, 1477.0, 1478.0, 1479.0, 1478.0, 1476.0, 1476.0, 1477.0, 1479.0, 1479.0]
    },
    "slices": {}
  }
}