{
  "AcquisitionMatrixPE": 72,
  "AcquisitionNumber": 1,
  "AcquisitionTime": "18:41:34.452500",
  "BandwidthPerPixelPhaseEncode": 17.943,
  "BaseResolution": 96,
  "BodyPartExamined": "BRAIN",
  "CoilCombinationMethod": "Sum of Squares",
  "ConsistencyInfo": "N4_VE11C_LATEST_20160120",
  "ConversionSoftware": "dcm2niix",
  "ConversionSoftwareVersion": "v1.0.20211006",
  "DerivedVendorReportedEchoSpacing": 0.000552897,
  "DeviceSerialNumber": "166011",
  "EchoTime": 0.03,
  "EchoTrainLength": 58,
  "EffectiveEchoSpacing": 0.000580542,
  "FlipAngle": 62,
  "ImageOrientationPatientDICOM": [0.999216, 0.00455664, 0.0393366, 0.00122078, 0.989341, -0.145612],
  "ImageType": [
    "ORIGINAL",
    "PRIMARY",
    "M",
    "ND",
    "MOSAIC"
],
  "ImagingFrequency": 123.26,
  "InPlanePhaseEncodingDirectionDICOM": "COL",
  "InstitutionAddress": "West 130th Street 610,NY,NYC,US,10025",
  "InstitutionName": "MBBI",
  "MRAcquisitionType": "2D",
  "MagneticFieldStrength": 3,
  "Manufacturer": "Siemens",
  "ManufacturersModelName": "Prisma",
  "Modality": "MR",
  "MultibandAccelerationFactor": 3,
  "PartialFourier": 0.75,
  "PatientPosition": "HFS",
  "PercentPhaseFOV": 100,
  "PercentSampling": 75,
  "PhaseEncodingDirection": "j-",
  "PhaseEncodingSteps": 58,
  "PhaseOversampling": 0.05,
  "PhaseResolution": 0.75,
  "PixelBandwidth": 2265,
  "ProcedureStepDescription": "White^Word_recognition",
  "ProtocolName": "func_vwfate_run5",
  "PulseSequenceDetails": "%SiemensSeq%\\ep2d_bold",
  "ReceiveCoilActiveElements": "HC1-7",
  "ReceiveCoilName": "HeadNeck_64",
  "ReconMatrixPE": 96,
  "RefLinesPE": 40,
  "RepetitionTime": 1.5,
  "SAR": 0.0572132,
  "ScanOptions": "PFP\\FS",
  "ScanningSequence": "EP",
  "SequenceName": "*epfid2d1_72",
  "SequenceVariant": "SK\\OSP",
  "SeriesDescription": "func_vwfate_run5",
  "SeriesNumber": 14,
  "ShimSetting": [-1127, -1349, 699, 524, -140, 46, 6, 28],
  "SliceThickness": 2,
  "SliceTiming": [1.0775, 0, 0.74, 0.0675, 0.8075, 0.135, 0.875, 0.2025, 0.9425, 0.27, 1.01, 0.405, 1.145, 0.4725, 1.2125, 0.54, 1.28, 0.605, 1.345, 0.6725, 1.4125, 0.3375, 1.0775, 0, 0.74, 0.0675, 0.8075, 0.135, 0.875, 0.2025, 0.9425, 0.27, 1.01, 0.405, 1.145, 0.4725, 1.2125, 0.54, 1.28, 0.605, 1.345, 0.6725, 1.4125, 0.3375, 1.0775, 0, 0.74, 0.0675, 0.8075, 0.135, 0.875, 0.2025, 0.9425, 0.27, 1.01, 0.405, 1.145, 0.4725, 1.2125, 0.54, 1.28, 0.605, 1.345, 0.6725, 1.4125, 0.3375],
  "SoftwareVersions": "syngo MR E11",
  "SpacingBetweenSlices": 2,
  "StationName": "AWP166011",
  "TaskName": "vwfate",
  "TotalReadoutTime": 0.0551515,
  "TxRefAmp": 245.155,
  "dcmmeta_affine": [
    [-1.9984312057495117, 0.002441560151055455, 0.07916167378425598, 92.8245620727539],
    [-0.009113289415836334, 1.9786819219589233, -0.29109227657318115, -66.77652740478516],
    [0.07867325097322464, 0.2912246584892273, 1.977118730545044, -77.42840576171875],
    [0.0, 0.0, 0.0, 1.0]
],
  "dcmmeta_reorient_transform": [
    [0.0, -1.0, 0.0, 95.0],
    [1.0, 0.0, 0.0, 0.0],
    [0.0, 0.0, 1.0, 0.0],
    [0.0, 0.0, 0.0, 1.0]
],
  "dcmmeta_shape": [96, 96, 66, 164],
  "dcmmeta_slice_dim": 2,
  "dcmmeta_version": 0.6,
  "global": {
    "const": {
      "AcquisitionMatrix": [96, 0, 0, 72],
      "AngioFlag": "N",
      "BitsAllocated": 16,
      "BitsStored": 12,
      "BodyPartExamined": "BRAIN",
      "Columns": 864,
      "EchoNumbers": 1,
      "EchoTime": 30.0,
      "EchoTrainLength": 58,
      "FlipAngle": 62.0,
      "HighBit": 11,
      "ImageOrientationPatient": [0.99921562580748, 0.00455664481858, 0.03933662581061, 0.00122078006952, 0.98934097136203, -0.1456123349186],
      "ImagePositionPatient": [-861.39166854453, -884.51162470011, 31.857681724495],
      "ImageType": [
        "ORIGINAL",
        "PRIMARY",
        "M",
        "ND",
        "MOSAIC"
],
      "ImagedNucleus": "1H",
      "ImagingFrequency": 123.259512,
      "InPlanePhaseEncodingDirection": "COL",
      "MRAcquisitionType": "2D",
      "MagneticFieldStrength": 3.0,
      "Manufacturer": "SIEMENS",
      "ManufacturerModelName": "Prisma",
      "Modality": "MR",
      "NumberOfAverages": 1.0,
      "NumberOfPhaseEncodingSteps": 58,
      "PercentPhaseFieldOfView": 100.0,
      "PercentSampling": 75.0,
      "PerformedProcedureStepStartTime": "174147.275000",
      "PhotometricInterpretation": "MONOCHROME2",
      "PixelBandwidth": 2265.0,
      "PixelRepresentation": 0,
      "PixelSpacing": [2.0, 2.0],
      "ProtocolName": "func_vwfate_run5",
      "RepetitionTime": 1500.0,
      "Rows": 864,
      "SAR": 0.05721324391868,
      "SamplesPerPixel": 1,
      "ScanOptions": [
        "PFP",
        "FS"
],
      "ScanningSequence": "EP",
      "SequenceName": "*epfid2d1_72",
      "SequenceVariant": [
        "SK",
        "OSP"
],
      "SeriesDescription": "func_vwfate_run5",
      "SeriesNumber": 14,
      "SeriesTime": "184213.292000",
      "SliceLocation": -63.149438522338,
      "SliceThickness": 2.0,
      "SmallestImagePixelValue": 0,
      "SoftwareVersions": "syngo MR E11",
      "SpacingBetweenSlices": 1.9999999523173,
      "SpecificCharacterSet": "ISO_IR 100",
      "StudyID": "1",
      "StudyTime": "174147.206000",
      "TransmitCoilName": "Body",
      "VariableFlipAngleFlag": "N",
      "WindowCenterWidthExplanation": "Algo1",
      "dBdt": 0.0},
    "slices": {}
  },
  "time": {
    "samples": {
      "AcquisitionNumber": [1, 2, 3, 4, 5, 6, 7, 8, 9, 10, 11, 12, 13, 14, 15, 16, 17, 18, 19, 20, 21, 22, 23, 24, 25, 26, 27, 28, 29, 30, 31, 32, 33, 34, 35, 36, 37, 38, 39, 40, 41, 42, 43, 44, 45, 46, 47, 48, 49, 50, 51, 52, 53, 54, 55, 56, 57, 58, 59, 60, 61, 62, 63, 64, 65, 66, 67, 68, 69, 70, 71, 72, 73, 74, 75, 76, 77, 78, 79, 80, 81, 82, 83, 84, 85, 86, 87, 88, 89, 90, 91, 92, 93, 94, 95, 96, 97, 98, 99, 100, 101, 102, 103, 104, 105, 106, 107, 108, 109, 110, 111, 112, 113, 114, 115, 116, 117, 118, 119, 120, 121, 122, 123, 124, 125, 126, 127, 128, 129, 130, 131, 132, 133, 134, 135, 136, 137, 138, 139, 140, 141, 142, 143, 144, 145, 146, 147, 148, 149, 150, 151, 152, 153, 154, 155, 156, 157, 158, 159, 160, 161, 162, 163, 164],
      "AcquisitionTime": ["184134.452500", "184135.952500", "184137.452500", "184138.952500", "184140.452500", "184141.952500", "184143.452500", "184144.952500", "184146.452500", "184147.952500", "184149.452500", "184150.952500", "184152.452500", "184153.952500", "184155.452500", "184156.952500", "184158.452500", "184159.952500", "184201.452500", "184202.952500", "184204.452500", "184205.952500", "184207.452500", "184208.952500", "184210.452500", "184211.952500", "184213.452500", "184214.952500", "184216.452500", "184217.952500", "184219.452500", "184220.952500", "184222.452500", "184223.952500", "184225.452500", "184226.952500", "184228.452500", "184229.952500", "184231.452500", "184232.952500", "184234.452500", "184235.952500", "184237.452500", "184238.952500", "184240.452500", "184241.952500", "184243.452500", "184244.952500", "184246.452500", "184247.952500", "184249.452500", "184250.952500", "184252.452500", "184253.952500", "184255.452500", "184256.952500", "184258.452500", "184259.952500", "184301.452500", "184302.952500", "184304.452500", "184305.952500", "184307.452500", "184308.952500", "184310.452500", "184311.952500", "184313.452500", "184314.952500", "184316.452500", "184317.952500", "184319.452500", "184320.952500", "184322.452500", "184323.952500", "184325.452500", "184326.952500", "184328.452500", "184329.952500", "184331.452500", "184332.952500", "184334.452500", "184335.952500", "184337.452500", "184338.952500", "184340.452500", "184341.952500", "184343.452500", "184344.952500", "184346.452500", "184347.952500", "184349.452500", "184350.952500", "184352.452500", "184353.952500", "184355.452500", "184356.952500", "184358.452500", "184359.952500", "184401.452500", "184402.952500", "184404.452500", "184405.952500", "184407.452500", "184408.952500", "184410.452500", "184411.952500", "184413.452500", "184414.952500", "184416.452500", "184417.952500", "184419.452500", "184420.952500", "184422.452500", "184423.952500", "184425.452500", "184426.952500", "184428.452500", "184429.952500", "184431.452500", "184432.952500", "184434.452500", "184435.952500", "184437.452500", "184438.952500", "184440.452500", "184441.952500", "184443.452500", "184444.952500", "184446.452500", "184447.952500", "184449.452500", "184450.952500", "184452.452500", "184453.952500", "184455.452500", "184456.952500", "184458.452500", "184459.952500", "184501.452500", "184502.952500", "184504.452500", "184505.952500", "184507.452500", "184508.952500", "184510.452500", "184511.952500", "184513.452500", "184514.952500", "184516.452500", "184517.952500", "184519.452500", "184520.952500", "184522.452500", "184523.952500", "184525.452500", "184526.952500", "184528.452500", "184529.952500", "184531.452500", "184532.952500", "184534.452500", "184535.952500", "184537.452500", "184538.952500"],
      "ContentTime": ["184213.296000", "184213.300000", "184213.303000", "184213.315000", "184213.318000", "184213.321000", "184213.325000", "184213.328000", "184213.331000", "184213.334000", "184213.337000", "184213.340000", "184213.343000", "184213.346000", "184213.350000", "184213.354000", "184213.364000", "184213.367000", "184213.370000", "184213.373000", "184213.376000", "184213.379000", "184213.382000", "184213.385000", "184213.388000", "184253.292000", "184253.295000", "184253.304000", "184253.307000", "184253.311000", "184253.314000", "184253.317000", "184253.320000", "184253.323000", "184253.326000", "184253.329000", "184253.332000", "184253.347000", "184253.350000", "184253.353000", "184253.356000", "184253.359000", "184253.362000", "184253.370000", "184253.373000", "184253.376000", "184253.379000", "184253.383000", "184253.386000", "184253.389000", "184253.392000", "184253.395000", "184333.292000", "184333.296000", "184333.299000", "184333.302000", "184333.305000", "184333.308000", "184333.311000", "184333.314000", "184333.317000", "184333.320000", "184333.323000", "184333.326000", "184333.329000", "184333.333000", "184333.336000", "184333.339000", "184333.342000", "184333.345000", "184333.348000", "184333.351000", "184333.354000", "184333.357000", "184333.360000", "184333.363000", "184333.366000", "184333.369000", "184333.372000", "184413.291000", "184413.294000", "184413.297000", "184413.300000", "184413.303000", "184413.306000", "184413.310000", "184413.313000", "184413.316000", "184413.319000", "184413.322000", "184413.325000", "184413.328000", "184413.331000", "184413.334000", "184413.337000", "184413.340000", "184413.343000", "184413.347000", "184413.350000", "184413.353000", "184413.356000", "184413.359000", "184413.362000", "184413.365000", "184413.368000", "184453.291000", "184453.294000", "184453.298000", "184453.301000", "184453.304000", "184453.307000", "184453.310000", "184453.313000", "184453.316000", "184453.319000", "184453.322000", "184453.325000", "184453.328000", "184453.331000", "184453.336000", "184453.339000", "184453.342000", "184453.345000", "184453.348000", "184453.351000", "184453.354000", "184453.357000", "184453.360000", "184453.363000", "184453.366000", "184453.370000", "184453.373000", "184533.292000", "184533.295000", "184533.299000", "184533.302000", "184533.305000", "184533.308000", "184533.311000", "184533.314000", "184533.317000", "184533.320000", "184533.323000", "184533.326000", "184533.329000", "184533.332000", "184533.335000", "184533.338000", "184533.341000", "184533.345000", "184533.348000", "184533.351000", "184533.354000", "184533.357000", "184533.360000", "184533.363000", "184533.366000", "184533.369000", "184533.372000", "184540.413000", "184540.416000", "184540.420000", "184540.423000", "184540.426000"],
      "InstanceCreationTime": ["184213.296000", "184213.300000", "184213.303000", "184213.315000", "184213.318000", "184213.321000", "184213.325000", "184213.328000", "184213.331000", "184213.334000", "184213.337000", "184213.340000", "184213.343000", "184213.346000", "184213.350000", "184213.354000", "184213.364000", "184213.367000", "184213.370000", "184213.373000", "184213.376000", "184213.379000", "184213.382000", "184213.385000", "184213.388000", "184253.292000", "184253.295000", "184253.304000", "184253.307000", "184253.311000", "184253.314000", "184253.317000", "184253.320000", "184253.323000", "184253.326000", "184253.329000", "184253.332000", "184253.347000", "184253.350000", "184253.353000", "184253.356000", "184253.359000", "184253.362000", "184253.370000", "184253.373000", "184253.376000", "184253.379000", "184253.383000", "184253.386000", "184253.389000", "184253.392000", "184253.395000", "184333.292000", "184333.296000", "184333.299000", "184333.302000", "184333.305000", "184333.308000", "184333.311000", "184333.314000", "184333.317000", "184333.320000", "184333.323000", "184333.326000", "184333.329000", "184333.333000", "184333.336000", "184333.339000", "184333.342000", "184333.345000", "184333.348000", "184333.351000", "184333.354000", "184333.357000", "184333.360000", "184333.363000", "184333.366000", "184333.369000", "184333.372000", "184413.291000", "184413.294000", "184413.297000", "184413.300000", "184413.303000", "184413.306000", "184413.310000", "184413.313000", "184413.316000", "184413.319000", "184413.322000", "184413.325000", "184413.328000", "184413.331000", "184413.334000", "184413.337000", "184413.340000", "184413.343000", "184413.347000", "184413.350000", "184413.353000", "184413.356000", "184413.359000", "184413.362000", "184413.365000", "184413.368000", "184453.291000", "184453.294000", "184453.298000", "184453.301000", "184453.304000", "184453.307000", "184453.310000", "184453.313000", "184453.316000", "184453.319000", "184453.322000", "184453.325000", "184453.328000", "184453.331000", "184453.336000", "184453.339000", "184453.342000", "184453.345000", "184453.348000", "184453.351000", "184453.354000", "184453.357000", "184453.360000", "184453.363000", "184453.366000", "184453.370000", "184453.373000", "184533.292000", "184533.295000", "184533.299000", "184533.302000", "184533.305000", "184533.308000", "184533.311000", "184533.314000", "184533.317000", "184533.320000", "184533.323000", "184533.326000", "184533.329000", "184533.332000", "184533.335000", "184533.338000", "184533.341000", "184533.345000", "184533.348000", "184533.351000", "184533.354000", "184533.357000", "184533.360000", "184533.363000", "184533.366000", "184533.369000", "184533.372000", "184540.413000", "184540.416000", "184540.420000", "184540.423000", "184540.426000"],
      "InstanceNumber": [1, 2, 3, 4, 5, 6, 7, 8, 9, 10, 11, 12, 13, 14, 15, 16, 17, 18, 19, 20, 21, 22, 23, 24, 25, 26, 27, 28, 29, 30, 31, 32, 33, 34, 35, 36, 37, 38, 39, 40, 41, 42, 43, 44, 45, 46, 47, 48, 49, 50, 51, 52, 53, 54, 55, 56, 57, 58, 59, 60, 61, 62, 63, 64, 65, 66, 67, 68, 69, 70, 71, 72, 73, 74, 75, 76, 77, 78, 79, 80, 81, 82, 83, 84, 85, 86, 87, 88, 89, 90, 91, 92, 93, 94, 95, 96, 97, 98, 99, 100, 101, 102, 103, 104, 105, 106, 107, 108, 109, 110, 111, 112, 113, 114, 115, 116, 117, 118, 119, 120, 121, 122, 123, 124, 125, 126, 127, 128, 129, 130, 131, 132, 133, 134, 135, 136, 137, 138, 139, 140, 141, 142, 143, 144, 145, 146, 147, 148, 149, 150, 151, 152, 153, 154, 155, 156, 157, 158, 159, 160, 161, 162, 163, 164],
      "LargestImagePixelValue": [2563, 2477, 2523, 2435, 2468, 2413, 2454, 2484, 2485, 2514, 2474, 2471, 2448, 2562, 2464, 2533, 2502, 2495, 2525, 2501, 2529, 2492, 2511, 2478, 2522, 2464, 2508, 2461, 2481, 2503, 2452, 2538, 2464, 2463, 2465, 2503, 2474, 2493, 2470, 2464, 2456, 2443, 2432, 2429, 2480, 2443, 2416, 2479, 2398, 2460, 2430, 2492, 2508, 2472, 2512, 2488, 2500, 2477, 2442, 2514, 2535, 2417, 2432, 2422, 2462, 2390, 2476, 2417, 2484, 2430, 2463, 2398, 2441, 2465, 2453, 2459, 2411, 2401, 2394, 2424, 2410, 2449, 2469, 2415, 2457, 2467, 2472, 2458, 2502, 2510, 2484, 2490, 2440, 2489, 2476, 2469, 2455, 2428, 2443, 2486, 2449, 2527, 2445, 2448, 2469, 2416, 2497, 2455, 2495, 2441, 2439, 2412, 2440, 2438, 2360, 2440, 2413, 2408, 2460, 2394, 2470, 2428, 2425, 2432, 2428, 2364, 2433, 2442, 2411, 2434, 2380, 2438, 2408, 2406, 2435, 2388, 2438, 2386, 2439, 2415, 2390, 2492, 2477, 2457, 2464, 2392, 2475, 2428, 2500, 2422, 2410, 2477, 2447, 2414, 2464, 2477, 2446, 2479, 2407, 2466, 2400, 2444, 2397, 2439],
      "WindowCenter": [700.0, 698.0, 697.0, 696.0, 695.0, 695.0, 695.0, 696.0, 696.0, 696.0, 695.0, 694.0, 694.0, 696.0, 695.0, 696.0, 694.0, 693.0, 693.0, 694.0, 694.0, 694.0, 695.0, 694.0, 693.0, 694.0, 694.0, 693.0, 693.0, 693.0, 693.0, 694.0, 694.0, 694.0, 694.0, 694.0, 694.0, 695.0, 694.0, 693.0, 693.0, 693.0, 694.0, 694.0, 695.0, 694.0, 694.0, 694.0, 693.0, 694.0, 693.0, 694.0, 694.0, 693.0, 693.0, 692.0, 692.0, 692.0, 693.0, 694.0, 695.0, 695.0, 692.0, 692.0, 693.0, 692.0, 693.0, 692.0, 693.0, 691.0, 690.0, 689.0, 689.0, 689.0, 691.0, 691.0, 692.0, 692.0, 692.0, 693.0, 692.0, 693.0, 694.0, 694.0, 694.0, 694.0, 695.0, 695.0, 696.0, 695.0, 694.0, 695.0, 694.0, 696.0, 697.0, 696.0, 696.0, 695.0, 696.0, 696.0, 695.0, 696.0, 695.0, 695.0, 695.0, 694.0, 695.0, 694.0, 695.0, 694.0, 695.0, 694.0, 694.0, 693.0, 692.0, 693.0, 693.0, 693.0, 693.0, 693.0, 694.0, 694.0, 693.0, 693.0, 692.0, 691.0, 691.0, 691.0, 691.0, 690.0, 690.0, 690.0, 690.0, 690.0, 690.0, 690.0, 692.0, 692.0, 693.0, 692.0, 691.0, 693.0, 693.0, 695.0, 695.0, 694.0, 695.0, 693.0, 694.0, 693.0, 693.0, 694.0, 693.0, 694.0, 694.0, 694.0, 694.0, 693.0, 692.0, 693.0, 694.0, 695.0, 694.0, 694.0],
      "WindowWidth": [1496.0, 1491.0, 1489.0, 1485.0, 1484.0, 1482.0, 1483.0, 1487.0, 1487.0, 1486.0, 1484.0, 1481.0, 1480.0, 1485.0, 1483.0, 1484.0, 1480.0, 1478.0, 1478.0, 1480.0, 1482.0, 1481.0, 1482.0, 1480.0, 1479.0, 1480.0, 1480.0, 1477.0, 1478.0, 1478.0, 1478.0, 1482.0, 1481.0, 1481.0, 1481.0, 1482.0, 1482.0, 1483.0, 1481.0, 1479.0, 1478.0, 1479.0, 1481.0, 1480.0, 1483.0, 1481.0, 1481.0, 1481.0, 1479.0, 1480.0, 1479.0, 1480.0, 1481.0, 1480.0, 1479.0, 1476.0, 1476.0, 1476.0, 1478.0, 1480.0, 1483.0, 1482.0, 1477.0, 1476.0, 1477.0, 1477.0, 1480.0, 1478.0, 1478.0, 1474.0, 1471.0, 1469.0, 1469.0, 1470.0, 1474.0, 1475.0, 1477.0, 1476.0, 1476.0, 1478.0, 1477.0, 1479.0, 1481.0, 1480.0, 1482.0, 1482.0, 1483.0, 1484.0, 1485.0, 1484.0, 1482.0, 1483.0, 1482.0, 1485.0, 1488.0, 1487.0, 1486.0, 1484.0, 1485.0, 1486.0, 1484.0, 1485.0, 1483.0, 1482.0, 1483.0, 1482.0, 1482.0, 1482.0, 1483.0, 1482.0, 1482.0, 1482.0, 1481.0, 1479.0, 1477.0, 1479.0, 1479.0, 1478.0, 1479.0, 1479.0, 1481.0, 1480.0, 1480.0, 1478.0, 1476.0, 1473.0, 1474.0, 1475.0, 1474.0, 1472.0, 1471.0, 1471.0, 1472.0, 1472.0, 1472.0, 1473.0, 1475.0, 1476.0, 1478.0, 1476.0, 1475.0, 1478.0, 1478.0, 1483.0, 1483.0, 1482.0, 1482.0, 1479.0, 1481.0, 1478.0, 1478.0, 1480.0, 1479.0, 1480.0, 1481.0, 1482.0, 1480.0, 1478.0, 1476.0, 1479.0, 1480.0, 1484.0, 1482.0, 1481.0]
    },
    "slices": {}
  }
}