{
  "AcquisitionMatrixPE": 72,
  "AcquisitionNumber": 1,
  "AcquisitionTime": "18:04:48.607500",
  "BandwidthPerPixelPhaseEncode": 17.943,
  "BaseResolution": 96,
  "BodyPartExamined": "BRAIN",
  "CoilCombinationMethod": "Sum of Squares",
  "ConsistencyInfo": "N4_VE11C_LATEST_20160120",
  "ConversionSoftware": "dcm2niix",
  "ConversionSoftwareVersion": "v1.0.20211006",
  "DerivedVendorReportedEchoSpacing": 0.000552897,
  "DeviceSerialNumber": "166011",
  "EchoTime": 0.03,
  "EchoTrainLength": 58,
  "EffectiveEchoSpacing": 0.000580542,
  "FlipAngle": 62,
  "ImageOrientationPatientDICOM": [0.998207, 0.0212985, -0.0559472, -0.0270107, 0.994271, -0.103416],
  "ImageType": [
    "ORIGINAL",
    "PRIMARY",
    "M",
    "ND",
    "MOSAIC"
],
  "ImagingFrequency": 123.259,
  "InPlanePhaseEncodingDirectionDICOM": "COL",
  "InstitutionAddress": "West 130th Street 610,NY,NYC,US,10025",
  "InstitutionName": "MBBI",
  "MRAcquisitionType": "2D",
  "MagneticFieldStrength": 3,
  "Manufacturer": "Siemens",
  "ManufacturersModelName": "Prisma",
  "Modality": "MR",
  "MultibandAccelerationFactor": 3,
  "PartialFourier": 0.75,
  "PatientPosition": "HFS",
  "PercentPhaseFOV": 100,
  "PercentSampling": 75,
  "PhaseEncodingDirection": "j-",
  "PhaseEncodingSteps": 58,
  "PhaseOversampling": 0.05,
  "PhaseResolution": 0.75,
  "PixelBandwidth": 2265,
  "ProcedureStepDescription": "White^Word_recognition",
  "ProtocolName": "func_catLoc_run3",
  "PulseSequenceDetails": "%SiemensSeq%\\ep2d_bold",
  "ReceiveCoilActiveElements": "HC1-7",
  "ReceiveCoilName": "HeadNeck_64",
  "ReconMatrixPE": 96,
  "RefLinesPE": 40,
  "RepetitionTime": 1.5,
  "SAR": 0.0514506,
  "ScanOptions": "PFP\\FS",
  "ScanningSequence": "EP",
  "SequenceName": "*epfid2d1_72",
  "SequenceVariant": "SK\\OSP",
  "SeriesDescription": "func_catLoc_run3",
  "SeriesNumber": 10,
  "ShimSetting": [-1157, -1368, 701, 654, -59, 103, -130, -39],
  "SliceThickness": 2,
  "SliceTiming": [1.075, 0, 0.74, 0.065, 0.805, 0.1325, 0.8725, 0.2, 0.94, 0.2675, 1.0075, 0.4025, 1.1425, 0.47, 1.21, 0.5375, 1.2775, 0.605, 1.345, 0.6725, 1.4125, 0.335, 1.075, 0, 0.74, 0.065, 0.805, 0.1325, 0.8725, 0.2, 0.94, 0.2675, 1.0075, 0.4025, 1.1425, 0.47, 1.21, 0.5375, 1.2775, 0.605, 1.345, 0.6725, 1.4125, 0.335, 1.075, 0, 0.74, 0.065, 0.805, 0.1325, 0.8725, 0.2, 0.94, 0.2675, 1.0075, 0.4025, 1.1425, 0.47, 1.21, 0.5375, 1.2775, 0.605, 1.345, 0.6725, 1.4125, 0.335],
  "SoftwareVersions": "syngo MR E11",
  "SpacingBetweenSlices": 2,
  "StationName": "AWP166011",
  "TaskName": "catLoc",
  "TotalReadoutTime": 0.0551515,
  "TxRefAmp": 209.133,
  "dcmmeta_affine": [
    [-1.9964131116867065, -0.05402142181992531, -0.10684828460216522, 105.07388305664062],
    [-0.04259692505002022, 1.9885427951812744, -0.20948255062103271, -67.01344299316406],
    [-0.11189446598291397, 0.20683114230632782, 1.9861270189285278, -52.65542984008789],
    [0.0, 0.0, 0.0, 1.0]
],
  "dcmmeta_reorient_transform": [
    [0.0, -1.0, 0.0, 95.0],
    [1.0, 0.0, 0.0, 0.0],
    [0.0, 0.0, 1.0, 0.0],
    [0.0, 0.0, 0.0, 1.0]
],
  "dcmmeta_shape": [96, 96, 66, 214],
  "dcmmeta_slice_dim": 2,
  "dcmmeta_version": 0.6,
  "global": {
    "const": {
      "AcquisitionMatrix": [96, 0, 0, 72],
      "AngioFlag": "N",
      "BitsAllocated": 16,
      "BitsStored": 12,
      "BodyPartExamined": "BRAIN",
      "Columns": 864,
      "EchoNumbers": 1,
      "EchoTime": 30.0,
      "EchoTrainLength": 58,
      "FlipAngle": 62.0,
      "HighBit": 11,
      "ImageOrientationPatient": [0.99820653295909, 0.02129846262214, -0.0559472344958, -0.0270107105277, 0.99427141224157, -0.103415570955],
      "ImagePositionPatient": [-845.82023947368, -901.85578946953, 89.384162243274],
      "ImageType": [
        "ORIGINAL",
        "PRIMARY",
        "M",
        "ND",
        "MOSAIC"
],
      "ImagedNucleus": "1H",
      "ImagingFrequency": 123.259441,
      "InPlanePhaseEncodingDirection": "COL",
      "MRAcquisitionType": "2D",
      "MagneticFieldStrength": 3.0,
      "Manufacturer": "SIEMENS",
      "ManufacturerModelName": "Prisma",
      "Modality": "MR",
      "NumberOfAverages": 1.0,
      "NumberOfPhaseEncodingSteps": 58,
      "PercentPhaseFieldOfView": 100.0,
      "PercentSampling": 75.0,
      "PerformedProcedureStepStartTime": "173414.696000",
      "PhotometricInterpretation": "MONOCHROME2",
      "PixelBandwidth": 2265.0,
      "PixelRepresentation": 0,
      "PixelSpacing": [2.0, 2.0],
      "ProtocolName": "func_catLoc_run3",
      "RepetitionTime": 1500.0,
      "Rows": 864,
      "SAR": 0.05145064426325,
      "SamplesPerPixel": 1,
      "ScanOptions": [
        "PFP",
        "FS"
],
      "ScanningSequence": "EP",
      "SequenceName": "*epfid2d1_72",
      "SequenceVariant": [
        "SK",
        "OSP"
],
      "SeriesDescription": "func_catLoc_run3",
      "SeriesNumber": 10,
      "SeriesTime": "180529.578000",
      "SliceLocation": -50.884595589763,
      "SliceThickness": 2.0,
      "SmallestImagePixelValue": 0,
      "SoftwareVersions": "syngo MR E11",
      "SpacingBetweenSlices": 1.9999999895615,
      "SpecificCharacterSet": "ISO_IR 100",
      "StudyID": "2",
      "StudyTime": "173414.657000",
      "TransmitCoilName": "Body",
      "VariableFlipAngleFlag": "N",
      "WindowCenterWidthExplanation": "Algo1",
      "dBdt": 0.0},
    "slices": {}
  },
  "time": {
    "samples": {
      "AcquisitionNumber": [1, 2, 3, 4, 5, 6, 7, 8, 9, 10, 11, 12, 13, 14, 15, 16, 17, 18, 19, 20, 21, 22, 23, 24, 25, 26, 27, 28, 29, 30, 31, 32, 33, 34, 35, 36, 37, 38, 39, 40, 41, 42, 43, 44, 45, 46, 47, 48, 49, 50, 51, 52, 53, 54, 55, 56, 57, 58, 59, 60, 61, 62, 63, 64, 65, 66, 67, 68, 69, 70, 71, 72, 73, 74, 75, 76, 77, 78, 79, 80, 81, 82, 83, 84, 85, 86, 87, 88, 89, 90, 91, 92, 93, 94, 95, 96, 97, 98, 99, 100, 101, 102, 103, 104, 105, 106, 107, 108, 109, 110, 111, 112, 113, 114, 115, 116, 117, 118, 119, 120, 121, 122, 123, 124, 125, 126, 127, 128, 129, 130, 131, 132, 133, 134, 135, 136, 137, 138, 139, 140, 141, 142, 143, 144, 145, 146, 147, 148, 149, 150, 151, 152, 153, 154, 155, 156, 157, 158, 159, 160, 161, 162, 163, 164, 165, 166, 167, 168, 169, 170, 171, 172, 173, 174, 175, 176, 177, 178, 179, 180, 181, 182, 183, 184, 185, 186, 187, 188, 189, 190, 191, 192, 193, 194, 195, 196, 197, 198, 199, 200, 201, 202, 203, 204, 205, 206, 207, 208, 209, 210, 211, 212, 213, 214],
      "AcquisitionTime": ["180448.607500", "180450.107500", "180451.607500", "180453.107500", "180454.607500", "180456.107500", "180457.607500", "180459.107500", "180500.607500", "180502.107500", "180503.607500", "180505.107500", "180506.607500", "180508.107500", "180509.607500", "180511.107500", "180512.607500", "180514.107500", "180515.607500", "180517.107500", "180518.607500", "180520.107500", "180521.607500", "180523.107500", "180524.607500", "180526.107500", "180527.607500", "180529.107500", "180530.607500", "180532.107500", "180533.607500", "180535.107500", "180536.607500", "180538.107500", "180539.607500", "180541.107500", "180542.607500", "180544.107500", "180545.607500", "180547.107500", "180548.607500", "180550.107500", "180551.607500", "180553.107500", "180554.607500", "180556.107500", "180557.607500", "180559.107500", "180600.607500", "180602.107500", "180603.607500", "180605.107500", "180606.607500", "180608.107500", "180609.607500", "180611.107500", "180612.607500", "180614.107500", "180615.607500", "180617.107500", "180618.607500", "180620.107500", "180621.607500", "180623.107500", "180624.607500", "180626.107500", "180627.607500", "180629.107500", "180630.607500", "180632.107500", "180633.607500", "180635.107500", "180636.607500", "180638.107500", "180639.607500", "180641.107500", "180642.607500", "180644.107500", "180645.607500", "180647.107500", "180648.607500", "180650.107500", "180651.607500", "180653.107500", "180654.607500", "180656.107500", "180657.607500", "180659.107500", "180700.607500", "180702.107500", "180703.607500", "180705.107500", "180706.607500", "180708.107500", "180709.607500", "180711.107500", "180712.607500", "180714.107500", "180715.607500", "180717.107500", "180718.607500", "180720.107500", "180721.607500", "180723.107500", "180724.607500", "180726.107500", "180727.607500", "180729.107500", "180730.607500", "180732.107500", "180733.607500", "180735.107500", "180736.607500", "180738.107500", "180739.607500", "180741.107500", "180742.607500", "180744.107500", "180745.607500", "180747.107500", "180748.607500", "180750.107500", "180751.607500", "180753.107500", "180754.607500", "180756.107500", "180757.607500", "180759.107500", "180800.607500", "180802.107500", "180803.607500", "180805.107500", "180806.607500", "180808.107500", "180809.607500", "180811.107500", "180812.607500", "180814.107500", "180815.607500", "180817.107500", "180818.607500", "180820.107500", "180821.607500", "180823.107500", "180824.607500", "180826.107500", "180827.607500", "180829.107500", "180830.607500", "180832.107500", "180833.607500", "180835.107500", "180836.607500", "180838.107500", "180839.607500", "180841.107500", "180842.607500", "180844.107500", "180845.607500", "180847.107500", "180848.607500", "180850.107500", "180851.607500", "180853.107500", "180854.607500", "180856.107500", "180857.607500", "180859.107500", "180900.607500", "180902.107500", "180903.607500", "180905.107500", "180906.607500", "180908.107500", "180909.607500", "180911.107500", "180912.607500", "180914.107500", "180915.607500", "180917.107500", "180918.607500", "180920.107500", "180921.607500", "180923.107500", "180924.607500", "180926.107500", "180927.607500", "180929.107500", "180930.607500", "180932.107500", "180933.607500", "180935.107500", "180936.607500", "180938.107500", "180939.607500", "180941.107500", "180942.607500", "180944.107500", "180945.607500", "180947.107500", "180948.607500", "180950.107500", "180951.607500", "180953.107500", "180954.607500", "180956.107500", "180957.607500", "180959.107500", "181000.607500", "181002.107500", "181003.607500", "181005.107500", "181006.607500", "181008.107500"],
      "ContentTime": ["180529.582000", "180529.600000", "180529.604000", "180529.607000", "180529.612000", "180529.618000", "180529.621000", "180529.624000", "180529.627000", "180529.630000", "180529.633000", "180529.636000", "180529.639000", "180529.642000", "180529.645000", "180529.648000", "180529.651000", "180529.654000", "180529.657000", "180529.660000", "180529.663000", "180529.666000", "180529.670000", "180529.672000", "180529.676000", "180529.678000", "180529.682000", "180609.578000", "180609.581000", "180609.584000", "180609.587000", "180609.591000", "180609.594000", "180609.596000", "180609.599000", "180609.603000", "180609.605000", "180609.608000", "180609.611000", "180609.615000", "180609.618000", "180609.621000", "180609.625000", "180609.629000", "180609.632000", "180609.634000", "180609.637000", "180609.641000", "180609.644000", "180609.647000", "180609.650000", "180609.653000", "180609.656000", "180649.577000", "180649.580000", "180649.583000", "180649.586000", "180649.589000", "180649.592000", "180649.595000", "180649.598000", "180649.601000", "180649.604000", "180649.608000", "180649.610000", "180649.613000", "180649.616000", "180649.620000", "180649.623000", "180649.626000", "180649.628000", "180649.632000", "180649.635000", "180649.638000", "180649.641000", "180649.644000", "180649.647000", "180649.650000", "180649.652000", "180649.656000", "180729.577000", "180729.580000", "180729.583000", "180729.587000", "180729.590000", "180729.593000", "180729.596000", "180729.599000", "180729.602000", "180729.605000", "180729.608000", "180729.611000", "180729.614000", "180729.617000", "180729.621000", "180729.624000", "180729.626000", "180729.630000", "180729.633000", "180729.636000", "180729.639000", "180729.642000", "180729.645000", "180729.648000", "180729.651000", "180729.654000", "180729.657000", "180809.577000", "180809.580000", "180809.583000", "180809.586000", "180809.590000", "180809.593000", "180809.596000", "180809.599000", "180809.602000", "180809.605000", "180809.608000", "180809.611000", "180809.614000", "180809.617000", "180809.620000", "180809.623000", "180809.626000", "180809.629000", "180809.632000", "180809.635000", "180809.638000", "180809.641000", "180809.644000", "180809.647000", "180809.650000", "180809.653000", "180809.656000", "180849.577000", "180849.580000", "180849.583000", "180849.602000", "180849.605000", "180849.608000", "180849.611000", "180849.614000", "180849.617000", "180849.620000", "180849.623000", "180849.626000", "180849.629000", "180849.632000", "180849.635000", "180849.638000", "180849.641000", "180849.645000", "180849.648000", "180849.651000", "180849.653000", "180849.657000", "180849.660000", "180849.663000", "180849.665000", "180849.669000", "180929.577000", "180929.580000", "180929.583000", "180929.586000", "180929.589000", "180929.593000", "180929.595000", "180929.598000", "180929.601000", "180929.605000", "180929.608000", "180929.611000", "180929.614000", "180929.617000", "180929.620000", "180929.623000", "180929.626000", "180929.629000", "180929.632000", "180929.635000", "180929.638000", "180929.641000", "180929.644000", "180929.657000", "180929.660000", "180929.663000", "180929.666000", "181009.534000", "181009.538000", "181009.541000", "181009.544000", "181009.547000", "181009.550000", "181009.553000", "181009.557000", "181009.560000", "181009.563000", "181009.566000", "181009.569000", "181009.573000", "181009.577000", "181009.580000", "181009.583000", "181009.587000", "181009.590000", "181009.593000", "181009.596000", "181009.600000", "181009.603000", "181009.606000", "181009.609000", "181009.612000", "181009.616000", "181009.619000"],
      "InstanceCreationTime": ["180529.582000", "180529.600000", "180529.604000", "180529.607000", "180529.612000", "180529.618000", "180529.621000", "180529.624000", "180529.627000", "180529.630000", "180529.633000", "180529.636000", "180529.639000", "180529.642000", "180529.645000", "180529.648000", "180529.651000", "180529.654000", "180529.657000", "180529.660000", "180529.663000", "180529.666000", "180529.670000", "180529.672000", "180529.676000", "180529.678000", "180529.682000", "180609.578000", "180609.581000", "180609.584000", "180609.587000", "180609.591000", "180609.594000", "180609.596000", "180609.599000", "180609.603000", "180609.605000", "180609.608000", "180609.611000", "180609.615000", "180609.618000", "180609.621000", "180609.625000", "180609.629000", "180609.632000", "180609.634000", "180609.637000", "180609.641000", "180609.644000", "180609.647000", "180609.650000", "180609.653000", "180609.656000", "180649.577000", "180649.580000", "180649.583000", "180649.586000", "180649.589000", "180649.592000", "180649.595000", "180649.598000", "180649.601000", "180649.604000", "180649.608000", "180649.610000", "180649.613000", "180649.616000", "180649.620000", "180649.623000", "180649.626000", "180649.628000", "180649.632000", "180649.635000", "180649.638000", "180649.641000", "180649.644000", "180649.647000", "180649.650000", "180649.652000", "180649.656000", "180729.577000", "180729.580000", "180729.583000", "180729.587000", "180729.590000", "180729.593000", "180729.596000", "180729.599000", "180729.602000", "180729.605000", "180729.608000", "180729.611000", "180729.614000", "180729.617000", "180729.621000", "180729.624000", "180729.626000", "180729.630000", "180729.633000", "180729.636000", "180729.639000", "180729.642000", "180729.645000", "180729.648000", "180729.651000", "180729.654000", "180729.657000", "180809.577000", "180809.580000", "180809.583000", "180809.586000", "180809.590000", "180809.593000", "180809.596000", "180809.599000", "180809.602000", "180809.605000", "180809.608000", "180809.611000", "180809.614000", "180809.617000", "180809.620000", "180809.623000", "180809.626000", "180809.629000", "180809.632000", "180809.635000", "180809.638000", "180809.641000", "180809.644000", "180809.647000", "180809.650000", "180809.653000", "180809.656000", "180849.577000", "180849.580000", "180849.583000", "180849.602000", "180849.605000", "180849.608000", "180849.611000", "180849.614000", "180849.617000", "180849.620000", "180849.623000", "180849.626000", "180849.629000", "180849.632000", "180849.635000", "180849.638000", "180849.641000", "180849.645000", "180849.648000", "180849.651000", "180849.653000", "180849.657000", "180849.660000", "180849.663000", "180849.665000", "180849.669000", "180929.577000", "180929.580000", "180929.583000", "180929.586000", "180929.589000", "180929.593000", "180929.595000", "180929.598000", "180929.601000", "180929.605000", "180929.608000", "180929.611000", "180929.614000", "180929.617000", "180929.620000", "180929.623000", "180929.626000", "180929.629000", "180929.632000", "180929.635000", "180929.638000", "180929.641000", "180929.644000", "180929.657000", "180929.660000", "180929.663000", "180929.666000", "181009.534000", "181009.538000", "181009.541000", "181009.544000", "181009.547000", "181009.550000", "181009.553000", "181009.557000", "181009.560000", "181009.563000", "181009.566000", "181009.569000", "181009.573000", "181009.577000", "181009.580000", "181009.583000", "181009.587000", "181009.590000", "181009.593000", "181009.596000", "181009.600000", "181009.603000", "181009.606000", "181009.609000", "181009.612000", "181009.616000", "181009.619000"],
      "InstanceNumber": [1, 2, 3, 4, 5, 6, 7, 8, 9, 10, 11, 12, 13, 14, 15, 16, 17, 18, 19, 20, 21, 22, 23, 24, 25, 26, 27, 28, 29, 30, 31, 32, 33, 34, 35, 36, 37, 38, 39, 40, 41, 42, 43, 44, 45, 46, 47, 48, 49, 50, 51, 52, 53, 54, 55, 56, 57, 58, 59, 60, 61, 62, 63, 64, 65, 66, 67, 68, 69, 70, 71, 72, 73, 74, 75, 76, 77, 78, 79, 80, 81, 82, 83, 84, 85, 86, 87, 88, 89, 90, 91, 92, 93, 94, 95, 96, 97, 98, 99, 100, 101, 102, 103, 104, 105, 106, 107, 108, 109, 110, 111, 112, 113, 114, 115, 116, 117, 118, 119, 120, 121, 122, 123, 124, 125, 126, 127, 128, 129, 130, 131, 132, 133, 134, 135, 136, 137, 138, 139, 140, 141, 142, 143, 144, 145, 146, 147, 148, 149, 150, 151, 152, 153, 154, 155, 156, 157, 158, 159, 160, 161, 162, 163, 164, 165, 166, 167, 168, 169, 170, 171, 172, 173, 174, 175, 176, 177, 178, 179, 180, 181, 182, 183, 184, 185, 186, 187, 188, 189, 190, 191, 192, 193, 194, 195, 196, 197, 198, 199, 200, 201, 202, 203, 204, 205, 206, 207, 208, 209, 210, 211, 212, 213, 214],
      "LargestImagePixelValue": [2274, 2233, 2259, 2233, 2237, 2233, 2197, 2172, 2162, 2195, 2208, 2231, 2268, 2191, 2208, 2218, 2192, 2216, 2215, 2229, 2190, 2197, 2258, 2203, 2204, 2143, 2180, 2212, 2187, 2188, 2159, 2254, 2194, 2180, 2195, 2191, 2248, 2174, 2189, 2159, 2224, 2293, 2298, 2298, 2266, 2253, 2235, 2283, 2300, 2303, 2247, 2216, 2207, 2183, 2171, 2214, 2191, 2191, 2178, 2186, 2198, 2125, 2150, 2187, 2201, 2160, 2146, 2132, 2163, 2151, 2126, 2158, 2194, 2195, 2174, 2236, 2169, 2207, 2246, 2265, 2172, 2152, 2183, 2236, 2189, 2117, 2104, 2092, 2101, 2103, 2145, 2191, 2221, 2167, 2164, 2124, 2179, 2147, 2212, 2210, 2272, 2225, 2268, 2250, 2329, 2292, 2263, 2174, 2153, 2155, 2148, 2215, 2125, 2226, 2109, 2123, 2141, 2142, 2159, 2170, 2156, 2145, 2147, 2154, 2176, 2184, 2175, 2159, 2157, 2203, 2209, 2170, 2200, 2200, 2236, 2183, 2202, 2223, 2210, 2195, 2263, 2231, 2247, 2185, 2218, 2255, 2228, 2187, 2186, 2231, 2194, 2259, 2232, 2215, 2182, 2170, 2179, 2169, 2166, 2186, 2172, 2174, 2167, 2191, 2177, 2176, 2162, 2190, 2176, 2142, 2169, 2173, 2192, 2205, 2227, 2216, 2235, 2193, 2230, 2236, 2244, 2149, 2122, 2178, 2190, 2121, 2208, 2174, 2169, 2178, 2184, 2187, 2202, 2154, 2150, 2160, 2163, 2178, 2181, 2212, 2211, 2266, 2223, 2224, 2249, 2213, 2233, 2254, 2255, 2204, 2223, 2208, 2206, 2215],
      "WindowCenter": [713.0, 711.0, 712.0, 711.0, 711.0, 712.0, 711.0, 711.0, 711.0, 711.0, 711.0, 712.0, 712.0, 711.0, 711.0, 711.0, 711.0, 711.0, 711.0, 711.0, 711.0, 711.0, 712.0, 712.0, 711.0, 711.0, 711.0, 711.0, 710.0, 711.0, 711.0, 712.0, 711.0, 710.0, 710.0, 710.0, 711.0, 711.0, 710.0, 710.0, 711.0, 713.0, 714.0, 713.0, 713.0, 712.0, 712.0, 713.0, 713.0, 712.0, 711.0, 711.0, 711.0, 711.0, 711.0, 711.0, 710.0, 710.0, 711.0, 711.0, 711.0, 710.0, 711.0, 710.0, 710.0, 709.0, 709.0, 709.0, 709.0, 710.0, 709.0, 710.0, 710.0, 710.0, 710.0, 711.0, 710.0, 711.0, 712.0, 713.0, 711.0, 710.0, 710.0, 712.0, 712.0, 711.0, 711.0, 709.0, 707.0, 708.0, 710.0, 711.0, 711.0, 710.0, 710.0, 710.0, 711.0, 711.0, 712.0, 712.0, 713.0, 713.0, 714.0, 714.0, 715.0, 714.0, 713.0, 711.0, 711.0, 711.0, 711.0, 711.0, 710.0, 711.0, 709.0, 710.0, 710.0, 710.0, 710.0, 710.0, 710.0, 710.0, 710.0, 711.0, 711.0, 711.0, 711.0, 710.0, 710.0, 711.0, 711.0, 711.0, 711.0, 711.0, 711.0, 711.0, 711.0, 712.0, 712.0, 713.0, 713.0, 713.0, 712.0, 712.0, 712.0, 712.0, 711.0, 710.0, 711.0, 712.0, 712.0, 713.0, 712.0, 712.0, 711.0, 711.0, 711.0, 711.0, 710.0, 710.0, 709.0, 709.0, 708.0, 709.0, 708.0, 709.0, 709.0, 710.0, 710.0, 709.0, 709.0, 710.0, 711.0, 711.0, 711.0, 711.0, 711.0, 711.0, 713.0, 713.0, 712.0, 711.0, 711.0, 711.0, 710.0, 709.0, 710.0, 709.0, 708.0, 708.0, 708.0, 708.0, 709.0, 708.0, 708.0, 708.0, 709.0, 709.0, 709.0, 711.0, 712.0, 713.0, 713.0, 712.0, 712.0, 712.0, 712.0, 713.0, 712.0, 712.0, 712.0, 711.0, 711.0, 711.0],
      "WindowWidth": [1537.0, 1533.0, 1533.0, 1532.0, 1532.0, 1533.0, 1532.0, 1530.0, 1530.0, 1532.0, 1533.0, 1534.0, 1534.0, 1532.0, 1531.0, 1532.0, 1531.0, 1532.0, 1531.0, 1530.0, 1531.0, 1532.0, 1533.0, 1533.0, 1533.0, 1530.0, 1531.0, 1530.0, 1530.0, 1532.0, 1532.0, 1533.0, 1532.0, 1528.0, 1528.0, 1529.0, 1531.0, 1530.0, 1530.0, 1528.0, 1531.0, 1537.0, 1540.0, 1537.0, 1536.0, 1535.0, 1535.0, 1536.0, 1536.0, 1535.0, 1533.0, 1533.0, 1531.0, 1531.0, 1531.0, 1532.0, 1530.0, 1530.0, 1530.0, 1531.0, 1531.0, 1530.0, 1530.0, 1529.0, 1530.0, 1527.0, 1525.0, 1526.0, 1527.0, 1529.0, 1528.0, 1529.0, 1529.0, 1529.0, 1530.0, 1530.0, 1530.0, 1531.0, 1534.0, 1536.0, 1532.0, 1528.0, 1530.0, 1534.0, 1535.0, 1533.0, 1532.0, 1525.0, 1522.0, 1524.0, 1528.0, 1532.0, 1531.0, 1529.0, 1529.0, 1529.0, 1531.0, 1531.0, 1534.0, 1535.0, 1537.0, 1536.0, 1538.0, 1540.0, 1542.0, 1540.0, 1537.0, 1531.0, 1530.0, 1531.0, 1531.0, 1532.0, 1530.0, 1531.0, 1527.0, 1528.0, 1529.0, 1530.0, 1530.0, 1530.0, 1529.0, 1529.0, 1529.0, 1531.0, 1532.0, 1532.0, 1531.0, 1529.0, 1529.0, 1531.0, 1531.0, 1531.0, 1531.0, 1531.0, 1532.0, 1531.0, 1532.0, 1534.0, 1535.0, 1537.0, 1538.0, 1537.0, 1535.0, 1534.0, 1536.0, 1535.0, 1532.0, 1530.0, 1532.0, 1535.0, 1536.0, 1536.0, 1535.0, 1534.0, 1532.0, 1531.0, 1530.0, 1530.0, 1528.0, 1528.0, 1527.0, 1526.0, 1525.0, 1525.0, 1525.0, 1526.0, 1527.0, 1528.0, 1528.0, 1528.0, 1528.0, 1530.0, 1531.0, 1531.0, 1531.0, 1531.0, 1532.0, 1532.0, 1536.0, 1537.0, 1535.0, 1532.0, 1530.0, 1532.0, 1529.0, 1527.0, 1528.0, 1527.0, 1524.0, 1524.0, 1523.0, 1524.0, 1525.0, 1524.0, 1524.0, 1525.0, 1526.0, 1526.0, 1527.0, 1531.0, 1535.0, 1536.0, 1536.0, 1535.0, 1535.0, 1534.0, 1535.0, 1536.0, 1535.0, 1533.0, 1534.0, 1532.0, 1532.0, 1533.0]
    },
    "slices": {}
  }
}