{
  "AcquisitionMatrixPE": 72,
  "AcquisitionNumber": 1,
  "AcquisitionTime": "19:01:39.545000",
  "BandwidthPerPixelPhaseEncode": 17.943,
  "BaseResolution": 96,
  "BodyPartExamined": "BRAIN",
  "CoilCombinationMethod": "Sum of Squares",
  "ConsistencyInfo": "N4_VE11C_LATEST_20160120",
  "ConversionSoftware": "dcm2niix",
  "ConversionSoftwareVersion": "v1.0.20211006",
  "DerivedVendorReportedEchoSpacing": 0.000552897,
  "DeviceSerialNumber": "166011",
  "EchoTime": 0.03,
  "EchoTrainLength": 58,
  "EffectiveEchoSpacing": 0.000580542,
  "FlipAngle": 62,
  "ImageOrientationPatientDICOM": [0.997791, -0.028044, 0.0602262, 0.0351923, 0.992014, -0.121119],
  "ImageType": [
    "ORIGINAL",
    "PRIMARY",
    "M",
    "ND",
    "MOSAIC"
],
  "ImagingFrequency": 123.259,
  "InPlanePhaseEncodingDirectionDICOM": "COL",
  "InstitutionAddress": "West 130th Street 610,NY,NYC,US,10025",
  "InstitutionName": "MBBI",
  "MRAcquisitionType": "2D",
  "MagneticFieldStrength": 3,
  "Manufacturer": "Siemens",
  "ManufacturersModelName": "Prisma",
  "Modality": "MR",
  "MultibandAccelerationFactor": 3,
  "PartialFourier": 0.75,
  "PatientPosition": "HFS",
  "PercentPhaseFOV": 100,
  "PercentSampling": 75,
  "PhaseEncodingDirection": "j-",
  "PhaseEncodingSteps": 58,
  "PhaseOversampling": 0.05,
  "PhaseResolution": 0.75,
  "PixelBandwidth": 2265,
  "ProcedureStepDescription": "White^Word_recognition",
  "ProtocolName": "func_vwfate_run5",
  "PulseSequenceDetails": "%SiemensSeq%\\ep2d_bold",
  "ReceiveCoilActiveElements": "HC1-7",
  "ReceiveCoilName": "HeadNeck_64",
  "ReconMatrixPE": 96,
  "RefLinesPE": 40,
  "RepetitionTime": 1.5,
  "SAR": 0.0474231,
  "ScanOptions": "PFP\\FS",
  "ScanningSequence": "EP",
  "SequenceName": "*epfid2d1_72",
  "SequenceVariant": "SK\\OSP",
  "SeriesDescription": "func_vwfate_run5",
  "SeriesNumber": 14,
  "ShimSetting": [-1131, -1351, 692, 538, -55, 97, -18, -9],
  "SliceThickness": 2,
  "SliceTiming": [1.0775, 0, 0.74, 0.0675, 0.8075, 0.135, 0.875, 0.2025, 0.9425, 0.27, 1.01, 0.4025, 1.1425, 0.47, 1.21, 0.5375, 1.2775, 0.605, 1.345, 0.6725, 1.4125, 0.3375, 1.0775, 0, 0.74, 0.0675, 0.8075, 0.135, 0.875, 0.2025, 0.9425, 0.27, 1.01, 0.4025, 1.1425, 0.47, 1.21, 0.5375, 1.2775, 0.605, 1.345, 0.6725, 1.4125, 0.3375, 1.0775, 0, 0.74, 0.0675, 0.8075, 0.135, 0.875, 0.2025, 0.9425, 0.27, 1.01, 0.4025, 1.1425, 0.47, 1.21, 0.5375, 1.2775, 0.605, 1.345, 0.6725, 1.4125, 0.3375],
  "SoftwareVersions": "syngo MR E11",
  "SpacingBetweenSlices": 2,
  "StationName": "AWP166011",
  "TaskName": "vwfate",
  "TotalReadoutTime": 0.0551515,
  "TxRefAmp": 228.376,
  "dcmmeta_affine": [
    [-1.9955815076828003, 0.07038458436727524, 0.112697072327137, 92.5066909790039],
    [0.056087903678417206, 1.9840278625488281, -0.24594242870807648, -72.6191635131836],
    [0.12045234441757202, 0.2422386109828949, 1.9816184043884277, -88.25450897216797],
    [0.0, 0.0, 0.0, 1.0]
],
  "dcmmeta_reorient_transform": [
    [0.0, -1.0, 0.0, 95.0],
    [1.0, 0.0, 0.0, 0.0],
    [0.0, 0.0, 1.0, 0.0],
    [0.0, 0.0, 0.0, 1.0]
],
  "dcmmeta_shape": [96, 96, 66, 164],
  "dcmmeta_slice_dim": 2,
  "dcmmeta_version": 0.6,
  "global": {
    "const": {
      "AcquisitionMatrix": [96, 0, 0, 72],
      "AngioFlag": "N",
      "BitsAllocated": 16,
      "BitsStored": 12,
      "BodyPartExamined": "BRAIN",
      "Columns": 864,
      "EchoNumbers": 1,
      "EchoTime": 30.0,
      "EchoTrainLength": 58,
      "FlipAngle": 62.0,
      "HighBit": 11,
      "ImageOrientationPatient": [0.99779073205804, -0.0280439511388, 0.0602261722477, 0.03519229116502, 0.99201391966704, -0.1211193041153],
      "ImagePositionPatient": [-892.52419153629, -856.19241570817, -18.475919515575],
      "ImageType": [
        "ORIGINAL",
        "PRIMARY",
        "M",
        "ND",
        "MOSAIC"
],
      "ImagedNucleus": "1H",
      "ImagingFrequency": 123.259435,
      "InPlanePhaseEncodingDirection": "COL",
      "MRAcquisitionType": "2D",
      "MagneticFieldStrength": 3.0,
      "Manufacturer": "SIEMENS",
      "ManufacturerModelName": "Prisma",
      "Modality": "MR",
      "NumberOfAverages": 1.0,
      "NumberOfPhaseEncodingSteps": 58,
      "PercentPhaseFieldOfView": 100.0,
      "PercentSampling": 75.0,
      "PerformedProcedureStepStartTime": "180711.868000",
      "PhotometricInterpretation": "MONOCHROME2",
      "PixelBandwidth": 2265.0,
      "PixelRepresentation": 0,
      "PixelSpacing": [2.0, 2.0],
      "ProtocolName": "func_vwfate_run5",
      "RepetitionTime": 1500.0,
      "Rows": 864,
      "SAR": 0.04742311922172,
      "SamplesPerPixel": 1,
      "ScanOptions": [
        "PFP",
        "FS"
],
      "ScanningSequence": "EP",
      "SequenceName": "*epfid2d1_72",
      "SequenceVariant": [
        "SK",
        "OSP"
],
      "SeriesDescription": "func_vwfate_run5",
      "SeriesNumber": 14,
      "SeriesTime": "190144.655000",
      "SliceLocation": -73.300701354264,
      "SliceThickness": 2.0,
      "SmallestImagePixelValue": 0,
      "SoftwareVersions": "syngo MR E11",
      "SpacingBetweenSlices": 1.9999999887751,
      "SpecificCharacterSet": "ISO_IR 100",
      "StudyID": "2",
      "StudyTime": "180711.816000",
      "TransmitCoilName": "Body",
      "VariableFlipAngleFlag": "N",
      "WindowCenterWidthExplanation": "Algo1",
      "dBdt": 0.0},
    "slices": {}
  },
  "time": {
    "samples": {
      "AcquisitionNumber": [1, 2, 3, 4, 5, 6, 7, 8, 9, 10, 11, 12, 13, 14, 15, 16, 17, 18, 19, 20, 21, 22, 23, 24, 25, 26, 27, 28, 29, 30, 31, 32, 33, 34, 35, 36, 37, 38, 39, 40, 41, 42, 43, 44, 45, 46, 47, 48, 49, 50, 51, 52, 53, 54, 55, 56, 57, 58, 59, 60, 61, 62, 63, 64, 65, 66, 67, 68, 69, 70, 71, 72, 73, 74, 75, 76, 77, 78, 79, 80, 81, 82, 83, 84, 85, 86, 87, 88, 89, 90, 91, 92, 93, 94, 95, 96, 97, 98, 99, 100, 101, 102, 103, 104, 105, 106, 107, 108, 109, 110, 111, 112, 113, 114, 115, 116, 117, 118, 119, 120, 121, 122, 123, 124, 125, 126, 127, 128, 129, 130, 131, 132, 133, 134, 135, 136, 137, 138, 139, 140, 141, 142, 143, 144, 145, 146, 147, 148, 149, 150, 151, 152, 153, 154, 155, 156, 157, 158, 159, 160, 161, 162, 163, 164],
      "AcquisitionTime": ["190139.545000", "190141.045000", "190142.545000", "190144.045000", "190145.545000", "190147.045000", "190148.545000", "190150.045000", "190151.545000", "190153.045000", "190154.545000", "190156.045000", "190157.545000", "190159.045000", "190200.545000", "190202.045000", "190203.545000", "190205.045000", "190206.545000", "190208.045000", "190209.545000", "190211.045000", "190212.545000", "190214.045000", "190215.545000", "190217.045000", "190218.545000", "190220.045000", "190221.545000", "190223.045000", "190224.545000", "190226.045000", "190227.545000", "190229.045000", "190230.545000", "190232.045000", "190233.545000", "190235.045000", "190236.545000", "190238.045000", "190239.545000", "190241.045000", "190242.545000", "190244.045000", "190245.545000", "190247.045000", "190248.545000", "190250.045000", "190251.545000", "190253.045000", "190254.545000", "190256.045000", "190257.545000", "190259.045000", "190300.545000", "190302.045000", "190303.545000", "190305.045000", "190306.545000", "190308.045000", "190309.545000", "190311.045000", "190312.545000", "190314.045000", "190315.545000", "190317.045000", "190318.545000", "190320.045000", "190321.545000", "190323.045000", "190324.545000", "190326.045000", "190327.545000", "190329.045000", "190330.545000", "190332.045000", "190333.545000", "190335.045000", "190336.545000", "190338.045000", "190339.545000", "190341.045000", "190342.545000", "190344.045000", "190345.545000", "190347.045000", "190348.545000", "190350.045000", "190351.545000", "190353.045000", "190354.545000", "190356.045000", "190357.545000", "190359.045000", "190400.545000", "190402.045000", "190403.545000", "190405.045000", "190406.545000", "190408.045000", "190409.545000", "190411.045000", "190412.545000", "190414.045000", "190415.545000", "190417.045000", "190418.545000", "190420.045000", "190421.545000", "190423.045000", "190424.545000", "190426.045000", "190427.545000", "190429.045000", "190430.545000", "190432.045000", "190433.545000", "190435.045000", "190436.545000", "190438.045000", "190439.545000", "190441.045000", "190442.545000", "190444.045000", "190445.545000", "190447.045000", "190448.545000", "190450.045000", "190451.545000", "190453.045000", "190454.545000", "190456.045000", "190457.545000", "190459.045000", "190500.545000", "190502.045000", "190503.545000", "190505.045000", "190506.545000", "190508.045000", "190509.545000", "190511.045000", "190512.545000", "190514.045000", "190515.545000", "190517.045000", "190518.545000", "190520.045000", "190521.545000", "190523.045000", "190524.545000", "190526.045000", "190527.545000", "190529.045000", "190530.545000", "190532.045000", "190533.545000", "190535.045000", "190536.545000", "190538.045000", "190539.545000", "190541.045000", "190542.545000", "190544.045000"],
      "ContentTime": ["190144.670000", "190144.674000", "190144.677000", "190224.655000", "190224.667000", "190224.673000", "190224.676000", "190224.679000", "190224.682000", "190224.685000", "190224.688000", "190224.691000", "190224.694000", "190224.703000", "190224.706000", "190224.709000", "190224.712000", "190224.715000", "190224.718000", "190224.721000", "190224.725000", "190224.728000", "190224.731000", "190224.734000", "190224.737000", "190224.740000", "190224.743000", "190224.746000", "190224.749000", "190224.752000", "190304.654000", "190304.657000", "190304.660000", "190304.663000", "190304.666000", "190304.669000", "190304.672000", "190304.675000", "190304.678000", "190304.681000", "190304.684000", "190304.687000", "190304.690000", "190304.693000", "190304.696000", "190304.699000", "190304.702000", "190304.705000", "190304.708000", "190304.711000", "190304.714000", "190304.717000", "190304.730000", "190304.733000", "190304.735000", "190304.739000", "190344.654000", "190344.657000", "190344.660000", "190344.663000", "190344.666000", "190344.669000", "190344.672000", "190344.675000", "190344.678000", "190344.681000", "190344.684000", "190344.687000", "190344.690000", "190344.693000", "190344.696000", "190344.699000", "190344.702000", "190344.705000", "190344.708000", "190344.711000", "190344.714000", "190344.717000", "190344.720000", "190344.723000", "190344.726000", "190344.729000", "190344.732000", "190424.655000", "190424.658000", "190424.661000", "190424.664000", "190424.667000", "190424.670000", "190424.673000", "190424.676000", "190424.679000", "190424.682000", "190424.685000", "190424.688000", "190424.691000", "190424.694000", "190424.697000", "190424.700000", "190424.703000", "190424.706000", "190424.709000", "190424.712000", "190424.715000", "190424.718000", "190424.721000", "190424.724000", "190424.727000", "190424.730000", "190424.733000", "190504.655000", "190504.658000", "190504.661000", "190504.664000", "190504.667000", "190504.670000", "190504.673000", "190504.676000", "190504.679000", "190504.682000", "190504.685000", "190504.697000", "190504.700000", "190504.703000", "190504.706000", "190504.709000", "190504.712000", "190504.715000", "190504.718000", "190504.721000", "190504.724000", "190504.727000", "190504.730000", "190504.733000", "190504.736000", "190504.739000", "190544.654000", "190544.657000", "190544.660000", "190544.663000", "190544.666000", "190544.670000", "190544.672000", "190544.675000", "190544.678000", "190544.681000", "190544.684000", "190544.687000", "190544.690000", "190544.693000", "190544.696000", "190544.699000", "190544.702000", "190544.705000", "190544.708000", "190544.711000", "190544.714000", "190544.717000", "190544.720000", "190544.723000", "190544.726000", "190544.729000", "190544.732000", "190545.314000"],
      "InstanceCreationTime": ["190144.670000", "190144.674000", "190144.677000", "190224.655000", "190224.667000", "190224.673000", "190224.676000", "190224.679000", "190224.682000", "190224.685000", "190224.688000", "190224.691000", "190224.694000", "190224.703000", "190224.706000", "190224.709000", "190224.712000", "190224.715000", "190224.718000", "190224.721000", "190224.725000", "190224.728000", "190224.731000", "190224.734000", "190224.737000", "190224.740000", "190224.743000", "190224.746000", "190224.749000", "190224.752000", "190304.654000", "190304.657000", "190304.660000", "190304.663000", "190304.666000", "190304.669000", "190304.672000", "190304.675000", "190304.678000", "190304.681000", "190304.684000", "190304.687000", "190304.690000", "190304.693000", "190304.696000", "190304.699000", "190304.702000", "190304.705000", "190304.708000", "190304.711000", "190304.714000", "190304.717000", "190304.730000", "190304.733000", "190304.735000", "190304.739000", "190344.654000", "190344.657000", "190344.660000", "190344.663000", "190344.666000", "190344.669000", "190344.672000", "190344.675000", "190344.678000", "190344.681000", "190344.684000", "190344.687000", "190344.690000", "190344.693000", "190344.696000", "190344.699000", "190344.702000", "190344.705000", "190344.708000", "190344.711000", "190344.714000", "190344.717000", "190344.720000", "190344.723000", "190344.726000", "190344.729000", "190344.732000", "190424.655000", "190424.658000", "190424.661000", "190424.664000", "190424.667000", "190424.670000", "190424.673000", "190424.676000", "190424.679000", "190424.682000", "190424.685000", "190424.688000", "190424.691000", "190424.694000", "190424.697000", "190424.700000", "190424.703000", "190424.706000", "190424.709000", "190424.712000", "190424.715000", "190424.718000", "190424.721000", "190424.724000", "190424.727000", "190424.730000", "190424.733000", "190504.655000", "190504.658000", "190504.661000", "190504.664000", "190504.667000", "190504.670000", "190504.673000", "190504.676000", "190504.679000", "190504.682000", "190504.685000", "190504.697000", "190504.700000", "190504.703000", "190504.706000", "190504.709000", "190504.712000", "190504.715000", "190504.718000", "190504.721000", "190504.724000", "190504.727000", "190504.730000", "190504.733000", "190504.736000", "190504.739000", "190544.654000", "190544.657000", "190544.660000", "190544.663000", "190544.666000", "190544.670000", "190544.672000", "190544.675000", "190544.678000", "190544.681000", "190544.684000", "190544.687000", "190544.690000", "190544.693000", "190544.696000", "190544.699000", "190544.702000", "190544.705000", "190544.708000", "190544.711000", "190544.714000", "190544.717000", "190544.720000", "190544.723000", "190544.726000", "190544.729000", "190544.732000", "190545.314000"],
      "InstanceNumber": [1, 2, 3, 4, 5, 6, 7, 8, 9, 10, 11, 12, 13, 14, 15, 16, 17, 18, 19, 20, 21, 22, 23, 24, 25, 26, 27, 28, 29, 30, 31, 32, 33, 34, 35, 36, 37, 38, 39, 40, 41, 42, 43, 44, 45, 46, 47, 48, 49, 50, 51, 52, 53, 54, 55, 56, 57, 58, 59, 60, 61, 62, 63, 64, 65, 66, 67, 68, 69, 70, 71, 72, 73, 74, 75, 76, 77, 78, 79, 80, 81, 82, 83, 84, 85, 86, 87, 88, 89, 90, 91, 92, 93, 94, 95, 96, 97, 98, 99, 100, 101, 102, 103, 104, 105, 106, 107, 108, 109, 110, 111, 112, 113, 114, 115, 116, 117, 118, 119, 120, 121, 122, 123, 124, 125, 126, 127, 128, 129, 130, 131, 132, 133, 134, 135, 136, 137, 138, 139, 140, 141, 142, 143, 144, 145, 146, 147, 148, 149, 150, 151, 152, 153, 154, 155, 156, 157, 158, 159, 160, 161, 162, 163, 164],
      "LargestImagePixelValue": [2204, 2215, 2140, 2116, 2130, 2150, 2134, 2149, 2132, 2151, 2136, 2151, 2146, 2115, 2139, 2142, 2139, 2134, 2142, 2133, 2143, 2118, 2142, 2117, 2120, 2130, 2127, 2130, 2127, 2127, 2123, 2118, 2113, 2124, 2127, 2113, 2112, 2131, 2130, 2139, 2124, 2130, 2133, 2139, 2121, 2125, 2141, 2140, 2122, 2105, 2135, 2116, 2135, 2113, 2127, 2106, 2120, 2105, 2107, 2122, 2092, 2119, 2121, 2135, 2109, 2124, 2105, 2123, 2116, 2116, 2101, 2117, 2116, 2128, 2124, 2119, 2130, 2119, 2122, 2114, 2133, 2114, 2122, 2110, 2135, 2098, 2106, 2126, 2115, 2119, 2102, 2094, 2132, 2115, 2120, 2123, 2122, 2099, 2134, 2147, 2098, 2086, 2072, 2087, 2092, 2108, 2110, 2129, 2096, 2128, 2105, 2132, 2104, 2115, 2106, 2109, 2109, 2101, 2127, 2107, 2106, 2112, 2109, 2077, 2113, 2106, 2138, 2095, 2127, 2103, 2085, 2097, 2097, 2111, 2095, 2115, 2114, 2117, 2098, 2121, 2095, 2107, 2085, 2121, 2091, 2117, 2115, 2123, 2087, 2129, 2102, 2098, 2117, 2111, 2111, 2119, 2123, 2142, 2132, 2103, 2113, 2119, 2119, 2129],
      "WindowCenter": [721.0, 720.0, 718.0, 718.0, 718.0, 718.0, 718.0, 718.0, 718.0, 718.0, 718.0, 718.0, 718.0, 717.0, 717.0, 718.0, 718.0, 718.0, 719.0, 719.0, 718.0, 718.0, 719.0, 720.0, 720.0, 720.0, 719.0, 718.0, 719.0, 719.0, 720.0, 720.0, 720.0, 719.0, 719.0, 719.0, 719.0, 719.0, 720.0, 720.0, 721.0, 720.0, 720.0, 719.0, 718.0, 719.0, 721.0, 720.0, 719.0, 719.0, 719.0, 718.0, 718.0, 719.0, 719.0, 720.0, 720.0, 720.0, 720.0, 721.0, 721.0, 721.0, 721.0, 721.0, 720.0, 719.0, 719.0, 719.0, 720.0, 721.0, 721.0, 719.0, 718.0, 718.0, 721.0, 722.0, 722.0, 721.0, 719.0, 718.0, 720.0, 720.0, 720.0, 719.0, 720.0, 720.0, 721.0, 720.0, 720.0, 721.0, 720.0, 719.0, 720.0, 721.0, 721.0, 721.0, 721.0, 720.0, 720.0, 721.0, 721.0, 721.0, 720.0, 719.0, 719.0, 719.0, 720.0, 719.0, 719.0, 720.0, 721.0, 722.0, 721.0, 720.0, 719.0, 718.0, 719.0, 719.0, 719.0, 719.0, 719.0, 720.0, 719.0, 719.0, 719.0, 719.0, 720.0, 720.0, 721.0, 721.0, 721.0, 721.0, 721.0, 720.0, 720.0, 720.0, 720.0, 721.0, 721.0, 721.0, 720.0, 720.0, 719.0, 719.0, 719.0, 720.0, 722.0, 723.0, 723.0, 722.0, 719.0, 718.0, 719.0, 719.0, 720.0, 720.0, 719.0, 719.0, 719.0, 719.0, 719.0, 719.0, 719.0, 719.0],
      "WindowWidth": [1552.0, 1548.0, 1544.0, 1543.0, 1542.0, 1544.0, 1544.0, 1545.0, 1543.0, 1544.0, 1543.0, 1543.0, 1544.0, 1540.0, 1541.0, 1543.0, 1543.0, 1544.0, 1545.0, 1545.0, 1544.0, 1544.0, 1547.0, 1549.0, 1549.0, 1549.0, 1545.0, 1545.0, 1545.0, 1546.0, 1548.0, 1549.0, 1548.0, 1547.0, 1545.0, 1545.0, 1545.0, 1546.0, 1548.0, 1550.0, 1551.0, 1550.0, 1548.0, 1545.0, 1544.0, 1548.0, 1551.0, 1550.0, 1547.0, 1545.0, 1545.0, 1545.0, 1544.0, 1545.0, 1547.0, 1548.0, 1549.0, 1548.0, 1549.0, 1552.0, 1552.0, 1551.0, 1550.0, 1551.0, 1549.0, 1545.0, 1545.0, 1547.0, 1550.0, 1552.0, 1550.0, 1546.0, 1544.0, 1545.0, 1550.0, 1555.0, 1554.0, 1550.0, 1546.0, 1544.0, 1548.0, 1548.0, 1548.0, 1547.0, 1548.0, 1549.0, 1550.0, 1550.0, 1550.0, 1551.0, 1549.0, 1547.0, 1548.0, 1551.0, 1551.0, 1552.0, 1551.0, 1548.0, 1549.0, 1552.0, 1552.0, 1551.0, 1550.0, 1546.0, 1546.0, 1546.0, 1547.0, 1547.0, 1547.0, 1548.0, 1551.0, 1554.0, 1551.0, 1549.0, 1546.0, 1544.0, 1545.0, 1545.0, 1546.0, 1547.0, 1547.0, 1548.0, 1546.0, 1545.0, 1545.0, 1546.0, 1549.0, 1549.0, 1550.0, 1551.0, 1551.0, 1552.0, 1550.0, 1549.0, 1549.0, 1549.0, 1549.0, 1551.0, 1551.0, 1551.0, 1549.0, 1548.0, 1546.0, 1546.0, 1547.0, 1549.0, 1553.0, 1556.0, 1556.0, 1554.0, 1547.0, 1544.0, 1545.0, 1546.0, 1548.0, 1548.0, 1547.0, 1547.0, 1546.0, 1546.0, 1547.0, 1546.0, 1545.0, 1546.0]
    },
    "slices": {}
  }
}