{
  "AcquisitionMatrixPE": 72,
  "AcquisitionNumber": 1,
  "AcquisitionTime": "14:10:32.545000",
  "BandwidthPerPixelPhaseEncode": 17.943,
  "BaseResolution": 96,
  "BodyPartExamined": "BRAIN",
  "CoilCombinationMethod": "Sum of Squares",
  "ConsistencyInfo": "N4_VE11C_LATEST_20160120",
  "ConversionSoftware": "dcm2niix",
  "ConversionSoftwareVersion": "v1.0.20211006",
  "DerivedVendorReportedEchoSpacing": 0.000552897,
  "DeviceSerialNumber": "166011",
  "EchoTime": 0.03,
  "EchoTrainLength": 58,
  "EffectiveEchoSpacing": 0.000580542,
  "FlipAngle": 62,
  "ImageOrientationPatientDICOM": [0.998881, -0.0151048, 0.0448287, 0.0280757, 0.951997, -0.304817],
  "ImageType": [
    "ORIGINAL",
    "PRIMARY",
    "M",
    "ND",
    "MOSAIC"
],
  "ImagingFrequency": 123.26,
  "InPlanePhaseEncodingDirectionDICOM": "COL",
  "InstitutionAddress": "West 130th Street 610,NY,NYC,US,10025",
  "InstitutionName": "MBBI",
  "MRAcquisitionType": "2D",
  "MagneticFieldStrength": 3,
  "Manufacturer": "Siemens",
  "ManufacturersModelName": "Prisma",
  "Modality": "MR",
  "MultibandAccelerationFactor": 3,
  "PartialFourier": 0.75,
  "PatientPosition": "HFS",
  "PercentPhaseFOV": 100,
  "PercentSampling": 75,
  "PhaseEncodingDirection": "j-",
  "PhaseEncodingSteps": 58,
  "PhaseOversampling": 0.05,
  "PhaseResolution": 0.75,
  "PixelBandwidth": 2265,
  "ProcedureStepDescription": "White^Word_recognition",
  "ProtocolName": "func_vwfate_run5",
  "PulseSequenceDetails": "%SiemensSeq%\\ep2d_bold",
  "ReceiveCoilActiveElements": "HC1-7",
  "ReceiveCoilName": "HeadNeck_64",
  "ReconMatrixPE": 96,
  "RefLinesPE": 40,
  "RepetitionTime": 1.5,
  "SAR": 0.0533752,
  "ScanOptions": "PFP\\FS",
  "ScanningSequence": "EP",
  "SequenceName": "*epfid2d1_72",
  "SequenceVariant": "SK\\OSP",
  "SeriesDescription": "func_vwfate_run5",
  "SeriesNumber": 18,
  "ShimSetting": [-1122, -1322, 674, 493, -77, -29, -21, 9],
  "SliceThickness": 2,
  "SliceTiming": [1.0775, 0, 0.74, 0.0675, 0.8075, 0.135, 0.875, 0.2025, 0.9425, 0.27, 1.01, 0.405, 1.145, 0.4725, 1.2125, 0.54, 1.28, 0.605, 1.345, 0.6725, 1.4125, 0.3375, 1.0775, 0, 0.74, 0.0675, 0.8075, 0.135, 0.875, 0.2025, 0.9425, 0.27, 1.01, 0.405, 1.145, 0.4725, 1.2125, 0.54, 1.28, 0.605, 1.345, 0.6725, 1.4125, 0.3375, 1.0775, 0, 0.74, 0.0675, 0.8075, 0.135, 0.875, 0.2025, 0.9425, 0.27, 1.01, 0.405, 1.145, 0.4725, 1.2125, 0.54, 1.28, 0.605, 1.345, 0.6725, 1.4125, 0.3375],
  "SoftwareVersions": "syngo MR E11",
  "SpacingBetweenSlices": 2,
  "StationName": "AWP166011",
  "TaskName": "vwfate",
  "TotalReadoutTime": 0.0551515,
  "TxRefAmp": 227.313,
  "dcmmeta_affine": [
    [-1.9977610111236572, 0.05615143105387688, 0.076145239174366, 91.56938171386719],
    [0.030209578573703766, 1.9039939641952515, -0.6114690899848938, -65.24723815917969],
    [0.08965747803449631, 0.6096343994140625, 1.9027104377746582, -99.2325210571289],
    [0.0, 0.0, 0.0, 1.0]
],
  "dcmmeta_reorient_transform": [
    [0.0, -1.0, 0.0, 95.0],
    [1.0, 0.0, 0.0, 0.0],
    [0.0, 0.0, 1.0, 0.0],
    [0.0, 0.0, 0.0, 1.0]
],
  "dcmmeta_shape": [96, 96, 66, 164],
  "dcmmeta_slice_dim": 2,
  "dcmmeta_version": 0.6,
  "global": {
    "const": {
      "AcquisitionMatrix": [96, 0, 0, 72],
      "AngioFlag": "N",
      "BitsAllocated": 16,
      "BitsStored": 12,
      "BodyPartExamined": "BRAIN",
      "Columns": 864,
      "EchoNumbers": 1,
      "EchoTime": 30.0,
      "EchoTrainLength": 58,
      "FlipAngle": 62.0,
      "HighBit": 11,
      "ImageOrientationPatient": [0.99888048817198, -0.015104789401, 0.04482873728369, 0.02807571461318, 0.95199697200796, -0.3048171903562],
      "ImagePositionPatient": [-885.60613141536, -835.16538608614, 158.35387751957],
      "ImageType": [
        "ORIGINAL",
        "PRIMARY",
        "M",
        "ND",
        "MOSAIC"
],
      "ImagedNucleus": "1H",
      "ImagingFrequency": 123.259535,
      "InPlanePhaseEncodingDirection": "COL",
      "MRAcquisitionType": "2D",
      "MagneticFieldStrength": 3.0,
      "Manufacturer": "SIEMENS",
      "ManufacturerModelName": "Prisma",
      "Modality": "MR",
      "NumberOfAverages": 1.0,
      "NumberOfPhaseEncodingSteps": 58,
      "PercentPhaseFieldOfView": 100.0,
      "PercentSampling": 75.0,
      "PerformedProcedureStepStartTime": "125540.153000",
      "PhotometricInterpretation": "MONOCHROME2",
      "PixelBandwidth": 2265.0,
      "PixelRepresentation": 0,
      "PixelSpacing": [2.0, 2.0],
      "ProtocolName": "func_vwfate_run5",
      "RepetitionTime": 1500.0,
      "Rows": 864,
      "SAR": 0.053375170358,
      "SamplesPerPixel": 1,
      "ScanOptions": [
        "PFP",
        "FS"
],
      "ScanningSequence": "EP",
      "SequenceName": "*epfid2d1_72",
      "SequenceVariant": [
        "SK",
        "OSP"
],
      "SeriesDescription": "func_vwfate_run5",
      "SeriesNumber": 18,
      "SeriesTime": "141117.492000",
      "SliceLocation": -70.970762184053,
      "SliceThickness": 2.0,
      "SmallestImagePixelValue": 0,
      "SoftwareVersions": "syngo MR E11",
      "SpacingBetweenSlices": 1.999999934387,
      "SpecificCharacterSet": "ISO_IR 100",
      "StudyID": "1",
      "StudyTime": "125540.089000",
      "TransmitCoilName": "Body",
      "VariableFlipAngleFlag": "N",
      "WindowCenterWidthExplanation": "Algo1",
      "dBdt": 0.0},
    "slices": {}
  },
  "time": {
    "samples": {
      "AcquisitionNumber": [1, 2, 3, 4, 5, 6, 7, 8, 9, 10, 11, 12, 13, 14, 15, 16, 17, 18, 19, 20, 21, 22, 23, 24, 25, 26, 27, 28, 29, 30, 31, 32, 33, 34, 35, 36, 37, 38, 39, 40, 41, 42, 43, 44, 45, 46, 47, 48, 49, 50, 51, 52, 53, 54, 55, 56, 57, 58, 59, 60, 61, 62, 63, 64, 65, 66, 67, 68, 69, 70, 71, 72, 73, 74, 75, 76, 77, 78, 79, 80, 81, 82, 83, 84, 85, 86, 87, 88, 89, 90, 91, 92, 93, 94, 95, 96, 97, 98, 99, 100, 101, 102, 103, 104, 105, 106, 107, 108, 109, 110, 111, 112, 113, 114, 115, 116, 117, 118, 119, 120, 121, 122, 123, 124, 125, 126, 127, 128, 129, 130, 131, 132, 133, 134, 135, 136, 137, 138, 139, 140, 141, 142, 143, 144, 145, 146, 147, 148, 149, 150, 151, 152, 153, 154, 155, 156, 157, 158, 159, 160, 161, 162, 163, 164],
      "AcquisitionTime": ["141032.545000", "141034.045000", "141035.545000", "141037.045000", "141038.545000", "141040.045000", "141041.545000", "141043.045000", "141044.545000", "141046.045000", "141047.545000", "141049.045000", "141050.545000", "141052.045000", "141053.545000", "141055.045000", "141056.545000", "141058.045000", "141059.545000", "141101.045000", "141102.545000", "141104.045000", "141105.545000", "141107.045000", "141108.545000", "141110.045000", "141111.545000", "141113.045000", "141114.545000", "141116.045000", "141117.545000", "141119.045000", "141120.545000", "141122.045000", "141123.545000", "141125.045000", "141126.545000", "141128.045000", "141129.545000", "141131.045000", "141132.545000", "141134.045000", "141135.545000", "141137.045000", "141138.545000", "141140.045000", "141141.545000", "141143.045000", "141144.545000", "141146.045000", "141147.545000", "141149.045000", "141150.545000", "141152.045000", "141153.545000", "141155.045000", "141156.545000", "141158.045000", "141159.545000", "141201.045000", "141202.545000", "141204.045000", "141205.545000", "141207.045000", "141208.545000", "141210.045000", "141211.545000", "141213.045000", "141214.545000", "141216.045000", "141217.545000", "141219.045000", "141220.545000", "141222.045000", "141223.545000", "141225.045000", "141226.545000", "141228.045000", "141229.545000", "141231.045000", "141232.545000", "141234.045000", "141235.545000", "141237.045000", "141238.545000", "141240.045000", "141241.545000", "141243.045000", "141244.545000", "141246.045000", "141247.545000", "141249.045000", "141250.545000", "141252.045000", "141253.545000", "141255.045000", "141256.545000", "141258.045000", "141259.545000", "141301.045000", "141302.545000", "141304.045000", "141305.545000", "141307.045000", "141308.545000", "141310.045000", "141311.545000", "141313.045000", "141314.545000", "141316.045000", "141317.545000", "141319.045000", "141320.545000", "141322.045000", "141323.545000", "141325.045000", "141326.545000", "141328.045000", "141329.545000", "141331.045000", "141332.545000", "141334.045000", "141335.545000", "141337.045000", "141338.545000", "141340.045000", "141341.545000", "141343.045000", "141344.545000", "141346.045000", "141347.545000", "141349.045000", "141350.545000", "141352.045000", "141353.545000", "141355.045000", "141356.545000", "141358.045000", "141359.545000", "141401.045000", "141402.545000", "141404.045000", "141405.545000", "141407.045000", "141408.545000", "141410.045000", "141411.545000", "141413.045000", "141414.545000", "141416.045000", "141417.545000", "141419.045000", "141420.545000", "141422.045000", "141423.545000", "141425.045000", "141426.545000", "141428.045000", "141429.545000", "141431.045000", "141432.545000", "141434.045000", "141435.545000", "141437.045000"],
      "ContentTime": ["141117.496000", "141117.500000", "141117.507000", "141117.510000", "141117.513000", "141117.524000", "141117.527000", "141117.531000", "141117.534000", "141117.537000", "141117.540000", "141117.543000", "141117.546000", "141117.553000", "141117.556000", "141117.559000", "141117.562000", "141117.565000", "141117.568000", "141117.571000", "141117.575000", "141117.578000", "141117.581000", "141117.584000", "141117.587000", "141117.590000", "141117.593000", "141117.596000", "141117.599000", "141117.602000", "141157.492000", "141157.495000", "141157.498000", "141157.501000", "141157.504000", "141157.507000", "141157.510000", "141157.513000", "141157.516000", "141157.519000", "141157.522000", "141157.525000", "141157.528000", "141157.536000", "141157.539000", "141157.542000", "141157.545000", "141157.548000", "141157.560000", "141157.563000", "141157.566000", "141157.569000", "141157.572000", "141157.575000", "141157.578000", "141157.581000", "141237.492000", "141237.495000", "141237.498000", "141237.501000", "141237.504000", "141237.507000", "141237.515000", "141237.518000", "141237.521000", "141237.524000", "141237.527000", "141237.530000", "141237.533000", "141237.536000", "141237.539000", "141237.542000", "141237.545000", "141237.548000", "141237.551000", "141237.554000", "141237.557000", "141237.560000", "141237.563000", "141237.566000", "141237.569000", "141237.572000", "141237.575000", "141317.492000", "141317.495000", "141317.498000", "141317.503000", "141317.506000", "141317.509000", "141317.512000", "141317.515000", "141317.518000", "141317.521000", "141317.524000", "141317.527000", "141317.530000", "141317.533000", "141317.536000", "141317.544000", "141317.547000", "141317.550000", "141317.553000", "141317.556000", "141317.559000", "141317.562000", "141317.565000", "141317.568000", "141317.571000", "141317.573000", "141317.576000", "141357.491000", "141357.494000", "141357.497000", "141357.500000", "141357.503000", "141357.506000", "141357.509000", "141357.512000", "141357.515000", "141357.518000", "141357.521000", "141357.524000", "141357.527000", "141357.530000", "141357.533000", "141357.536000", "141357.539000", "141357.542000", "141357.545000", "141357.548000", "141357.551000", "141357.554000", "141357.557000", "141357.560000", "141357.563000", "141357.566000", "141437.492000", "141437.495000", "141437.498000", "141437.501000", "141437.504000", "141437.507000", "141437.510000", "141437.513000", "141437.516000", "141437.519000", "141437.522000", "141437.525000", "141437.528000", "141437.531000", "141437.534000", "141437.537000", "141437.540000", "141437.543000", "141437.546000", "141437.549000", "141437.552000", "141437.555000", "141437.558000", "141437.561000", "141437.564000", "141437.567000", "141437.570000", "141438.421000"],
      "InstanceCreationTime": ["141117.496000", "141117.500000", "141117.507000", "141117.510000", "141117.513000", "141117.524000", "141117.527000", "141117.531000", "141117.534000", "141117.537000", "141117.540000", "141117.543000", "141117.546000", "141117.553000", "141117.556000", "141117.559000", "141117.562000", "141117.565000", "141117.568000", "141117.571000", "141117.575000", "141117.578000", "141117.581000", "141117.584000", "141117.587000", "141117.590000", "141117.593000", "141117.596000", "141117.599000", "141117.602000", "141157.492000", "141157.495000", "141157.498000", "141157.501000", "141157.504000", "141157.507000", "141157.510000", "141157.513000", "141157.516000", "141157.519000", "141157.522000", "141157.525000", "141157.528000", "141157.536000", "141157.539000", "141157.542000", "141157.545000", "141157.548000", "141157.560000", "141157.563000", "141157.566000", "141157.569000", "141157.572000", "141157.575000", "141157.578000", "141157.581000", "141237.492000", "141237.495000", "141237.498000", "141237.501000", "141237.504000", "141237.507000", "141237.515000", "141237.518000", "141237.521000", "141237.524000", "141237.527000", "141237.530000", "141237.533000", "141237.536000", "141237.539000", "141237.542000", "141237.545000", "141237.548000", "141237.551000", "141237.554000", "141237.557000", "141237.560000", "141237.563000", "141237.566000", "141237.569000", "141237.572000", "141237.575000", "141317.492000", "141317.495000", "141317.498000", "141317.503000", "141317.506000", "141317.509000", "141317.512000", "141317.515000", "141317.518000", "141317.521000", "141317.524000", "141317.527000", "141317.530000", "141317.533000", "141317.536000", "141317.544000", "141317.547000", "141317.550000", "141317.553000", "141317.556000", "141317.559000", "141317.562000", "141317.565000", "141317.568000", "141317.571000", "141317.573000", "141317.576000", "141357.491000", "141357.494000", "141357.497000", "141357.500000", "141357.503000", "141357.506000", "141357.509000", "141357.512000", "141357.515000", "141357.518000", "141357.521000", "141357.524000", "141357.527000", "141357.530000", "141357.533000", "141357.536000", "141357.539000", "141357.542000", "141357.545000", "141357.548000", "141357.551000", "141357.554000", "141357.557000", "141357.560000", "141357.563000", "141357.566000", "141437.492000", "141437.495000", "141437.498000", "141437.501000", "141437.504000", "141437.507000", "141437.510000", "141437.513000", "141437.516000", "141437.519000", "141437.522000", "141437.525000", "141437.528000", "141437.531000", "141437.534000", "141437.537000", "141437.540000", "141437.543000", "141437.546000", "141437.549000", "141437.552000", "141437.555000", "141437.558000", "141437.561000", "141437.564000", "141437.567000", "141437.570000", "141438.421000"],
      "InstanceNumber": [1, 2, 3, 4, 5, 6, 7, 8, 9, 10, 11, 12, 13, 14, 15, 16, 17, 18, 19, 20, 21, 22, 23, 24, 25, 26, 27, 28, 29, 30, 31, 32, 33, 34, 35, 36, 37, 38, 39, 40, 41, 42, 43, 44, 45, 46, 47, 48, 49, 50, 51, 52, 53, 54, 55, 56, 57, 58, 59, 60, 61, 62, 63, 64, 65, 66, 67, 68, 69, 70, 71, 72, 73, 74, 75, 76, 77, 78, 79, 80, 81, 82, 83, 84, 85, 86, 87, 88, 89, 90, 91, 92, 93, 94, 95, 96, 97, 98, 99, 100, 101, 102, 103, 104, 105, 106, 107, 108, 109, 110, 111, 112, 113, 114, 115, 116, 117, 118, 119, 120, 121, 122, 123, 124, 125, 126, 127, 128, 129, 130, 131, 132, 133, 134, 135, 136, 137, 138, 139, 140, 141, 142, 143, 144, 145, 146, 147, 148, 149, 150, 151, 152, 153, 154, 155, 156, 157, 158, 159, 160, 161, 162, 163, 164],
      "LargestImagePixelValue": [2519, 2446, 2404, 2418, 2414, 2388, 2400, 2396, 2410, 2408, 2398, 2413, 2389, 2410, 2409, 2387, 2401, 2408, 2416, 2410, 2426, 2432, 2451, 2429, 2434, 2422, 2422, 2429, 2401, 2431, 2405, 2434, 2395, 2411, 2398, 2399, 2409, 2406, 2398, 2431, 2398, 2417, 2404, 2396, 2421, 2411, 2424, 2474, 2402, 2423, 2398, 2396, 2414, 2400, 2402, 2396, 2416, 2397, 2402, 2398, 2427, 2410, 2435, 2407, 2398, 2421, 2398, 2392, 2404, 2382, 2374, 2388, 2385, 2382, 2384, 2367, 2394, 2390, 2389, 2384, 2390, 2380, 2390, 2379, 2381, 2374, 2385, 2360, 2393, 2401, 2395, 2376, 2391, 2359, 2390, 2437, 2408, 2347, 2370, 2376, 2355, 2328, 2349, 2345, 2366, 2374, 2376, 2347, 2370, 2368, 2376, 2356, 2378, 2372, 2379, 2350, 2387, 2378, 2381, 2357, 2377, 2378, 2381, 2347, 2372, 2353, 2358, 2354, 2361, 2324, 2349, 2356, 2364, 2346, 2370, 2350, 2344, 2352, 2337, 2346, 2335, 2333, 2350, 2350, 2348, 2340, 2359, 2351, 2339, 2322, 2345, 2411, 2350, 2347, 2353, 2335, 2311, 2318, 2309, 2305, 2318, 2305, 2326, 2328],
      "WindowCenter": [707.0, 704.0, 701.0, 700.0, 699.0, 700.0, 701.0, 702.0, 702.0, 701.0, 701.0, 701.0, 702.0, 703.0, 703.0, 702.0, 701.0, 700.0, 701.0, 703.0, 704.0, 704.0, 703.0, 702.0, 702.0, 703.0, 704.0, 703.0, 703.0, 703.0, 703.0, 704.0, 703.0, 702.0, 702.0, 702.0, 703.0, 703.0, 703.0, 703.0, 702.0, 703.0, 703.0, 704.0, 704.0, 703.0, 705.0, 707.0, 705.0, 706.0, 705.0, 704.0, 703.0, 704.0, 704.0, 704.0, 703.0, 702.0, 702.0, 702.0, 703.0, 703.0, 703.0, 703.0, 703.0, 703.0, 704.0, 704.0, 703.0, 702.0, 702.0, 703.0, 703.0, 702.0, 701.0, 701.0, 702.0, 703.0, 703.0, 702.0, 702.0, 703.0, 704.0, 705.0, 704.0, 704.0, 703.0, 703.0, 704.0, 705.0, 705.0, 704.0, 703.0, 702.0, 703.0, 706.0, 708.0, 705.0, 705.0, 704.0, 705.0, 704.0, 704.0, 703.0, 703.0, 704.0, 703.0, 703.0, 703.0, 703.0, 704.0, 705.0, 704.0, 704.0, 705.0, 706.0, 706.0, 705.0, 703.0, 703.0, 705.0, 705.0, 704.0, 703.0, 702.0, 702.0, 703.0, 704.0, 704.0, 704.0, 703.0, 705.0, 706.0, 706.0, 706.0, 705.0, 703.0, 704.0, 705.0, 706.0, 705.0, 703.0, 702.0, 702.0, 703.0, 705.0, 706.0, 706.0, 704.0, 703.0, 703.0, 704.0, 706.0, 706.0, 703.0, 702.0, 699.0, 696.0, 694.0, 693.0, 693.0, 694.0, 695.0, 696.0],
      "WindowWidth": [1533.0, 1524.0, 1516.0, 1514.0, 1512.0, 1514.0, 1516.0, 1519.0, 1519.0, 1517.0, 1515.0, 1517.0, 1518.0, 1522.0, 1522.0, 1519.0, 1515.0, 1513.0, 1516.0, 1521.0, 1524.0, 1525.0, 1522.0, 1520.0, 1519.0, 1521.0, 1524.0, 1523.0, 1523.0, 1522.0, 1523.0, 1525.0, 1522.0, 1520.0, 1519.0, 1520.0, 1523.0, 1523.0, 1522.0, 1521.0, 1520.0, 1521.0, 1522.0, 1524.0, 1525.0, 1523.0, 1526.0, 1534.0, 1528.0, 1529.0, 1528.0, 1526.0, 1523.0, 1524.0, 1526.0, 1526.0, 1524.0, 1520.0, 1519.0, 1520.0, 1522.0, 1522.0, 1522.0, 1521.0, 1521.0, 1523.0, 1524.0, 1525.0, 1522.0, 1520.0, 1519.0, 1521.0, 1522.0, 1520.0, 1518.0, 1516.0, 1520.0, 1523.0, 1523.0, 1521.0, 1520.0, 1521.0, 1525.0, 1527.0, 1526.0, 1524.0, 1522.0, 1521.0, 1526.0, 1529.0, 1529.0, 1525.0, 1523.0, 1521.0, 1522.0, 1530.0, 1536.0, 1528.0, 1527.0, 1526.0, 1526.0, 1525.0, 1524.0, 1523.0, 1523.0, 1524.0, 1523.0, 1521.0, 1522.0, 1523.0, 1526.0, 1527.0, 1525.0, 1525.0, 1528.0, 1531.0, 1531.0, 1529.0, 1524.0, 1524.0, 1528.0, 1529.0, 1526.0, 1522.0, 1519.0, 1520.0, 1521.0, 1525.0, 1526.0, 1525.0, 1524.0, 1527.0, 1530.0, 1530.0, 1530.0, 1527.0, 1523.0, 1524.0, 1529.0, 1531.0, 1529.0, 1524.0, 1519.0, 1519.0, 1523.0, 1528.0, 1531.0, 1530.0, 1526.0, 1523.0, 1522.0, 1525.0, 1529.0, 1530.0, 1523.0, 1518.0, 1511.0, 1504.0, 1497.0, 1494.0, 1497.0, 1499.0, 1502.0, 1504.0]
    },
    "slices": {}
  }
}