{
  "AcquisitionMatrixPE": 72,
  "AcquisitionNumber": 1,
  "AcquisitionTime": "13:31:53.525000",
  "BandwidthPerPixelPhaseEncode": 17.943,
  "BaseResolution": 96,
  "BodyPartExamined": "BRAIN",
  "CoilCombinationMethod": "Sum of Squares",
  "ConsistencyInfo": "N4_VE11C_LATEST_20160120",
  "ConversionSoftware": "dcm2niix",
  "ConversionSoftwareVersion": "v1.0.20211006",
  "DerivedVendorReportedEchoSpacing": 0.000552897,
  "DeviceSerialNumber": "166011",
  "EchoTime": 0.03,
  "EchoTrainLength": 58,
  "EffectiveEchoSpacing": 0.000580542,
  "FlipAngle": 62,
  "ImageOrientationPatientDICOM": [0.998537, 0.019561, 0.0504107, -0.0116771, 0.988283, -0.152185],
  "ImageType": [
    "ORIGINAL",
    "PRIMARY",
    "M",
    "ND",
    "MOSAIC"
],
  "ImagingFrequency": 123.26,
  "InPlanePhaseEncodingDirectionDICOM": "COL",
  "InstitutionAddress": "West 130th Street 610,NY,NYC,US,10025",
  "InstitutionName": "MBBI",
  "MRAcquisitionType": "2D",
  "MagneticFieldStrength": 3,
  "Manufacturer": "Siemens",
  "ManufacturersModelName": "Prisma",
  "Modality": "MR",
  "MultibandAccelerationFactor": 3,
  "PartialFourier": 0.75,
  "PatientPosition": "HFS",
  "PercentPhaseFOV": 100,
  "PercentSampling": 75,
  "PhaseEncodingDirection": "j-",
  "PhaseEncodingSteps": 58,
  "PhaseOversampling": 0.05,
  "PhaseResolution": 0.75,
  "PixelBandwidth": 2265,
  "ProcedureStepDescription": "White^Word_recognition",
  "ProtocolName": "func_vwfate_run2",
  "PulseSequenceDetails": "%SiemensSeq%\\ep2d_bold",
  "ReceiveCoilActiveElements": "HC1-7",
  "ReceiveCoilName": "HeadNeck_64",
  "ReconMatrixPE": 96,
  "RefLinesPE": 40,
  "RepetitionTime": 1.5,
  "SAR": 0.0487858,
  "ScanOptions": "PFP\\FS",
  "ScanningSequence": "EP",
  "SequenceName": "*epfid2d1_72",
  "SequenceVariant": "SK\\OSP",
  "SeriesDescription": "func_vwfate_run2",
  "SeriesNumber": 9,
  "ShimSetting": [-1118, -1345, 691, 542, -83, 82, 41, 1],
  "SliceThickness": 2,
  "SliceTiming": [1.0775, 0, 0.74, 0.0675, 0.8075, 0.135, 0.875, 0.2025, 0.9425, 0.27, 1.01, 0.4025, 1.1425, 0.47, 1.21, 0.5375, 1.2775, 0.605, 1.345, 0.6725, 1.4125, 0.3375, 1.0775, 0, 0.74, 0.0675, 0.8075, 0.135, 0.875, 0.2025, 0.9425, 0.27, 1.01, 0.4025, 1.1425, 0.47, 1.21, 0.5375, 1.2775, 0.605, 1.345, 0.6725, 1.4125, 0.3375, 1.0775, 0, 0.74, 0.0675, 0.8075, 0.135, 0.875, 0.2025, 0.9425, 0.27, 1.01, 0.4025, 1.1425, 0.47, 1.21, 0.5375, 1.2775, 0.605, 1.345, 0.6725, 1.4125, 0.3375],
  "SoftwareVersions": "syngo MR E11",
  "SpacingBetweenSlices": 2,
  "StationName": "AWP166011",
  "TaskName": "vwfate",
  "TotalReadoutTime": 0.0551515,
  "TxRefAmp": 218.606,
  "dcmmeta_affine": [
    [-1.997074007987976, -0.023354237899184227, 0.10559385269880295, 92.73981475830078],
    [-0.039121948182582855, 1.9765660762786865, -0.30274707078933716, -69.62374114990234],
    [0.10082140564918518, 0.3043696880340576, 1.9741312265396118, -78.43706512451172],
    [0.0, 0.0, 0.0, 1.0]
],
  "dcmmeta_reorient_transform": [
    [0.0, -1.0, 0.0, 95.0],
    [1.0, 0.0, 0.0, 0.0],
    [0.0, 0.0, 1.0, 0.0],
    [0.0, 0.0, 0.0, 1.0]
],
  "dcmmeta_shape": [96, 96, 66, 164],
  "dcmmeta_slice_dim": 2,
  "dcmmeta_version": 0.6,
  "global": {
    "const": {
      "AcquisitionMatrix": [96, 0, 0, 72],
      "AngioFlag": "N",
      "BitsAllocated": 16,
      "BitsStored": 12,
      "BodyPartExamined": "BRAIN",
      "Columns": 864,
      "EchoNumbers": 1,
      "EchoTime": 30.0,
      "EchoTrainLength": 58,
      "FlipAngle": 62.0,
      "HighBit": 11,
      "ImageOrientationPatient": [0.99853699447404, 0.01956097442457, 0.05041070269612, -0.0116771187432, 0.98828306639537, -0.1521848401584],
      "ImagePositionPatient": [-848.42954590892, -892.17426588634, 28.640591736384],
      "ImageType": [
        "ORIGINAL",
        "PRIMARY",
        "M",
        "ND",
        "MOSAIC"
],
      "ImagedNucleus": "1H",
      "ImagingFrequency": 123.259512,
      "InPlanePhaseEncodingDirection": "COL",
      "MRAcquisitionType": "2D",
      "MagneticFieldStrength": 3.0,
      "Manufacturer": "SIEMENS",
      "ManufacturerModelName": "Prisma",
      "Modality": "MR",
      "NumberOfAverages": 1.0,
      "NumberOfPhaseEncodingSteps": 58,
      "PercentPhaseFieldOfView": 100.0,
      "PercentSampling": 75.0,
      "PerformedProcedureStepStartTime": "125540.153000",
      "PhotometricInterpretation": "MONOCHROME2",
      "PixelBandwidth": 2265.0,
      "PixelRepresentation": 0,
      "PixelSpacing": [2.0, 2.0],
      "ProtocolName": "func_vwfate_run2",
      "RepetitionTime": 1500.0,
      "Rows": 864,
      "SAR": 0.04878576309148,
      "SamplesPerPixel": 1,
      "ScanOptions": [
        "PFP",
        "FS"
],
      "ScanningSequence": "EP",
      "SequenceName": "*epfid2d1_72",
      "SequenceVariant": [
        "SK",
        "OSP"
],
      "SeriesDescription": "func_vwfate_run2",
      "SeriesNumber": 9,
      "SeriesTime": "133243.099000",
      "SliceLocation": -61.986961222527,
      "SliceThickness": 2.0,
      "SmallestImagePixelValue": 0,
      "SoftwareVersions": "syngo MR E11",
      "SpacingBetweenSlices": 2.0000000117618,
      "SpecificCharacterSet": "ISO_IR 100",
      "StudyID": "1",
      "StudyTime": "125540.089000",
      "TransmitCoilName": "Body",
      "VariableFlipAngleFlag": "N",
      "WindowCenterWidthExplanation": "Algo1",
      "dBdt": 0.0},
    "slices": {}
  },
  "time": {
    "samples": {
      "AcquisitionNumber": [1, 2, 3, 4, 5, 6, 7, 8, 9, 10, 11, 12, 13, 14, 15, 16, 17, 18, 19, 20, 21, 22, 23, 24, 25, 26, 27, 28, 29, 30, 31, 32, 33, 34, 35, 36, 37, 38, 39, 40, 41, 42, 43, 44, 45, 46, 47, 48, 49, 50, 51, 52, 53, 54, 55, 56, 57, 58, 59, 60, 61, 62, 63, 64, 65, 66, 67, 68, 69, 70, 71, 72, 73, 74, 75, 76, 77, 78, 79, 80, 81, 82, 83, 84, 85, 86, 87, 88, 89, 90, 91, 92, 93, 94, 95, 96, 97, 98, 99, 100, 101, 102, 103, 104, 105, 106, 107, 108, 109, 110, 111, 112, 113, 114, 115, 116, 117, 118, 119, 120, 121, 122, 123, 124, 125, 126, 127, 128, 129, 130, 131, 132, 133, 134, 135, 136, 137, 138, 139, 140, 141, 142, 143, 144, 145, 146, 147, 148, 149, 150, 151, 152, 153, 154, 155, 156, 157, 158, 159, 160, 161, 162, 163, 164],
      "AcquisitionTime": ["133153.525000", "133155.025000", "133156.525000", "133158.025000", "133159.525000", "133201.025000", "133202.525000", "133204.025000", "133205.525000", "133207.025000", "133208.525000", "133210.025000", "133211.525000", "133213.025000", "133214.525000", "133216.025000", "133217.525000", "133219.025000", "133220.525000", "133222.025000", "133223.525000", "133225.025000", "133226.525000", "133228.025000", "133229.525000", "133231.025000", "133232.525000", "133234.025000", "133235.525000", "133237.025000", "133238.525000", "133240.025000", "133241.525000", "133243.025000", "133244.525000", "133246.025000", "133247.525000", "133249.025000", "133250.525000", "133252.025000", "133253.525000", "133255.025000", "133256.525000", "133258.025000", "133259.525000", "133301.025000", "133302.525000", "133304.025000", "133305.525000", "133307.025000", "133308.525000", "133310.025000", "133311.525000", "133313.025000", "133314.525000", "133316.025000", "133317.525000", "133319.025000", "133320.525000", "133322.025000", "133323.525000", "133325.025000", "133326.525000", "133328.025000", "133329.525000", "133331.025000", "133332.525000", "133334.025000", "133335.525000", "133337.025000", "133338.525000", "133340.025000", "133341.525000", "133343.025000", "133344.525000", "133346.025000", "133347.525000", "133349.025000", "133350.525000", "133352.025000", "133353.525000", "133355.025000", "133356.525000", "133358.025000", "133359.525000", "133401.025000", "133402.525000", "133404.025000", "133405.525000", "133407.025000", "133408.525000", "133410.025000", "133411.525000", "133413.025000", "133414.525000", "133416.025000", "133417.525000", "133419.025000", "133420.525000", "133422.025000", "133423.525000", "133425.025000", "133426.525000", "133428.025000", "133429.525000", "133431.025000", "133432.525000", "133434.025000", "133435.525000", "133437.025000", "133438.525000", "133440.025000", "133441.525000", "133443.025000", "133444.525000", "133446.025000", "133447.525000", "133449.025000", "133450.525000", "133452.025000", "133453.525000", "133455.025000", "133456.525000", "133458.025000", "133459.525000", "133501.025000", "133502.525000", "133504.025000", "133505.525000", "133507.025000", "133508.525000", "133510.025000", "133511.525000", "133513.025000", "133514.525000", "133516.025000", "133517.525000", "133519.025000", "133520.525000", "133522.025000", "133523.525000", "133525.025000", "133526.525000", "133528.025000", "133529.525000", "133531.025000", "133532.525000", "133534.025000", "133535.525000", "133537.025000", "133538.525000", "133540.025000", "133541.525000", "133543.025000", "133544.525000", "133546.025000", "133547.525000", "133549.025000", "133550.525000", "133552.025000", "133553.525000", "133555.025000", "133556.525000", "133558.025000"],
      "ContentTime": ["133243.103000", "133243.107000", "133243.110000", "133243.113000", "133243.116000", "133243.119000", "133243.122000", "133243.125000", "133243.128000", "133243.131000", "133243.134000", "133243.137000", "133243.140000", "133243.143000", "133243.146000", "133243.149000", "133243.152000", "133243.155000", "133243.158000", "133243.161000", "133243.168000", "133243.170000", "133243.173000", "133243.176000", "133243.180000", "133243.182000", "133243.185000", "133243.188000", "133243.191000", "133243.194000", "133243.197000", "133243.200000", "133243.203000", "133323.098000", "133323.101000", "133323.104000", "133323.107000", "133323.110000", "133323.120000", "133323.123000", "133323.125000", "133323.129000", "133323.131000", "133323.134000", "133323.137000", "133323.140000", "133323.143000", "133323.146000", "133323.149000", "133323.152000", "133323.155000", "133323.158000", "133323.161000", "133323.164000", "133323.167000", "133323.170000", "133323.173000", "133323.176000", "133323.179000", "133403.097000", "133403.100000", "133403.103000", "133403.106000", "133403.109000", "133403.112000", "133403.115000", "133403.118000", "133403.121000", "133403.124000", "133403.127000", "133403.130000", "133403.133000", "133403.136000", "133403.138000", "133403.141000", "133403.145000", "133403.148000", "133403.151000", "133403.153000", "133403.157000", "133403.159000", "133403.162000", "133403.165000", "133403.168000", "133403.171000", "133403.174000", "133443.098000", "133443.101000", "133443.104000", "133443.107000", "133443.110000", "133443.113000", "133443.116000", "133443.119000", "133443.122000", "133443.125000", "133443.128000", "133443.131000", "133443.134000", "133443.137000", "133443.140000", "133443.143000", "133443.146000", "133443.149000", "133443.152000", "133443.155000", "133443.158000", "133443.160000", "133443.163000", "133443.166000", "133443.169000", "133443.172000", "133443.175000", "133523.098000", "133523.101000", "133523.104000", "133523.107000", "133523.110000", "133523.113000", "133523.116000", "133523.119000", "133523.122000", "133523.125000", "133523.128000", "133523.131000", "133523.135000", "133523.138000", "133523.141000", "133523.144000", "133523.147000", "133523.150000", "133523.161000", "133523.163000", "133523.167000", "133523.170000", "133523.173000", "133523.176000", "133523.200000", "133523.203000", "133559.177000", "133559.181000", "133559.184000", "133559.187000", "133559.191000", "133559.194000", "133559.197000", "133559.200000", "133559.204000", "133559.207000", "133559.210000", "133559.214000", "133559.218000", "133559.221000", "133559.225000", "133559.228000", "133559.232000", "133559.235000", "133559.238000", "133559.241000", "133559.244000", "133559.247000", "133559.250000", "133559.253000", "133559.256000"],
      "InstanceCreationTime": ["133243.103000", "133243.107000", "133243.110000", "133243.113000", "133243.116000", "133243.119000", "133243.122000", "133243.125000", "133243.128000", "133243.131000", "133243.134000", "133243.137000", "133243.140000", "133243.143000", "133243.146000", "133243.149000", "133243.152000", "133243.155000", "133243.158000", "133243.161000", "133243.168000", "133243.170000", "133243.173000", "133243.176000", "133243.180000", "133243.182000", "133243.185000", "133243.188000", "133243.191000", "133243.194000", "133243.197000", "133243.200000", "133243.203000", "133323.098000", "133323.101000", "133323.104000", "133323.107000", "133323.110000", "133323.120000", "133323.123000", "133323.125000", "133323.129000", "133323.131000", "133323.134000", "133323.137000", "133323.140000", "133323.143000", "133323.146000", "133323.149000", "133323.152000", "133323.155000", "133323.158000", "133323.161000", "133323.164000", "133323.167000", "133323.170000", "133323.173000", "133323.176000", "133323.179000", "133403.097000", "133403.100000", "133403.103000", "133403.106000", "133403.109000", "133403.112000", "133403.115000", "133403.118000", "133403.121000", "133403.124000", "133403.127000", "133403.130000", "133403.133000", "133403.136000", "133403.138000", "133403.141000", "133403.145000", "133403.148000", "133403.151000", "133403.153000", "133403.157000", "133403.159000", "133403.162000", "133403.165000", "133403.168000", "133403.171000", "133403.174000", "133443.098000", "133443.101000", "133443.104000", "133443.107000", "133443.110000", "133443.113000", "133443.116000", "133443.119000", "133443.122000", "133443.125000", "133443.128000", "133443.131000", "133443.134000", "133443.137000", "133443.140000", "133443.143000", "133443.146000", "133443.149000", "133443.152000", "133443.155000", "133443.158000", "133443.160000", "133443.163000", "133443.166000", "133443.169000", "133443.172000", "133443.175000", "133523.098000", "133523.101000", "133523.104000", "133523.107000", "133523.110000", "133523.113000", "133523.116000", "133523.119000", "133523.122000", "133523.125000", "133523.128000", "133523.131000", "133523.135000", "133523.138000", "133523.141000", "133523.144000", "133523.147000", "133523.150000", "133523.161000", "133523.163000", "133523.167000", "133523.170000", "133523.173000", "133523.176000", "133523.200000", "133523.203000", "133559.177000", "133559.181000", "133559.184000", "133559.187000", "133559.191000", "133559.194000", "133559.197000", "133559.200000", "133559.204000", "133559.207000", "133559.210000", "133559.214000", "133559.218000", "133559.221000", "133559.225000", "133559.228000", "133559.232000", "133559.235000", "133559.238000", "133559.241000", "133559.244000", "133559.247000", "133559.250000", "133559.253000", "133559.256000"],
      "InstanceNumber": [1, 2, 3, 4, 5, 6, 7, 8, 9, 10, 11, 12, 13, 14, 15, 16, 17, 18, 19, 20, 21, 22, 23, 24, 25, 26, 27, 28, 29, 30, 31, 32, 33, 34, 35, 36, 37, 38, 39, 40, 41, 42, 43, 44, 45, 46, 47, 48, 49, 50, 51, 52, 53, 54, 55, 56, 57, 58, 59, 60, 61, 62, 63, 64, 65, 66, 67, 68, 69, 70, 71, 72, 73, 74, 75, 76, 77, 78, 79, 80, 81, 82, 83, 84, 85, 86, 87, 88, 89, 90, 91, 92, 93, 94, 95, 96, 97, 98, 99, 100, 101, 102, 103, 104, 105, 106, 107, 108, 109, 110, 111, 112, 113, 114, 115, 116, 117, 118, 119, 120, 121, 122, 123, 124, 125, 126, 127, 128, 129, 130, 131, 132, 133, 134, 135, 136, 137, 138, 139, 140, 141, 142, 143, 144, 145, 146, 147, 148, 149, 150, 151, 152, 153, 154, 155, 156, 157, 158, 159, 160, 161, 162, 163, 164],
      "LargestImagePixelValue": [2653, 2550, 2575, 2547, 2551, 2511, 2575, 2544, 2580, 2523, 2587, 2524, 2587, 2560, 2579, 2561, 2604, 2580, 2600, 2614, 2618, 2583, 2605, 2585, 2596, 2569, 2600, 2588, 2626, 2606, 2595, 2612, 2619, 2596, 2626, 2592, 2605, 2616, 2599, 2587, 2597, 2613, 2589, 2603, 2608, 2586, 2620, 2620, 2610, 2632, 2608, 2601, 2549, 2581, 2600, 2606, 2622, 2589, 2615, 2611, 2612, 2606, 2627, 2606, 2621, 2603, 2608, 2624, 2602, 2585, 2603, 2618, 2611, 2627, 2618, 2647, 2604, 2607, 2574, 2587, 2605, 2613, 2584, 2592, 2606, 2616, 2609, 2585, 2586, 2608, 2583, 2600, 2622, 2585, 2604, 2594, 2622, 2595, 2592, 2597, 2599, 2581, 2590, 2597, 2613, 2619, 2593, 2623, 2612, 2631, 2621, 2606, 2633, 2593, 2603, 2571, 2613, 2574, 2603, 2582, 2585, 2578, 2592, 2579, 2580, 2575, 2601, 2590, 2566, 2590, 2562, 2577, 2558, 2593, 2542, 2584, 2566, 2585, 2559, 2533, 2581, 2530, 2576, 2516, 2596, 2518, 2540, 2527, 2604, 2510, 2534, 2518, 2515, 2502, 2571, 2507, 2534, 2521, 2509, 2541, 2491, 2526, 2461, 2538],
      "WindowCenter": [716.0, 714.0, 714.0, 715.0, 715.0, 714.0, 714.0, 715.0, 716.0, 716.0, 716.0, 714.0, 714.0, 714.0, 715.0, 715.0, 715.0, 715.0, 715.0, 716.0, 716.0, 716.0, 716.0, 716.0, 717.0, 716.0, 716.0, 716.0, 717.0, 718.0, 717.0, 716.0, 714.0, 714.0, 714.0, 714.0, 714.0, 713.0, 712.0, 713.0, 714.0, 714.0, 712.0, 712.0, 713.0, 714.0, 715.0, 714.0, 713.0, 712.0, 713.0, 714.0, 715.0, 716.0, 715.0, 715.0, 716.0, 715.0, 714.0, 712.0, 710.0, 710.0, 709.0, 708.0, 707.0, 706.0, 707.0, 708.0, 710.0, 710.0, 711.0, 711.0, 712.0, 713.0, 713.0, 713.0, 713.0, 714.0, 714.0, 715.0, 714.0, 714.0, 714.0, 715.0, 715.0, 715.0, 714.0, 713.0, 712.0, 713.0, 712.0, 712.0, 712.0, 711.0, 712.0, 713.0, 712.0, 712.0, 713.0, 714.0, 714.0, 712.0, 711.0, 711.0, 712.0, 714.0, 714.0, 713.0, 711.0, 710.0, 710.0, 711.0, 712.0, 713.0, 712.0, 711.0, 711.0, 710.0, 711.0, 711.0, 711.0, 711.0, 711.0, 711.0, 712.0, 711.0, 711.0, 711.0, 712.0, 713.0, 712.0, 711.0, 710.0, 710.0, 712.0, 713.0, 712.0, 711.0, 710.0, 710.0, 710.0, 711.0, 711.0, 710.0, 710.0, 710.0, 711.0, 711.0, 711.0, 710.0, 711.0, 711.0, 712.0, 711.0, 712.0, 711.0, 711.0, 710.0, 708.0, 707.0, 706.0, 707.0, 707.0, 706.0],
      "WindowWidth": [1562.0, 1555.0, 1556.0, 1558.0, 1557.0, 1555.0, 1554.0, 1557.0, 1561.0, 1561.0, 1559.0, 1555.0, 1554.0, 1555.0, 1557.0, 1558.0, 1558.0, 1558.0, 1558.0, 1559.0, 1560.0, 1560.0, 1562.0, 1561.0, 1563.0, 1561.0, 1561.0, 1560.0, 1564.0, 1566.0, 1564.0, 1559.0, 1554.0, 1554.0, 1554.0, 1554.0, 1554.0, 1552.0, 1550.0, 1552.0, 1555.0, 1553.0, 1550.0, 1548.0, 1551.0, 1553.0, 1556.0, 1553.0, 1551.0, 1549.0, 1551.0, 1555.0, 1557.0, 1559.0, 1558.0, 1558.0, 1560.0, 1558.0, 1554.0, 1549.0, 1544.0, 1543.0, 1542.0, 1537.0, 1534.0, 1532.0, 1535.0, 1539.0, 1543.0, 1544.0, 1546.0, 1546.0, 1549.0, 1552.0, 1552.0, 1552.0, 1552.0, 1554.0, 1556.0, 1556.0, 1556.0, 1555.0, 1555.0, 1556.0, 1557.0, 1557.0, 1554.0, 1551.0, 1549.0, 1551.0, 1550.0, 1550.0, 1549.0, 1547.0, 1549.0, 1551.0, 1550.0, 1550.0, 1552.0, 1554.0, 1554.0, 1550.0, 1546.0, 1545.0, 1549.0, 1553.0, 1554.0, 1551.0, 1547.0, 1543.0, 1543.0, 1546.0, 1550.0, 1551.0, 1549.0, 1547.0, 1546.0, 1544.0, 1546.0, 1546.0, 1546.0, 1546.0, 1546.0, 1547.0, 1548.0, 1547.0, 1547.0, 1547.0, 1550.0, 1551.0, 1550.0, 1547.0, 1543.0, 1544.0, 1548.0, 1552.0, 1550.0, 1547.0, 1542.0, 1542.0, 1544.0, 1545.0, 1545.0, 1542.0, 1543.0, 1544.0, 1546.0, 1546.0, 1547.0, 1544.0, 1546.0, 1547.0, 1548.0, 1545.0, 1547.0, 1547.0, 1545.0, 1542.0, 1537.0, 1534.0, 1533.0, 1534.0, 1533.0, 1533.0]
    },
    "slices": {}
  }
}