{
  "AcquisitionMatrixPE": 72,
  "AcquisitionNumber": 1,
  "AcquisitionTime": "13:38:1.242500",
  "BandwidthPerPixelPhaseEncode": 17.943,
  "BaseResolution": 96,
  "BodyPartExamined": "BRAIN",
  "CoilCombinationMethod": "Sum of Squares",
  "ConsistencyInfo": "N4_VE11C_LATEST_20160120",
  "ConversionSoftware": "dcm2niix",
  "ConversionSoftwareVersion": "v1.0.20211006",
  "DerivedVendorReportedEchoSpacing": 0.000552897,
  "DeviceSerialNumber": "166011",
  "EchoTime": 0.03,
  "EchoTrainLength": 58,
  "EffectiveEchoSpacing": 0.000580542,
  "FlipAngle": 62,
  "ImageOrientationPatientDICOM": [0.998537, 0.019561, 0.0504107, -0.0116771, 0.988283, -0.152185],
  "ImageType": [
    "ORIGINAL",
    "PRIMARY",
    "M",
    "ND",
    "MOSAIC"
],
  "ImagingFrequency": 123.26,
  "InPlanePhaseEncodingDirectionDICOM": "COL",
  "InstitutionAddress": "West 130th Street 610,NY,NYC,US,10025",
  "InstitutionName": "MBBI",
  "MRAcquisitionType": "2D",
  "MagneticFieldStrength": 3,
  "Manufacturer": "Siemens",
  "ManufacturersModelName": "Prisma",
  "Modality": "MR",
  "MultibandAccelerationFactor": 3,
  "PartialFourier": 0.75,
  "PatientPosition": "HFS",
  "PercentPhaseFOV": 100,
  "PercentSampling": 75,
  "PhaseEncodingDirection": "j-",
  "PhaseEncodingSteps": 58,
  "PhaseOversampling": 0.05,
  "PhaseResolution": 0.75,
  "PixelBandwidth": 2265,
  "ProcedureStepDescription": "White^Word_recognition",
  "ProtocolName": "func_catLoc_run1",
  "PulseSequenceDetails": "%SiemensSeq%\\ep2d_bold",
  "ReceiveCoilActiveElements": "HC1-7",
  "ReceiveCoilName": "HeadNeck_64",
  "ReconMatrixPE": 96,
  "RefLinesPE": 40,
  "RepetitionTime": 1.5,
  "SAR": 0.0489384,
  "ScanOptions": "PFP\\FS",
  "ScanningSequence": "EP",
  "SequenceName": "*epfid2d1_72",
  "SequenceVariant": "SK\\OSP",
  "SeriesDescription": "func_catLoc_run1",
  "SeriesNumber": 10,
  "ShimSetting": [-1118, -1345, 691, 542, -83, 82, 41, 1],
  "SliceThickness": 2,
  "SliceTiming": [1.0775, 0, 0.74, 0.0675, 0.8075, 0.135, 0.875, 0.2025, 0.9425, 0.27, 1.01, 0.405, 1.145, 0.47, 1.21, 0.5375, 1.2775, 0.605, 1.345, 0.6725, 1.4125, 0.3375, 1.0775, 0, 0.74, 0.0675, 0.8075, 0.135, 0.875, 0.2025, 0.9425, 0.27, 1.01, 0.405, 1.145, 0.47, 1.21, 0.5375, 1.2775, 0.605, 1.345, 0.6725, 1.4125, 0.3375, 1.0775, 0, 0.74, 0.0675, 0.8075, 0.135, 0.875, 0.2025, 0.9425, 0.27, 1.01, 0.405, 1.145, 0.47, 1.21, 0.5375, 1.2775, 0.605, 1.345, 0.6725, 1.4125, 0.3375],
  "SoftwareVersions": "syngo MR E11",
  "SpacingBetweenSlices": 2,
  "StationName": "AWP166011",
  "TaskName": "catLoc",
  "TotalReadoutTime": 0.0551515,
  "TxRefAmp": 218.606,
  "dcmmeta_affine": [
    [-1.997074007987976, -0.023354237899184227, 0.10559385269880295, 92.73981475830078],
    [-0.039121948182582855, 1.9765660762786865, -0.30274707078933716, -69.62374114990234],
    [0.10082140564918518, 0.3043696880340576, 1.9741312265396118, -78.43706512451172],
    [0.0, 0.0, 0.0, 1.0]
],
  "dcmmeta_reorient_transform": [
    [0.0, -1.0, 0.0, 95.0],
    [1.0, 0.0, 0.0, 0.0],
    [0.0, 0.0, 1.0, 0.0],
    [0.0, 0.0, 0.0, 1.0]
],
  "dcmmeta_shape": [96, 96, 66, 214],
  "dcmmeta_slice_dim": 2,
  "dcmmeta_version": 0.6,
  "global": {
    "const": {
      "AcquisitionMatrix": [96, 0, 0, 72],
      "AngioFlag": "N",
      "BitsAllocated": 16,
      "BitsStored": 12,
      "BodyPartExamined": "BRAIN",
      "Columns": 864,
      "EchoNumbers": 1,
      "EchoTime": 30.0,
      "EchoTrainLength": 58,
      "FlipAngle": 62.0,
      "HighBit": 11,
      "ImageOrientationPatient": [0.99853699447404, 0.01956097442457, 0.05041070269612, -0.0116771187432, 0.98828306639537, -0.1521848401584],
      "ImagePositionPatient": [-848.42954590892, -892.17426588634, 28.640591736384],
      "ImageType": [
        "ORIGINAL",
        "PRIMARY",
        "M",
        "ND",
        "MOSAIC"
],
      "ImagedNucleus": "1H",
      "ImagingFrequency": 123.259517,
      "InPlanePhaseEncodingDirection": "COL",
      "MRAcquisitionType": "2D",
      "MagneticFieldStrength": 3.0,
      "Manufacturer": "SIEMENS",
      "ManufacturerModelName": "Prisma",
      "Modality": "MR",
      "NumberOfAverages": 1.0,
      "NumberOfPhaseEncodingSteps": 58,
      "PercentPhaseFieldOfView": 100.0,
      "PercentSampling": 75.0,
      "PerformedProcedureStepStartTime": "125540.153000",
      "PhotometricInterpretation": "MONOCHROME2",
      "PixelBandwidth": 2265.0,
      "PixelRepresentation": 0,
      "PixelSpacing": [2.0, 2.0],
      "ProtocolName": "func_catLoc_run1",
      "RepetitionTime": 1500.0,
      "Rows": 864,
      "SAR": 0.04893843501322,
      "SamplesPerPixel": 1,
      "ScanOptions": [
        "PFP",
        "FS"
],
      "ScanningSequence": "EP",
      "SequenceName": "*epfid2d1_72",
      "SequenceVariant": [
        "SK",
        "OSP"
],
      "SeriesDescription": "func_catLoc_run1",
      "SeriesNumber": 10,
      "SeriesTime": "133837.493000",
      "SliceLocation": -61.986961222527,
      "SliceThickness": 2.0,
      "SmallestImagePixelValue": 0,
      "SoftwareVersions": "syngo MR E11",
      "SpacingBetweenSlices": 2.0000000117618,
      "SpecificCharacterSet": "ISO_IR 100",
      "StudyID": "1",
      "StudyTime": "125540.089000",
      "TransmitCoilName": "Body",
      "VariableFlipAngleFlag": "N",
      "WindowCenterWidthExplanation": "Algo1",
      "dBdt": 0.0},
    "slices": {}
  },
  "time": {
    "samples": {
      "AcquisitionNumber": [1, 2, 3, 4, 5, 6, 7, 8, 9, 10, 11, 12, 13, 14, 15, 16, 17, 18, 19, 20, 21, 22, 23, 24, 25, 26, 27, 28, 29, 30, 31, 32, 33, 34, 35, 36, 37, 38, 39, 40, 41, 42, 43, 44, 45, 46, 47, 48, 49, 50, 51, 52, 53, 54, 55, 56, 57, 58, 59, 60, 61, 62, 63, 64, 65, 66, 67, 68, 69, 70, 71, 72, 73, 74, 75, 76, 77, 78, 79, 80, 81, 82, 83, 84, 85, 86, 87, 88, 89, 90, 91, 92, 93, 94, 95, 96, 97, 98, 99, 100, 101, 102, 103, 104, 105, 106, 107, 108, 109, 110, 111, 112, 113, 114, 115, 116, 117, 118, 119, 120, 121, 122, 123, 124, 125, 126, 127, 128, 129, 130, 131, 132, 133, 134, 135, 136, 137, 138, 139, 140, 141, 142, 143, 144, 145, 146, 147, 148, 149, 150, 151, 152, 153, 154, 155, 156, 157, 158, 159, 160, 161, 162, 163, 164, 165, 166, 167, 168, 169, 170, 171, 172, 173, 174, 175, 176, 177, 178, 179, 180, 181, 182, 183, 184, 185, 186, 187, 188, 189, 190, 191, 192, 193, 194, 195, 196, 197, 198, 199, 200, 201, 202, 203, 204, 205, 206, 207, 208, 209, 210, 211, 212, 213, 214],
      "AcquisitionTime": ["133801.242500", "133802.742500", "133804.242500", "133805.742500", "133807.242500", "133808.742500", "133810.242500", "133811.742500", "133813.242500", "133814.742500", "133816.242500", "133817.742500", "133819.242500", "133820.742500", "133822.242500", "133823.742500", "133825.242500", "133826.742500", "133828.242500", "133829.742500", "133831.242500", "133832.742500", "133834.242500", "133835.742500", "133837.242500", "133838.742500", "133840.242500", "133841.742500", "133843.242500", "133844.742500", "133846.242500", "133847.742500", "133849.242500", "133850.742500", "133852.242500", "133853.742500", "133855.242500", "133856.742500", "133858.242500", "133859.742500", "133901.242500", "133902.742500", "133904.242500", "133905.742500", "133907.242500", "133908.742500", "133910.242500", "133911.742500", "133913.242500", "133914.742500", "133916.242500", "133917.742500", "133919.242500", "133920.742500", "133922.242500", "133923.742500", "133925.242500", "133926.742500", "133928.242500", "133929.742500", "133931.242500", "133932.742500", "133934.242500", "133935.742500", "133937.242500", "133938.742500", "133940.242500", "133941.742500", "133943.242500", "133944.742500", "133946.242500", "133947.742500", "133949.242500", "133950.742500", "133952.242500", "133953.742500", "133955.242500", "133956.742500", "133958.242500", "133959.742500", "134001.242500", "134002.742500", "134004.242500", "134005.742500", "134007.242500", "134008.742500", "134010.242500", "134011.742500", "134013.242500", "134014.742500", "134016.242500", "134017.742500", "134019.242500", "134020.742500", "134022.242500", "134023.742500", "134025.242500", "134026.742500", "134028.242500", "134029.742500", "134031.242500", "134032.742500", "134034.242500", "134035.742500", "134037.242500", "134038.742500", "134040.242500", "134041.742500", "134043.242500", "134044.742500", "134046.242500", "134047.742500", "134049.242500", "134050.742500", "134052.242500", "134053.742500", "134055.242500", "134056.742500", "134058.242500", "134059.742500", "134101.242500", "134102.742500", "134104.242500", "134105.742500", "134107.242500", "134108.742500", "134110.242500", "134111.742500", "134113.242500", "134114.742500", "134116.242500", "134117.742500", "134119.242500", "134120.742500", "134122.242500", "134123.742500", "134125.242500", "134126.742500", "134128.242500", "134129.742500", "134131.242500", "134132.742500", "134134.242500", "134135.742500", "134137.242500", "134138.742500", "134140.242500", "134141.742500", "134143.242500", "134144.742500", "134146.242500", "134147.742500", "134149.242500", "134150.742500", "134152.242500", "134153.742500", "134155.242500", "134156.742500", "134158.242500", "134159.742500", "134201.242500", "134202.742500", "134204.242500", "134205.742500", "134207.242500", "134208.742500", "134210.242500", "134211.742500", "134213.242500", "134214.742500", "134216.242500", "134217.742500", "134219.242500", "134220.742500", "134222.242500", "134223.742500", "134225.242500", "134226.742500", "134228.242500", "134229.742500", "134231.242500", "134232.742500", "134234.242500", "134235.742500", "134237.242500", "134238.742500", "134240.242500", "134241.742500", "134243.242500", "134244.742500", "134246.242500", "134247.742500", "134249.242500", "134250.742500", "134252.242500", "134253.742500", "134255.242500", "134256.742500", "134258.242500", "134259.742500", "134301.242500", "134302.742500", "134304.242500", "134305.742500", "134307.242500", "134308.742500", "134310.242500", "134311.742500", "134313.242500", "134314.742500", "134316.242500", "134317.742500", "134319.242500", "134320.742500"],
      "ContentTime": ["133837.497000", "133837.501000", "133837.504000", "133837.507000", "133837.521000", "133837.524000", "133837.527000", "133837.530000", "133837.533000", "133837.536000", "133837.539000", "133837.544000", "133837.547000", "133837.550000", "133837.553000", "133837.556000", "133837.559000", "133837.570000", "133837.573000", "133837.576000", "133837.579000", "133837.582000", "133837.585000", "133837.588000", "133917.491000", "133917.495000", "133917.507000", "133917.509000", "133917.512000", "133917.516000", "133917.518000", "133917.521000", "133917.524000", "133917.527000", "133917.530000", "133917.533000", "133917.536000", "133917.539000", "133917.542000", "133917.545000", "133917.548000", "133917.551000", "133917.554000", "133917.557000", "133917.566000", "133917.569000", "133917.572000", "133917.575000", "133917.578000", "133917.581000", "133917.584000", "133957.492000", "133957.495000", "133957.498000", "133957.501000", "133957.504000", "133957.507000", "133957.510000", "133957.513000", "133957.516000", "133957.519000", "133957.522000", "133957.531000", "133957.534000", "133957.537000", "133957.540000", "133957.543000", "133957.546000", "133957.549000", "133957.552000", "133957.555000", "133957.558000", "133957.561000", "133957.563000", "133957.566000", "133957.569000", "133957.572000", "134037.492000", "134037.495000", "134037.498000", "134037.501000", "134037.504000", "134037.507000", "134037.510000", "134037.513000", "134037.516000", "134037.519000", "134037.538000", "134037.541000", "134037.544000", "134037.547000", "134037.550000", "134037.553000", "134037.555000", "134037.558000", "134037.561000", "134037.564000", "134037.567000", "134037.570000", "134037.573000", "134037.576000", "134037.579000", "134037.582000", "134037.585000", "134117.491000", "134117.494000", "134117.497000", "134117.500000", "134117.503000", "134117.506000", "134117.509000", "134117.512000", "134117.515000", "134117.518000", "134117.521000", "134117.524000", "134117.527000", "134117.531000", "134117.534000", "134117.537000", "134117.540000", "134117.543000", "134117.546000", "134117.549000", "134117.552000", "134117.555000", "134117.558000", "134117.561000", "134117.563000", "134117.567000", "134117.570000", "134157.492000", "134157.495000", "134157.498000", "134157.501000", "134157.504000", "134157.507000", "134157.511000", "134157.514000", "134157.517000", "134157.520000", "134157.523000", "134157.526000", "134157.529000", "134157.532000", "134157.535000", "134157.538000", "134157.541000", "134157.544000", "134157.547000", "134157.550000", "134157.553000", "134157.556000", "134157.559000", "134157.562000", "134157.565000", "134157.568000", "134237.492000", "134237.495000", "134237.498000", "134237.501000", "134237.504000", "134237.507000", "134237.510000", "134237.513000", "134237.516000", "134237.519000", "134237.522000", "134237.525000", "134237.528000", "134237.531000", "134237.534000", "134237.537000", "134237.540000", "134237.543000", "134237.546000", "134237.549000", "134237.552000", "134237.555000", "134237.558000", "134237.561000", "134237.564000", "134237.567000", "134237.570000", "134317.492000", "134317.495000", "134317.498000", "134317.501000", "134317.504000", "134317.507000", "134317.510000", "134317.513000", "134317.516000", "134317.519000", "134317.522000", "134317.525000", "134317.528000", "134317.531000", "134317.534000", "134317.537000", "134317.540000", "134317.543000", "134317.546000", "134317.549000", "134317.552000", "134317.555000", "134317.558000", "134317.561000", "134317.563000", "134317.566000", "134317.569000", "134321.500000", "134321.503000", "134321.506000"],
      "InstanceCreationTime": ["133837.497000", "133837.501000", "133837.504000", "133837.507000", "133837.521000", "133837.524000", "133837.527000", "133837.530000", "133837.533000", "133837.536000", "133837.539000", "133837.544000", "133837.547000", "133837.550000", "133837.553000", "133837.556000", "133837.559000", "133837.570000", "133837.573000", "133837.576000", "133837.579000", "133837.582000", "133837.585000", "133837.588000", "133917.491000", "133917.495000", "133917.507000", "133917.509000", "133917.512000", "133917.516000", "133917.518000", "133917.521000", "133917.524000", "133917.527000", "133917.530000", "133917.533000", "133917.536000", "133917.539000", "133917.542000", "133917.545000", "133917.548000", "133917.551000", "133917.554000", "133917.557000", "133917.566000", "133917.569000", "133917.572000", "133917.575000", "133917.578000", "133917.581000", "133917.584000", "133957.492000", "133957.495000", "133957.498000", "133957.501000", "133957.504000", "133957.507000", "133957.510000", "133957.513000", "133957.516000", "133957.519000", "133957.522000", "133957.531000", "133957.534000", "133957.537000", "133957.540000", "133957.543000", "133957.546000", "133957.549000", "133957.552000", "133957.555000", "133957.558000", "133957.561000", "133957.563000", "133957.566000", "133957.569000", "133957.572000", "134037.492000", "134037.495000", "134037.498000", "134037.501000", "134037.504000", "134037.507000", "134037.510000", "134037.513000", "134037.516000", "134037.519000", "134037.538000", "134037.541000", "134037.544000", "134037.547000", "134037.550000", "134037.553000", "134037.555000", "134037.558000", "134037.561000", "134037.564000", "134037.567000", "134037.570000", "134037.573000", "134037.576000", "134037.579000", "134037.582000", "134037.585000", "134117.491000", "134117.494000", "134117.497000", "134117.500000", "134117.503000", "134117.506000", "134117.509000", "134117.512000", "134117.515000", "134117.518000", "134117.521000", "134117.524000", "134117.527000", "134117.531000", "134117.534000", "134117.537000", "134117.540000", "134117.543000", "134117.546000", "134117.549000", "134117.552000", "134117.555000", "134117.558000", "134117.561000", "134117.563000", "134117.567000", "134117.570000", "134157.492000", "134157.495000", "134157.498000", "134157.501000", "134157.504000", "134157.507000", "134157.511000", "134157.514000", "134157.517000", "134157.520000", "134157.523000", "134157.526000", "134157.529000", "134157.532000", "134157.535000", "134157.538000", "134157.541000", "134157.544000", "134157.547000", "134157.550000", "134157.553000", "134157.556000", "134157.559000", "134157.562000", "134157.565000", "134157.568000", "134237.492000", "134237.495000", "134237.498000", "134237.501000", "134237.504000", "134237.507000", "134237.510000", "134237.513000", "134237.516000", "134237.519000", "134237.522000", "134237.525000", "134237.528000", "134237.531000", "134237.534000", "134237.537000", "134237.540000", "134237.543000", "134237.546000", "134237.549000", "134237.552000", "134237.555000", "134237.558000", "134237.561000", "134237.564000", "134237.567000", "134237.570000", "134317.492000", "134317.495000", "134317.498000", "134317.501000", "134317.504000", "134317.507000", "134317.510000", "134317.513000", "134317.516000", "134317.519000", "134317.522000", "134317.525000", "134317.528000", "134317.531000", "134317.534000", "134317.537000", "134317.540000", "134317.543000", "134317.546000", "134317.549000", "134317.552000", "134317.555000", "134317.558000", "134317.561000", "134317.563000", "134317.566000", "134317.569000", "134321.500000", "134321.503000", "134321.506000"],
      "InstanceNumber": [1, 2, 3, 4, 5, 6, 7, 8, 9, 10, 11, 12, 13, 14, 15, 16, 17, 18, 19, 20, 21, 22, 23, 24, 25, 26, 27, 28, 29, 30, 31, 32, 33, 34, 35, 36, 37, 38, 39, 40, 41, 42, 43, 44, 45, 46, 47, 48, 49, 50, 51, 52, 53, 54, 55, 56, 57, 58, 59, 60, 61, 62, 63, 64, 65, 66, 67, 68, 69, 70, 71, 72, 73, 74, 75, 76, 77, 78, 79, 80, 81, 82, 83, 84, 85, 86, 87, 88, 89, 90, 91, 92, 93, 94, 95, 96, 97, 98, 99, 100, 101, 102, 103, 104, 105, 106, 107, 108, 109, 110, 111, 112, 113, 114, 115, 116, 117, 118, 119, 120, 121, 122, 123, 124, 125, 126, 127, 128, 129, 130, 131, 132, 133, 134, 135, 136, 137, 138, 139, 140, 141, 142, 143, 144, 145, 146, 147, 148, 149, 150, 151, 152, 153, 154, 155, 156, 157, 158, 159, 160, 161, 162, 163, 164, 165, 166, 167, 168, 169, 170, 171, 172, 173, 174, 175, 176, 177, 178, 179, 180, 181, 182, 183, 184, 185, 186, 187, 188, 189, 190, 191, 192, 193, 194, 195, 196, 197, 198, 199, 200, 201, 202, 203, 204, 205, 206, 207, 208, 209, 210, 211, 212, 213, 214],
      "LargestImagePixelValue": [2529, 2484, 2418, 2469, 2414, 2385, 2527, 2400, 2389, 2393, 2515, 2483, 2381, 2561, 2501, 2517, 2446, 2399, 2595, 2421, 2469, 2418, 2611, 2465, 2456, 2396, 2399, 2441, 2419, 2412, 2382, 2534, 2397, 2415, 2414, 2558, 2442, 2439, 2474, 2510, 2408, 2487, 2476, 2517, 2399, 2564, 2429, 2511, 2426, 2432, 2497, 2385, 2578, 2435, 2471, 2405, 2618, 2418, 2532, 2428, 2600, 2393, 2457, 2390, 2406, 2472, 2393, 2429, 2396, 2535, 2429, 2413, 2545, 2438, 2412, 2414, 2531, 2541, 2398, 2453, 2546, 2506, 2413, 2579, 2400, 2451, 2419, 2519, 2527, 2405, 2531, 2418, 2566, 2421, 2557, 2565, 2440, 2443, 2588, 2556, 2414, 2508, 2462, 2360, 2446, 2381, 2538, 2376, 2458, 2431, 2332, 2369, 2319, 2330, 2313, 2321, 2340, 2334, 2338, 2395, 2331, 2296, 2338, 2433, 2318, 2306, 2351, 2401, 2339, 2350, 2301, 2368, 2302, 2306, 2353, 2326, 2293, 2318, 2346, 2358, 2368, 2309, 2348, 2318, 2334, 2338, 2386, 2320, 2361, 2255, 2262, 2285, 2289, 2288, 2282, 2310, 2298, 2306, 2318, 2324, 2320, 2312, 2329, 2329, 2330, 2324, 2314, 2328, 2320, 2394, 2309, 2335, 2291, 2298, 2384, 2297, 2319, 2290, 2352, 2300, 2296, 2252, 2286, 2322, 2310, 2301, 2296, 2291, 2304, 2321, 2322, 2315, 2333, 2332, 2338, 2315, 2317, 2303, 2331, 2335, 2311, 2331, 2329, 2324, 2356, 2361, 2384, 2325, 2324, 2341, 2340, 2346, 2411, 2330],
      "WindowCenter": [702.0, 701.0, 701.0, 702.0, 701.0, 701.0, 702.0, 702.0, 703.0, 703.0, 704.0, 704.0, 704.0, 705.0, 704.0, 704.0, 704.0, 704.0, 705.0, 704.0, 703.0, 702.0, 703.0, 703.0, 703.0, 703.0, 702.0, 702.0, 702.0, 703.0, 703.0, 704.0, 702.0, 702.0, 702.0, 704.0, 704.0, 703.0, 703.0, 703.0, 703.0, 705.0, 705.0, 705.0, 703.0, 703.0, 703.0, 704.0, 703.0, 702.0, 702.0, 703.0, 705.0, 704.0, 704.0, 702.0, 703.0, 703.0, 704.0, 704.0, 704.0, 702.0, 702.0, 702.0, 703.0, 704.0, 703.0, 703.0, 703.0, 703.0, 703.0, 703.0, 703.0, 703.0, 704.0, 704.0, 705.0, 704.0, 703.0, 705.0, 705.0, 704.0, 703.0, 702.0, 701.0, 703.0, 703.0, 704.0, 703.0, 701.0, 702.0, 702.0, 704.0, 704.0, 704.0, 703.0, 702.0, 704.0, 705.0, 705.0, 703.0, 701.0, 701.0, 704.0, 704.0, 704.0, 704.0, 699.0, 699.0, 696.0, 697.0, 697.0, 697.0, 696.0, 695.0, 694.0, 695.0, 697.0, 698.0, 698.0, 697.0, 697.0, 698.0, 699.0, 697.0, 697.0, 697.0, 698.0, 699.0, 700.0, 698.0, 698.0, 697.0, 697.0, 698.0, 697.0, 697.0, 697.0, 698.0, 698.0, 698.0, 697.0, 697.0, 696.0, 697.0, 697.0, 696.0, 696.0, 695.0, 694.0, 694.0, 692.0, 690.0, 689.0, 688.0, 688.0, 688.0, 688.0, 690.0, 691.0, 693.0, 693.0, 693.0, 694.0, 694.0, 695.0, 696.0, 696.0, 696.0, 696.0, 695.0, 696.0, 696.0, 695.0, 695.0, 694.0, 695.0, 694.0, 694.0, 693.0, 693.0, 692.0, 691.0, 697.0, 698.0, 698.0, 696.0, 693.0, 691.0, 689.0, 690.0, 690.0, 691.0, 693.0, 693.0, 692.0, 693.0, 694.0, 696.0, 697.0, 696.0, 696.0, 695.0, 695.0, 696.0, 698.0, 699.0, 698.0, 698.0, 697.0, 698.0, 699.0, 700.0, 699.0],
      "WindowWidth": [1523.0, 1519.0, 1520.0, 1521.0, 1520.0, 1519.0, 1522.0, 1521.0, 1523.0, 1524.0, 1526.0, 1527.0, 1527.0, 1529.0, 1528.0, 1529.0, 1526.0, 1528.0, 1532.0, 1528.0, 1525.0, 1523.0, 1525.0, 1525.0, 1526.0, 1524.0, 1523.0, 1521.0, 1521.0, 1524.0, 1526.0, 1527.0, 1523.0, 1521.0, 1523.0, 1527.0, 1527.0, 1526.0, 1524.0, 1524.0, 1525.0, 1529.0, 1530.0, 1529.0, 1524.0, 1526.0, 1525.0, 1529.0, 1524.0, 1522.0, 1523.0, 1525.0, 1531.0, 1528.0, 1526.0, 1523.0, 1525.0, 1524.0, 1529.0, 1527.0, 1529.0, 1523.0, 1522.0, 1523.0, 1525.0, 1526.0, 1524.0, 1524.0, 1524.0, 1526.0, 1525.0, 1524.0, 1525.0, 1524.0, 1527.0, 1529.0, 1529.0, 1528.0, 1526.0, 1529.0, 1531.0, 1529.0, 1523.0, 1521.0, 1519.0, 1524.0, 1525.0, 1527.0, 1524.0, 1520.0, 1522.0, 1523.0, 1529.0, 1528.0, 1527.0, 1524.0, 1523.0, 1527.0, 1532.0, 1531.0, 1524.0, 1520.0, 1520.0, 1527.0, 1528.0, 1527.0, 1526.0, 1515.0, 1513.0, 1505.0, 1507.0, 1509.0, 1509.0, 1506.0, 1502.0, 1500.0, 1504.0, 1508.0, 1510.0, 1511.0, 1508.0, 1507.0, 1510.0, 1513.0, 1510.0, 1508.0, 1508.0, 1512.0, 1513.0, 1515.0, 1512.0, 1512.0, 1509.0, 1508.0, 1510.0, 1508.0, 1507.0, 1508.0, 1510.0, 1512.0, 1511.0, 1508.0, 1507.0, 1507.0, 1509.0, 1509.0, 1506.0, 1507.0, 1503.0, 1501.0, 1500.0, 1495.0, 1489.0, 1486.0, 1484.0, 1485.0, 1483.0, 1484.0, 1488.0, 1493.0, 1497.0, 1498.0, 1498.0, 1499.0, 1501.0, 1504.0, 1506.0, 1506.0, 1505.0, 1505.0, 1503.0, 1505.0, 1505.0, 1504.0, 1503.0, 1501.0, 1502.0, 1500.0, 1501.0, 1498.0, 1497.0, 1495.0, 1491.0, 1509.0, 1510.0, 1510.0, 1505.0, 1498.0, 1491.0, 1487.0, 1488.0, 1489.0, 1491.0, 1496.0, 1497.0, 1495.0, 1498.0, 1501.0, 1505.0, 1508.0, 1506.0, 1505.0, 1502.0, 1503.0, 1507.0, 1510.0, 1512.0, 1511.0, 1510.0, 1510.0, 1512.0, 1514.0, 1516.0, 1513.0]
    },
    "slices": {}
  }
}