{
  "AcquisitionMatrixPE": 72,
  "AcquisitionNumber": 1,
  "AcquisitionTime": "13:51:37.105000",
  "BandwidthPerPixelPhaseEncode": 17.943,
  "BaseResolution": 96,
  "BodyPartExamined": "BRAIN",
  "CoilCombinationMethod": "Sum of Squares",
  "ConsistencyInfo": "N4_VE11C_LATEST_20160120",
  "ConversionSoftware": "dcm2niix",
  "ConversionSoftwareVersion": "v1.0.20211006",
  "DerivedVendorReportedEchoSpacing": 0.000552897,
  "DeviceSerialNumber": "166011",
  "EchoTime": 0.03,
  "EchoTrainLength": 58,
  "EffectiveEchoSpacing": 0.000580542,
  "FlipAngle": 62,
  "ImageOrientationPatientDICOM": [0.998881, -0.0151048, 0.0448287, 0.0280757, 0.951997, -0.304817],
  "ImageType": [
    "ORIGINAL",
    "PRIMARY",
    "M",
    "ND",
    "MOSAIC"
],
  "ImagingFrequency": 123.26,
  "InPlanePhaseEncodingDirectionDICOM": "COL",
  "InstitutionAddress": "West 130th Street 610,NY,NYC,US,10025",
  "InstitutionName": "MBBI",
  "MRAcquisitionType": "2D",
  "MagneticFieldStrength": 3,
  "Manufacturer": "Siemens",
  "ManufacturersModelName": "Prisma",
  "Modality": "MR",
  "MultibandAccelerationFactor": 3,
  "PartialFourier": 0.75,
  "PatientPosition": "HFS",
  "PercentPhaseFOV": 100,
  "PercentSampling": 75,
  "PhaseEncodingDirection": "j-",
  "PhaseEncodingSteps": 58,
  "PhaseOversampling": 0.05,
  "PhaseResolution": 0.75,
  "PixelBandwidth": 2265,
  "ProcedureStepDescription": "White^Word_recognition",
  "ProtocolName": "func_vwfate_run3",
  "PulseSequenceDetails": "%SiemensSeq%\\ep2d_bold",
  "ReceiveCoilActiveElements": "HC1-7",
  "ReceiveCoilName": "HeadNeck_64",
  "ReconMatrixPE": 96,
  "RefLinesPE": 40,
  "RepetitionTime": 1.5,
  "SAR": 0.0533752,
  "ScanOptions": "PFP\\FS",
  "ScanningSequence": "EP",
  "SequenceName": "*epfid2d1_72",
  "SequenceVariant": "SK\\OSP",
  "SeriesDescription": "func_vwfate_run3",
  "SeriesNumber": 15,
  "ShimSetting": [-1122, -1322, 674, 493, -77, -29, -21, 9],
  "SliceThickness": 2,
  "SliceTiming": [1.0775, 0, 0.74, 0.0675, 0.8075, 0.135, 0.875, 0.2025, 0.9425, 0.27, 1.01, 0.4025, 1.1425, 0.47, 1.21, 0.5375, 1.2775, 0.605, 1.345, 0.6725, 1.4125, 0.3375, 1.0775, 0, 0.74, 0.0675, 0.8075, 0.135, 0.875, 0.2025, 0.9425, 0.27, 1.01, 0.4025, 1.1425, 0.47, 1.21, 0.5375, 1.2775, 0.605, 1.345, 0.6725, 1.4125, 0.3375, 1.0775, 0, 0.74, 0.0675, 0.8075, 0.135, 0.875, 0.2025, 0.9425, 0.27, 1.01, 0.4025, 1.1425, 0.47, 1.21, 0.5375, 1.2775, 0.605, 1.345, 0.6725, 1.4125, 0.3375],
  "SoftwareVersions": "syngo MR E11",
  "SpacingBetweenSlices": 2,
  "StationName": "AWP166011",
  "TaskName": "vwfate",
  "TotalReadoutTime": 0.0551515,
  "TxRefAmp": 227.313,
  "dcmmeta_affine": [
    [-1.9977610111236572, 0.05615143105387688, 0.076145239174366, 91.56938171386719],
    [0.030209578573703766, 1.9039939641952515, -0.6114690899848938, -65.24723815917969],
    [0.08965747803449631, 0.6096343994140625, 1.9027104377746582, -99.2325210571289],
    [0.0, 0.0, 0.0, 1.0]
],
  "dcmmeta_reorient_transform": [
    [0.0, -1.0, 0.0, 95.0],
    [1.0, 0.0, 0.0, 0.0],
    [0.0, 0.0, 1.0, 0.0],
    [0.0, 0.0, 0.0, 1.0]
],
  "dcmmeta_shape": [96, 96, 66, 164],
  "dcmmeta_slice_dim": 2,
  "dcmmeta_version": 0.6,
  "global": {
    "const": {
      "AcquisitionMatrix": [96, 0, 0, 72],
      "AngioFlag": "N",
      "BitsAllocated": 16,
      "BitsStored": 12,
      "BodyPartExamined": "BRAIN",
      "Columns": 864,
      "EchoNumbers": 1,
      "EchoTime": 30.0,
      "EchoTrainLength": 58,
      "FlipAngle": 62.0,
      "HighBit": 11,
      "ImageOrientationPatient": [0.99888048817198, -0.015104789401, 0.04482873728369, 0.02807571461318, 0.95199697200796, -0.3048171903562],
      "ImagePositionPatient": [-885.60613141536, -835.16538608614, 158.35387751957],
      "ImageType": [
        "ORIGINAL",
        "PRIMARY",
        "M",
        "ND",
        "MOSAIC"
],
      "ImagedNucleus": "1H",
      "ImagingFrequency": 123.25953,
      "InPlanePhaseEncodingDirection": "COL",
      "MRAcquisitionType": "2D",
      "MagneticFieldStrength": 3.0,
      "Manufacturer": "SIEMENS",
      "ManufacturerModelName": "Prisma",
      "Modality": "MR",
      "NumberOfAverages": 1.0,
      "NumberOfPhaseEncodingSteps": 58,
      "PercentPhaseFieldOfView": 100.0,
      "PercentSampling": 75.0,
      "PerformedProcedureStepStartTime": "125540.153000",
      "PhotometricInterpretation": "MONOCHROME2",
      "PixelBandwidth": 2265.0,
      "PixelRepresentation": 0,
      "PixelSpacing": [2.0, 2.0],
      "ProtocolName": "func_vwfate_run3",
      "RepetitionTime": 1500.0,
      "Rows": 864,
      "SAR": 0.053375170358,
      "SamplesPerPixel": 1,
      "ScanOptions": [
        "PFP",
        "FS"
],
      "ScanningSequence": "EP",
      "SequenceName": "*epfid2d1_72",
      "SequenceVariant": [
        "SK",
        "OSP"
],
      "SeriesDescription": "func_vwfate_run3",
      "SeriesNumber": 15,
      "SeriesTime": "135217.493000",
      "SliceLocation": -70.970762184053,
      "SliceThickness": 2.0,
      "SmallestImagePixelValue": 0,
      "SoftwareVersions": "syngo MR E11",
      "SpacingBetweenSlices": 1.999999934387,
      "SpecificCharacterSet": "ISO_IR 100",
      "StudyID": "1",
      "StudyTime": "125540.089000",
      "TransmitCoilName": "Body",
      "VariableFlipAngleFlag": "N",
      "WindowCenterWidthExplanation": "Algo1",
      "dBdt": 0.0},
    "slices": {}
  },
  "time": {
    "samples": {
      "AcquisitionNumber": [1, 2, 3, 4, 5, 6, 7, 8, 9, 10, 11, 12, 13, 14, 15, 16, 17, 18, 19, 20, 21, 22, 23, 24, 25, 26, 27, 28, 29, 30, 31, 32, 33, 34, 35, 36, 37, 38, 39, 40, 41, 42, 43, 44, 45, 46, 47, 48, 49, 50, 51, 52, 53, 54, 55, 56, 57, 58, 59, 60, 61, 62, 63, 64, 65, 66, 67, 68, 69, 70, 71, 72, 73, 74, 75, 76, 77, 78, 79, 80, 81, 82, 83, 84, 85, 86, 87, 88, 89, 90, 91, 92, 93, 94, 95, 96, 97, 98, 99, 100, 101, 102, 103, 104, 105, 106, 107, 108, 109, 110, 111, 112, 113, 114, 115, 116, 117, 118, 119, 120, 121, 122, 123, 124, 125, 126, 127, 128, 129, 130, 131, 132, 133, 134, 135, 136, 137, 138, 139, 140, 141, 142, 143, 144, 145, 146, 147, 148, 149, 150, 151, 152, 153, 154, 155, 156, 157, 158, 159, 160, 161, 162, 163, 164],
      "AcquisitionTime": ["135137.105000", "135138.605000", "135140.105000", "135141.605000", "135143.105000", "135144.605000", "135146.105000", "135147.605000", "135149.105000", "135150.605000", "135152.105000", "135153.605000", "135155.105000", "135156.605000", "135158.105000", "135159.605000", "135201.105000", "135202.605000", "135204.105000", "135205.605000", "135207.105000", "135208.605000", "135210.105000", "135211.605000", "135213.105000", "135214.605000", "135216.105000", "135217.605000", "135219.105000", "135220.605000", "135222.105000", "135223.605000", "135225.105000", "135226.605000", "135228.105000", "135229.605000", "135231.105000", "135232.605000", "135234.105000", "135235.605000", "135237.105000", "135238.605000", "135240.105000", "135241.605000", "135243.105000", "135244.605000", "135246.105000", "135247.605000", "135249.105000", "135250.605000", "135252.105000", "135253.605000", "135255.105000", "135256.605000", "135258.105000", "135259.605000", "135301.105000", "135302.605000", "135304.105000", "135305.605000", "135307.105000", "135308.605000", "135310.105000", "135311.605000", "135313.105000", "135314.605000", "135316.105000", "135317.605000", "135319.105000", "135320.605000", "135322.105000", "135323.605000", "135325.105000", "135326.605000", "135328.105000", "135329.605000", "135331.105000", "135332.605000", "135334.105000", "135335.605000", "135337.105000", "135338.605000", "135340.105000", "135341.605000", "135343.105000", "135344.605000", "135346.105000", "135347.605000", "135349.105000", "135350.605000", "135352.105000", "135353.605000", "135355.105000", "135356.605000", "135358.105000", "135359.605000", "135401.105000", "135402.605000", "135404.105000", "135405.605000", "135407.105000", "135408.605000", "135410.105000", "135411.605000", "135413.105000", "135414.605000", "135416.105000", "135417.605000", "135419.105000", "135420.605000", "135422.105000", "135423.605000", "135425.105000", "135426.605000", "135428.105000", "135429.605000", "135431.105000", "135432.605000", "135434.105000", "135435.605000", "135437.105000", "135438.605000", "135440.105000", "135441.605000", "135443.105000", "135444.605000", "135446.105000", "135447.605000", "135449.105000", "135450.605000", "135452.105000", "135453.605000", "135455.105000", "135456.605000", "135458.105000", "135459.605000", "135501.105000", "135502.605000", "135504.105000", "135505.605000", "135507.105000", "135508.605000", "135510.105000", "135511.605000", "135513.105000", "135514.605000", "135516.105000", "135517.605000", "135519.105000", "135520.605000", "135522.105000", "135523.605000", "135525.105000", "135526.605000", "135528.105000", "135529.605000", "135531.105000", "135532.605000", "135534.105000", "135535.605000", "135537.105000", "135538.605000", "135540.105000", "135541.605000"],
      "ContentTime": ["135217.496000", "135217.500000", "135217.503000", "135217.507000", "135217.514000", "135217.517000", "135217.520000", "135217.524000", "135217.526000", "135217.529000", "135217.532000", "135217.535000", "135217.538000", "135217.542000", "135217.545000", "135217.548000", "135217.551000", "135217.562000", "135217.565000", "135217.568000", "135217.571000", "135217.574000", "135217.577000", "135217.580000", "135217.583000", "135217.586000", "135217.589000", "135257.491000", "135257.494000", "135257.497000", "135257.500000", "135257.503000", "135257.506000", "135257.509000", "135257.512000", "135257.515000", "135257.518000", "135257.521000", "135257.524000", "135257.527000", "135257.530000", "135257.533000", "135257.536000", "135257.539000", "135257.542000", "135257.545000", "135257.548000", "135257.551000", "135257.554000", "135257.557000", "135257.560000", "135257.563000", "135257.566000", "135337.492000", "135337.495000", "135337.498000", "135337.501000", "135337.504000", "135337.507000", "135337.510000", "135337.513000", "135337.516000", "135337.519000", "135337.522000", "135337.534000", "135337.537000", "135337.540000", "135337.543000", "135337.546000", "135337.549000", "135337.552000", "135337.555000", "135337.558000", "135337.561000", "135337.564000", "135337.567000", "135337.570000", "135337.573000", "135337.576000", "135337.579000", "135417.492000", "135417.495000", "135417.498000", "135417.501000", "135417.504000", "135417.507000", "135417.510000", "135417.513000", "135417.516000", "135417.519000", "135417.522000", "135417.525000", "135417.528000", "135417.531000", "135417.534000", "135417.537000", "135417.540000", "135417.543000", "135417.546000", "135417.549000", "135417.552000", "135417.555000", "135417.558000", "135417.561000", "135417.564000", "135417.567000", "135417.570000", "135457.491000", "135457.494000", "135457.497000", "135457.500000", "135457.503000", "135457.506000", "135457.509000", "135457.512000", "135457.515000", "135457.518000", "135457.521000", "135457.524000", "135457.534000", "135457.537000", "135457.540000", "135457.543000", "135457.546000", "135457.549000", "135457.552000", "135457.555000", "135457.558000", "135457.561000", "135457.564000", "135457.567000", "135457.570000", "135457.573000", "135537.491000", "135537.494000", "135537.497000", "135537.500000", "135537.503000", "135537.506000", "135537.509000", "135537.512000", "135537.515000", "135537.518000", "135537.521000", "135537.524000", "135537.527000", "135537.530000", "135537.533000", "135537.536000", "135537.539000", "135537.542000", "135537.545000", "135537.548000", "135537.551000", "135537.554000", "135537.557000", "135537.560000", "135537.563000", "135537.566000", "135537.569000", "135542.867000", "135542.871000", "135542.874000", "135542.877000"],
      "InstanceCreationTime": ["135217.496000", "135217.500000", "135217.503000", "135217.507000", "135217.514000", "135217.517000", "135217.520000", "135217.524000", "135217.526000", "135217.529000", "135217.532000", "135217.535000", "135217.538000", "135217.542000", "135217.545000", "135217.548000", "135217.551000", "135217.562000", "135217.565000", "135217.568000", "135217.571000", "135217.574000", "135217.577000", "135217.580000", "135217.583000", "135217.586000", "135217.589000", "135257.491000", "135257.494000", "135257.497000", "135257.500000", "135257.503000", "135257.506000", "135257.509000", "135257.512000", "135257.515000", "135257.518000", "135257.521000", "135257.524000", "135257.527000", "135257.530000", "135257.533000", "135257.536000", "135257.539000", "135257.542000", "135257.545000", "135257.548000", "135257.551000", "135257.554000", "135257.557000", "135257.560000", "135257.563000", "135257.566000", "135337.492000", "135337.495000", "135337.498000", "135337.501000", "135337.504000", "135337.507000", "135337.510000", "135337.513000", "135337.516000", "135337.519000", "135337.522000", "135337.534000", "135337.537000", "135337.540000", "135337.543000", "135337.546000", "135337.549000", "135337.552000", "135337.555000", "135337.558000", "135337.561000", "135337.564000", "135337.567000", "135337.570000", "135337.573000", "135337.576000", "135337.579000", "135417.492000", "135417.495000", "135417.498000", "135417.501000", "135417.504000", "135417.507000", "135417.510000", "135417.513000", "135417.516000", "135417.519000", "135417.522000", "135417.525000", "135417.528000", "135417.531000", "135417.534000", "135417.537000", "135417.540000", "135417.543000", "135417.546000", "135417.549000", "135417.552000", "135417.555000", "135417.558000", "135417.561000", "135417.564000", "135417.567000", "135417.570000", "135457.491000", "135457.494000", "135457.497000", "135457.500000", "135457.503000", "135457.506000", "135457.509000", "135457.512000", "135457.515000", "135457.518000", "135457.521000", "135457.524000", "135457.534000", "135457.537000", "135457.540000", "135457.543000", "135457.546000", "135457.549000", "135457.552000", "135457.555000", "135457.558000", "135457.561000", "135457.564000", "135457.567000", "135457.570000", "135457.573000", "135537.491000", "135537.494000", "135537.497000", "135537.500000", "135537.503000", "135537.506000", "135537.509000", "135537.512000", "135537.515000", "135537.518000", "135537.521000", "135537.524000", "135537.527000", "135537.530000", "135537.533000", "135537.536000", "135537.539000", "135537.542000", "135537.545000", "135537.548000", "135537.551000", "135537.554000", "135537.557000", "135537.560000", "135537.563000", "135537.566000", "135537.569000", "135542.867000", "135542.871000", "135542.874000", "135542.877000"],
      "InstanceNumber": [1, 2, 3, 4, 5, 6, 7, 8, 9, 10, 11, 12, 13, 14, 15, 16, 17, 18, 19, 20, 21, 22, 23, 24, 25, 26, 27, 28, 29, 30, 31, 32, 33, 34, 35, 36, 37, 38, 39, 40, 41, 42, 43, 44, 45, 46, 47, 48, 49, 50, 51, 52, 53, 54, 55, 56, 57, 58, 59, 60, 61, 62, 63, 64, 65, 66, 67, 68, 69, 70, 71, 72, 73, 74, 75, 76, 77, 78, 79, 80, 81, 82, 83, 84, 85, 86, 87, 88, 89, 90, 91, 92, 93, 94, 95, 96, 97, 98, 99, 100, 101, 102, 103, 104, 105, 106, 107, 108, 109, 110, 111, 112, 113, 114, 115, 116, 117, 118, 119, 120, 121, 122, 123, 124, 125, 126, 127, 128, 129, 130, 131, 132, 133, 134, 135, 136, 137, 138, 139, 140, 141, 142, 143, 144, 145, 146, 147, 148, 149, 150, 151, 152, 153, 154, 155, 156, 157, 158, 159, 160, 161, 162, 163, 164],
      "LargestImagePixelValue": [2551, 2460, 2441, 2395, 2413, 2378, 2412, 2379, 2360, 2357, 2381, 2370, 2378, 2398, 2393, 2385, 2389, 2379, 2373, 2374, 2348, 2374, 2376, 2352, 2363, 2400, 2363, 2410, 2392, 2403, 2386, 2373, 2379, 2395, 2379, 2408, 2390, 2386, 2382, 2377, 2410, 2390, 2408, 2419, 2401, 2426, 2384, 2395, 2379, 2387, 2390, 2362, 2366, 2369, 2397, 2400, 2384, 2391, 2383, 2391, 2354, 2423, 2381, 2372, 2364, 2383, 2372, 2359, 2387, 2462, 2368, 2349, 2315, 2345, 2334, 2353, 2317, 2301, 2303, 2284, 2300, 2308, 2327, 2320, 2309, 2331, 2330, 2325, 2310, 2321, 2304, 2310, 2345, 2349, 2356, 2328, 2386, 2362, 2440, 2386, 2337, 2289, 2285, 2288, 2269, 2293, 2294, 2273, 2249, 2316, 2404, 2352, 2404, 2300, 2356, 2362, 2456, 2374, 2327, 2285, 2290, 2271, 2271, 2265, 2274, 2276, 2267, 2273, 2283, 2308, 2250, 2276, 2307, 2316, 2281, 2294, 2301, 2346, 2372, 2338, 2303, 2284, 2276, 2347, 2327, 2333, 2263, 2295, 2319, 2333, 2309, 2293, 2273, 2360, 2269, 2281, 2260, 2266, 2339, 2251, 2281, 2335, 2348, 2431],
      "WindowCenter": [706.0, 704.0, 704.0, 705.0, 704.0, 703.0, 702.0, 702.0, 704.0, 705.0, 704.0, 702.0, 701.0, 701.0, 702.0, 703.0, 702.0, 702.0, 702.0, 703.0, 702.0, 702.0, 702.0, 703.0, 703.0, 705.0, 705.0, 706.0, 704.0, 703.0, 703.0, 704.0, 705.0, 704.0, 703.0, 702.0, 701.0, 701.0, 702.0, 704.0, 705.0, 704.0, 704.0, 704.0, 704.0, 704.0, 704.0, 704.0, 704.0, 704.0, 703.0, 704.0, 704.0, 703.0, 702.0, 701.0, 701.0, 702.0, 703.0, 703.0, 703.0, 702.0, 701.0, 701.0, 701.0, 702.0, 701.0, 701.0, 702.0, 702.0, 700.0, 698.0, 697.0, 698.0, 698.0, 696.0, 693.0, 691.0, 691.0, 692.0, 694.0, 695.0, 696.0, 696.0, 697.0, 698.0, 700.0, 700.0, 700.0, 701.0, 702.0, 703.0, 703.0, 703.0, 703.0, 702.0, 703.0, 703.0, 704.0, 703.0, 702.0, 701.0, 701.0, 702.0, 702.0, 703.0, 700.0, 701.0, 701.0, 702.0, 704.0, 703.0, 703.0, 701.0, 702.0, 703.0, 705.0, 704.0, 702.0, 700.0, 699.0, 700.0, 701.0, 701.0, 701.0, 700.0, 700.0, 701.0, 702.0, 702.0, 700.0, 700.0, 700.0, 701.0, 701.0, 702.0, 702.0, 702.0, 702.0, 702.0, 701.0, 701.0, 701.0, 701.0, 701.0, 701.0, 701.0, 701.0, 700.0, 700.0, 700.0, 702.0, 701.0, 701.0, 698.0, 697.0, 698.0, 699.0, 699.0, 698.0, 698.0, 700.0, 698.0, 701.0],
      "WindowWidth": [1531.0, 1524.0, 1525.0, 1527.0, 1526.0, 1522.0, 1520.0, 1521.0, 1524.0, 1528.0, 1526.0, 1520.0, 1517.0, 1517.0, 1521.0, 1522.0, 1521.0, 1519.0, 1519.0, 1522.0, 1521.0, 1521.0, 1520.0, 1521.0, 1524.0, 1528.0, 1529.0, 1529.0, 1525.0, 1522.0, 1522.0, 1526.0, 1527.0, 1525.0, 1521.0, 1519.0, 1516.0, 1518.0, 1520.0, 1524.0, 1526.0, 1525.0, 1524.0, 1524.0, 1524.0, 1525.0, 1525.0, 1524.0, 1524.0, 1524.0, 1524.0, 1524.0, 1525.0, 1522.0, 1520.0, 1516.0, 1516.0, 1519.0, 1521.0, 1523.0, 1522.0, 1520.0, 1517.0, 1518.0, 1518.0, 1518.0, 1516.0, 1518.0, 1518.0, 1517.0, 1513.0, 1508.0, 1507.0, 1508.0, 1507.0, 1503.0, 1495.0, 1490.0, 1490.0, 1493.0, 1497.0, 1500.0, 1503.0, 1504.0, 1506.0, 1510.0, 1513.0, 1514.0, 1515.0, 1516.0, 1519.0, 1521.0, 1523.0, 1522.0, 1521.0, 1518.0, 1521.0, 1521.0, 1524.0, 1522.0, 1519.0, 1517.0, 1517.0, 1519.0, 1521.0, 1521.0, 1516.0, 1517.0, 1517.0, 1521.0, 1524.0, 1523.0, 1520.0, 1517.0, 1520.0, 1523.0, 1527.0, 1524.0, 1518.0, 1514.0, 1512.0, 1514.0, 1517.0, 1518.0, 1517.0, 1515.0, 1513.0, 1517.0, 1519.0, 1518.0, 1515.0, 1513.0, 1513.0, 1516.0, 1517.0, 1519.0, 1518.0, 1519.0, 1519.0, 1518.0, 1517.0, 1517.0, 1517.0, 1517.0, 1517.0, 1518.0, 1516.0, 1517.0, 1515.0, 1514.0, 1515.0, 1518.0, 1517.0, 1515.0, 1509.0, 1507.0, 1508.0, 1511.0, 1512.0, 1508.0, 1509.0, 1512.0, 1508.0, 1516.0]
    },
    "slices": {}
  }
}