{
  "AcquisitionMatrixPE": 70,
  "AcquisitionNumber": 1,
  "AcquisitionTime": "09:46:58.802500",
  "BaseResolution": 70,
  "BodyPartExamined": "BRAIN",
  "CoilCombinationMethod": "Sum of Squares",
  "ConsistencyInfo": "N4_VE11C_LATEST_20160120",
  "ConversionSoftware": "dcm2niix",
  "ConversionSoftwareVersion": "v1.0.20211006",
  "DeviceSerialNumber": "166011",
  "EchoNumber": 2,
  "EchoTime": 0.00738,
  "EchoTime1": 0.00492,
  "EchoTime2": 0.00738,
  "FlipAngle": 60,
  "ImageOrientationPatientDICOM": [
    0.999917,
    0.00305984,
    -0.0125418,
    -0.00401394,
    0.997041,
    -0.0767692
  ],
  "ImageType": [
    "ORIGINAL",
    "PRIMARY",
    "P",
    "ND",
    "PHASE"
  ],
  "ImagingFrequency": 123.26,
  "InPlanePhaseEncodingDirectionDICOM": "ROW",
  "InstitutionAddress": "West 130th Street 610,NY,NYC,US,10025",
  "InstitutionName": "MBBI",
  "IntendedFor": [
    "ses-2/func/sub-152_ses-2_task-catLoc_run-01_bold.nii.gz",
    "ses-2/func/sub-152_ses-2_task-catLoc_run-02_bold.nii.gz",
    "ses-2/func/sub-152_ses-2_task-vwfate_run-01_bold.nii.gz",
    "ses-2/func/sub-152_ses-2_task-vwfate_run-02_bold.nii.gz",
    "ses-2/func/sub-152_ses-2_task-vwfate_run-03_bold.nii.gz",
    "ses-2/func/sub-152_ses-2_task-vwfate_run-04_bold.nii.gz",
    "ses-2/func/sub-152_ses-2_task-vwfate_run-05_bold.nii.gz",
    "ses-2/func/sub-152_ses-2_task-vwfate_run-06_bold.nii.gz"
  ],
  "MRAcquisitionType": "2D",
  "MagneticFieldStrength": 3,
  "Manufacturer": "Siemens",
  "ManufacturersModelName": "Prisma",
  "MatrixCoilMode": "SENSE",
  "Modality": "MR",
  "PartialFourier": 1,
  "PatientPosition": "HFS",
  "PercentPhaseFOV": 100,
  "PercentSampling": 100,
  "PhaseEncodingDirection": "i",
  "PhaseEncodingSteps": 70,
  "PhaseResolution": 1,
  "PixelBandwidth": 595,
  "ProcedureStepDescription": "White^Word_recognition",
  "ProtocolName": "fmap_gre_field_mapping",
  "PulseSequenceDetails": "%SiemensSeq%\\gre_field_mapping",
  "ReceiveCoilActiveElements": "HC1-7",
  "ReceiveCoilName": "HeadNeck_64",
  "ReconMatrixPE": 70,
  "RepetitionTime": 0.52,
  "SAR": 0.0870198,
  "ScanningSequence": "GR",
  "SequenceName": "*fm2d2r",
  "SequenceVariant": "SP",
  "SeriesDescription": "fmap_gre_field_mapping",
  "SeriesNumber": 17,
  "ShimSetting": [
    -1155,
    -1338,
    612,
    470,
    -109,
    -59,
    -34,
    11
  ],
  "SliceThickness": 3,
  "SliceTiming": [
    0.26562,
    0,
    0.27344,
    0.01562,
    0.28906,
    0.03125,
    0.30469,
    0.03906,
    0.3125,
    0.05469,
    0.32812,
    0.0625,
    0.33594,
    0.07812,
    0.35156,
    0.09375,
    0.35938,
    0.10156,
    0.375,
    0.11719,
    0.38281,
    0.125,
    0.39844,
    0.14062,
    0.41406,
    0.14844,
    0.42188,
    0.16406,
    0.4375,
    0.17969,
    0.44531,
    0.1875,
    0.46094,
    0.20312,
    0.47656,
    0.21094,
    0.48438,
    0.22656,
    0.5,
    0.24219,
    0.50781,
    0.25
  ],
  "SoftwareVersions": "syngo MR E11",
  "SpacingBetweenSlices": 3,
  "StationName": "AWP166011",
  "TxRefAmp": 224.95,
  "dcmmeta_affine": [
    [
      -2.9997498989105225,
      -0.012041833251714706,
      -0.03680920600891113,
      109.53565216064453
    ],
    [
      -0.009179530665278435,
      2.9911224842071533,
      -0.2304401397705078,
      -72.348388671875
    ],
    [
      -0.0376252681016922,
      0.2303076833486557,
      2.9909095764160156,
      -74.67574310302734
    ],
    [
      0.0,
      0.0,
      0.0,
      1.0
    ]
  ],
  "dcmmeta_reorient_transform": [
    [
      0.0,
      -1.0,
      0.0,
      69.0
    ],
    [
      1.0,
      0.0,
      0.0,
      0.0
    ],
    [
      0.0,
      0.0,
      -1.0,
      41.0
    ],
    [
      0.0,
      0.0,
      0.0,
      1.0
    ]
  ],
  "dcmmeta_shape": [
    70,
    70,
    42
  ],
  "dcmmeta_slice_dim": 2,
  "dcmmeta_version": 0.6,
  "global": {
    "const": {
      "AcquisitionMatrix": [
        0,
        70,
        70,
        0
      ],
      "AcquisitionNumber": 1,
      "AngioFlag": "N",
      "BitsAllocated": 16,
      "BitsStored": 12,
      "BodyPartExamined": "BRAIN",
      "Columns": 70,
      "EchoNumbers": 2,
      "EchoTime": 7.38,
      "EchoTrainLength": 0,
      "FlipAngle": 60.0,
      "HighBit": 11,
      "ImageOrientationPatient": [
        0.99991666738956,
        0.00305984365082,
        -0.0125417555943,
        -0.0040139443993,
        0.99704080838098,
        -0.0767692299906
      ],
      "ImageType": [
        "ORIGINAL",
        "PRIMARY",
        "P",
        "ND"
      ],
      "ImagedNucleus": "1H",
      "ImagingFrequency": 123.259653,
      "InPlanePhaseEncodingDirection": "ROW",
      "MRAcquisitionType": "2D",
      "MagneticFieldStrength": 3.0,
      "Manufacturer": "SIEMENS",
      "ManufacturerModelName": "Prisma",
      "Modality": "MR",
      "NumberOfAverages": 1.0,
      "NumberOfPhaseEncodingSteps": 70,
      "PercentPhaseFieldOfView": 100.0,
      "PercentSampling": 100.0,
      "PerformedProcedureStepStartTime": "083259.649000",
      "PhotometricInterpretation": "MONOCHROME2",
      "PixelBandwidth": 595.0,
      "PixelRepresentation": 0,
      "PixelSpacing": [
        3.0,
        3.0
      ],
      "ProtocolName": "fmap_gre_field_mapping",
      "RepetitionTime": 520.0,
      "RescaleIntercept": -4096.0,
      "RescaleSlope": 2.0,
      "RescaleType": "US",
      "Rows": 70,
      "SAR": 0.08701977651078,
      "SamplesPerPixel": 1,
      "ScanningSequence": "GR",
      "SequenceName": "*fm2d2r",
      "SequenceVariant": "SP",
      "SeriesDescription": "fmap_gre_field_mapping",
      "SeriesNumber": 17,
      "SeriesTime": "094811.759000",
      "SliceThickness": 3.0,
      "SoftwareVersions": "syngo MR E11",
      "SpacingBetweenSlices": 3.0,
      "SpecificCharacterSet": "ISO_IR 100",
      "StudyID": "2",
      "StudyTime": "083259.556000",
      "TransmitCoilName": "Body",
      "VariableFlipAngleFlag": "N",
      "WindowCenterWidthExplanation": "Algo1",
      "dBdt": 0.0
    },
    "slices": {
      "AcquisitionTime": [
        "094658.802500",
        "094658.542500",
        "094658.815000",
        "094658.555000",
        "094658.827500",
        "094658.567500",
        "094658.840000",
        "094658.580000",
        "094658.852500",
        "094658.592500",
        "094658.865000",
        "094658.605000",
        "094658.877500",
        "094658.617500",
        "094658.890000",
        "094658.630000",
        "094658.900000",
        "094658.640000",
        "094658.912500",
        "094658.652500",
        "094658.925000",
        "094658.665000",
        "094658.937500",
        "094658.677500",
        "094658.950000",
        "094658.690000",
        "094658.962500",
        "094658.702500",
        "094658.975000",
        "094658.715000",
        "094658.987500",
        "094658.727500",
        "094659.000000",
        "094658.740000",
        "094659.012500",
        "094658.752500",
        "094659.025000",
        "094658.765000",
        "094659.037500",
        "094658.777500",
        "094659.050000",
        "094658.790000"
      ],
      "ContentTime": [
        "094811.828000",
        "094811.764000",
        "094811.830000",
        "094811.773000",
        "094811.832000",
        "094811.775000",
        "094811.834000",
        "094811.777000",
        "094811.836000",
        "094811.780000",
        "094811.838000",
        "094811.782000",
        "094811.840000",
        "094811.784000",
        "094811.843000",
        "094811.786000",
        "094811.845000",
        "094811.788000",
        "094811.847000",
        "094811.802000",
        "094811.849000",
        "094811.804000",
        "094811.851000",
        "094811.807000",
        "094811.853000",
        "094811.809000",
        "094811.855000",
        "094811.811000",
        "094811.857000",
        "094811.813000",
        "094811.859000",
        "094811.815000",
        "094811.862000",
        "094811.817000",
        "094811.864000",
        "094811.819000",
        "094811.866000",
        "094811.821000",
        "094811.868000",
        "094811.823000",
        "094811.870000",
        "094811.826000"
      ],
      "CsaImage.ICE_Dims": [
        "X_2_1_1_1_1_1_22_1_1_1_1_530",
        "X_2_1_1_1_1_1_1_1_1_2_1_530",
        "X_2_1_1_1_1_1_23_1_1_3_1_530",
        "X_2_1_1_1_1_1_2_1_1_4_1_530",
        "X_2_1_1_1_1_1_24_1_1_5_1_530",
        "X_2_1_1_1_1_1_3_1_1_6_1_530",
        "X_2_1_1_1_1_1_25_1_1_7_1_530",
        "X_2_1_1_1_1_1_4_1_1_8_1_530",
        "X_2_1_1_1_1_1_26_1_1_9_1_530",
        "X_2_1_1_1_1_1_5_1_1_10_1_530",
        "X_2_1_1_1_1_1_27_1_1_11_1_530",
        "X_2_1_1_1_1_1_6_1_1_12_1_530",
        "X_2_1_1_1_1_1_28_1_1_13_1_530",
        "X_2_1_1_1_1_1_7_1_1_14_1_530",
        "X_2_1_1_1_1_1_29_1_1_15_1_530",
        "X_2_1_1_1_1_1_8_1_1_16_1_530",
        "X_2_1_1_1_1_1_30_1_1_17_1_530",
        "X_2_1_1_1_1_1_9_1_1_18_1_530",
        "X_2_1_1_1_1_1_31_1_1_19_1_530",
        "X_2_1_1_1_1_1_10_1_1_20_1_530",
        "X_2_1_1_1_1_1_32_1_1_21_1_530",
        "X_2_1_1_1_1_1_11_1_1_22_1_530",
        "X_2_1_1_1_1_1_33_1_1_23_1_530",
        "X_2_1_1_1_1_1_12_1_1_24_1_530",
        "X_2_1_1_1_1_1_34_1_1_25_1_530",
        "X_2_1_1_1_1_1_13_1_1_26_1_530",
        "X_2_1_1_1_1_1_35_1_1_27_1_530",
        "X_2_1_1_1_1_1_14_1_1_28_1_530",
        "X_2_1_1_1_1_1_36_1_1_29_1_530",
        "X_2_1_1_1_1_1_15_1_1_30_1_530",
        "X_2_1_1_1_1_1_37_1_1_31_1_530",
        "X_2_1_1_1_1_1_16_1_1_32_1_530",
        "X_2_1_1_1_1_1_38_1_1_33_1_530",
        "X_2_1_1_1_1_1_17_1_1_34_1_530",
        "X_2_1_1_1_1_1_39_1_1_35_1_530",
        "X_2_1_1_1_1_1_18_1_1_36_1_530",
        "X_2_1_1_1_1_1_40_1_1_37_1_530",
        "X_2_1_1_1_1_1_19_1_1_38_1_530",
        "X_2_1_1_1_1_1_41_1_1_39_1_530",
        "X_2_1_1_1_1_1_20_1_1_40_1_530",
        "X_2_1_1_1_1_1_42_1_1_41_1_530",
        "X_2_1_1_1_1_1_21_1_1_42_1_530"
      ],
      "CsaImage.ProtocolSliceNumber": [
        0,
        1,
        2,
        3,
        4,
        5,
        6,
        7,
        8,
        9,
        10,
        11,
        12,
        13,
        14,
        15,
        16,
        17,
        18,
        19,
        20,
        21,
        22,
        23,
        24,
        25,
        26,
        27,
        28,
        29,
        30,
        31,
        32,
        33,
        34,
        35,
        36,
        37,
        38,
        39,
        40,
        41
      ],
      "CsaImage.SlicePosition_PCS": [
        [
          -108.70476898,
          -134.03903373,
          -58.78452455
        ],
        [
          -108.66796001,
          -133.80859359,
          -55.79361879
        ],
        [
          -108.63115056,
          -133.57815536,
          -52.80270922
        ],
        [
          -108.5943416,
          -133.34771522,
          -49.81179964
        ],
        [
          -108.55753239,
          -133.11727508,
          -46.82088625
        ],
        [
          -108.52072295,
          -132.88683685,
          -43.82997667
        ],
        [
          -108.48391374,
          -132.65639671,
          -40.83906709
        ],
        [
          -108.44710453,
          -132.42595657,
          -37.84815752
        ],
        [
          -108.41029533,
          -132.19551643,
          -34.85724794
        ],
        [
          -108.37348612,
          -131.9650782,
          -31.86633837
        ],
        [
          -108.33667692,
          -131.73463806,
          -28.87542879
        ],
        [
          -108.29986771,
          -131.50419792,
          -25.88451921
        ],
        [
          -108.2630585,
          -131.27375969,
          -22.89360964
        ],
        [
          -108.2262493,
          -131.04331955,
          -19.90269815
        ],
        [
          -108.18944009,
          -130.81287941,
          -16.91178858
        ],
        [
          -108.15263089,
          -130.58244117,
          -13.92087709
        ],
        [
          -108.11582168,
          -130.35200103,
          -10.92996752
        ],
        [
          -108.07901247,
          -130.12156089,
          -7.93905794
        ],
        [
          -108.04220327,
          -129.89112266,
          -4.94814741
        ],
        [
          -108.00539406,
          -129.66068252,
          -1.95723783
        ],
        [
          -107.96858462,
          -129.43024238,
          1.0336727
        ],
        [
          -107.93177541,
          -129.19980415,
          4.02458227
        ],
        [
          -107.89496621,
          -128.96936401,
          7.01549233
        ],
        [
          -107.858157,
          -128.73892387,
          10.00640226
        ],
        [
          -107.82134779,
          -128.50848564,
          12.99731219
        ],
        [
          -107.78453859,
          -128.2780455,
          15.98822249
        ],
        [
          -107.74772938,
          -128.04760536,
          18.97913206
        ],
        [
          -107.71092018,
          -127.81716713,
          21.97004259
        ],
        [
          -107.67411097,
          -127.58672699,
          24.96095217
        ],
        [
          -107.63730176,
          -127.35628685,
          27.9518627
        ],
        [
          -107.60049256,
          -127.12584861,
          30.94277228
        ],
        [
          -107.56368335,
          -126.89540847,
          33.93368185
        ],
        [
          -107.52687415,
          -126.66496834,
          36.92459334
        ],
        [
          -107.49006494,
          -126.4345301,
          39.91550291
        ],
        [
          -107.45325573,
          -126.20408996,
          42.90641249
        ],
        [
          -107.41644653,
          -125.97364982,
          45.89732207
        ],
        [
          -107.37963708,
          -125.74321159,
          48.88823164
        ],
        [
          -107.34282788,
          -125.51277145,
          51.87914122
        ],
        [
          -107.30601867,
          -125.28233131,
          54.87005079
        ],
        [
          -107.26920947,
          -125.05189308,
          57.86096419
        ],
        [
          -107.23240026,
          -124.82145294,
          60.85187376
        ],
        [
          -107.19559105,
          -124.5910128,
          63.84278334
        ]
      ],
      "CsaImage.TimeAfterStart": [
        0.7825,
        0.5225,
        0.795,
        0.535,
        0.8075,
        0.5475,
        0.82,
        0.56,
        0.8325,
        0.5725,
        0.845,
        0.585,
        0.8575,
        0.5975,
        0.87,
        0.61,
        0.88,
        0.62,
        0.8925,
        0.6325,
        0.905,
        0.645,
        0.9175,
        0.6575,
        0.93,
        0.67,
        0.9425,
        0.6825,
        0.955,
        0.695,
        0.9675,
        0.7075,
        0.98,
        0.72,
        0.9925,
        0.7325,
        1.005,
        0.745,
        1.0175,
        0.7575,
        1.03,
        0.77
      ],
      "ImagePositionPatient": [
        [
          -108.70476897672,
          -134.03903373433,
          -58.784524553138
        ],
        [
          -108.66796000913,
          -133.80859359456,
          -55.79361879142
        ],
        [
          -108.6311505647,
          -133.57815536214,
          -52.802709215004
        ],
        [
          -108.59434159711,
          -133.34771522237,
          -49.811799638588
        ],
        [
          -108.5575323911,
          -133.1172750826,
          -46.820886247474
        ],
        [
          -108.52072294668,
          -132.88683685018,
          -43.829976671058
        ],
        [
          -108.48391374067,
          -132.65639671041,
          -40.839067094642
        ],
        [
          -108.44710453466,
          -132.42595657064,
          -37.848157518226
        ],
        [
          -108.41029532865,
          -132.19551643087,
          -34.85724794181
        ],
        [
          -108.37348612264,
          -131.96507819845,
          -31.866338365394
        ],
        [
          -108.33667691663,
          -131.73463805868,
          -28.875428788978
        ],
        [
          -108.29986771062,
          -131.50419791891,
          -25.884519212562
        ],
        [
          -108.26305850461,
          -131.27375968648,
          -22.893609636146
        ],
        [
          -108.22624929861,
          -131.04331954671,
          -19.902698152381
        ],
        [
          -108.1894400926,
          -130.81287940694,
          -16.911788575965
        ],
        [
          -108.15263088659,
          -130.58244117452,
          -13.920877092201
        ],
        [
          -108.11582168058,
          -130.35200103475,
          -10.929967515785
        ],
        [
          -108.07901247457,
          -130.12156089498,
          -7.9390579393687
        ],
        [
          -108.04220326856,
          -129.89112266256,
          -4.9481474092784
        ],
        [
          -108.00539406255,
          -129.66068252279,
          -1.9572378328624
        ],
        [
          -107.96858461812,
          -129.43024238302,
          1.0336726972279
        ],
        [
          -107.93177541212,
          -129.19980415059,
          4.024582273644
        ],
        [
          -107.89496620611,
          -128.96936401082,
          7.0154923268971
        ],
        [
          -107.8581570001,
          -128.73892387105,
          10.006402260941
        ],
        [
          -107.82134779409,
          -128.50848563863,
          12.997312194985
        ],
        [
          -107.78453858808,
          -128.27804549886,
          15.988222486657
        ],
        [
          -107.74772938207,
          -128.04760535909,
          18.979132063073
        ],
        [
          -107.71092017606,
          -127.81716712667,
          21.970042593163
        ],
        [
          -107.67411097005,
          -127.5867269869,
          24.960952169579
        ],
        [
          -107.63730176404,
          -127.35628684713,
          27.951862699669
        ],
        [
          -107.60049255804,
          -127.12584861471,
          30.942772276085
        ],
        [
          -107.56368335203,
          -126.89540847494,
          33.933681852501
        ],
        [
          -107.52687414602,
          -126.66496833516,
          36.924593336266
        ],
        [
          -107.49006494001,
          -126.43453010274,
          39.915502912682
        ],
        [
          -107.453255734,
          -126.20408996297,
          42.906412489098
        ],
        [
          -107.41644652799,
          -125.9736498232,
          45.897322065514
        ],
        [
          -107.37963708356,
          -125.74321159078,
          48.88823164193
        ],
        [
          -107.34282787755,
          -125.51277145101,
          51.879141218346
        ],
        [
          -107.30601867155,
          -125.28233131124,
          54.870050794762
        ],
        [
          -107.26920946554,
          -125.05189307882,
          57.860964185875
        ],
        [
          -107.23240025953,
          -124.82145293905,
          60.851873762291
        ],
        [
          -107.19559105352,
          -124.59101279928,
          63.842783338707
        ]
      ],
      "InstanceCreationTime": [
        "094811.828000",
        "094811.764000",
        "094811.830000",
        "094811.773000",
        "094811.832000",
        "094811.775000",
        "094811.834000",
        "094811.777000",
        "094811.836000",
        "094811.780000",
        "094811.838000",
        "094811.782000",
        "094811.840000",
        "094811.784000",
        "094811.843000",
        "094811.786000",
        "094811.845000",
        "094811.788000",
        "094811.847000",
        "094811.802000",
        "094811.849000",
        "094811.804000",
        "094811.851000",
        "094811.807000",
        "094811.853000",
        "094811.809000",
        "094811.855000",
        "094811.811000",
        "094811.857000",
        "094811.813000",
        "094811.859000",
        "094811.815000",
        "094811.862000",
        "094811.817000",
        "094811.864000",
        "094811.819000",
        "094811.866000",
        "094811.821000",
        "094811.868000",
        "094811.823000",
        "094811.870000",
        "094811.826000"
      ],
      "InstanceNumber": [
        1,
        2,
        3,
        4,
        5,
        6,
        7,
        8,
        9,
        10,
        11,
        12,
        13,
        14,
        15,
        16,
        17,
        18,
        19,
        20,
        21,
        22,
        23,
        24,
        25,
        26,
        27,
        28,
        29,
        30,
        31,
        32,
        33,
        34,
        35,
        36,
        37,
        38,
        39,
        40,
        41,
        42
      ],
      "LargestImagePixelValue": [
        4091,
        4094,
        4089,
        4092,
        4095,
        4094,
        4093,
        4087,
        4091,
        4095,
        4095,
        4091,
        4091,
        4087,
        4093,
        4092,
        4088,
        4062,
        4080,
        4072,
        4087,
        4015,
        4093,
        4093,
        4058,
        4095,
        4080,
        4062,
        4081,
        4091,
        4079,
        4078,
        4073,
        4088,
        4091,
        4089,
        4091,
        4095,
        4091,
        4087,
        4093,
        4094
      ],
      "SliceLocation": [
        -70.236150677897,
        -67.236154872301,
        -64.236155404225,
        -61.23615579549,
        -58.236152380691,
        -55.236152912615,
        -52.236153300955,
        -49.236153689295,
        -46.236154077635,
        -43.236154612484,
        -40.236155000824,
        -37.236155389164,
        -34.236155924013,
        -31.236154410784,
        -28.236154799124,
        -25.236153432404,
        -22.236153820743,
        -19.236154209083,
        -16.236153793148,
        -13.236154181488,
        -10.236153616118,
        -7.2361541509669,
        -4.2361540639144,
        -1.23615409571,
        1.7638457259849,
        4.7638460507336,
        7.7638456623937,
        10.763846078329,
        13.763845689989,
        16.763846252434,
        19.763845717585,
        22.763845329245,
        25.763846842474,
        28.763846307625,
        31.763845919285,
        34.763845530945,
        37.763844999021,
        40.763844610681,
        43.763844222342,
        46.763847490631,
        49.763847102291,
        52.763846713951
      ],
      "SmallestImagePixelValue": [
        4,
        0,
        0,
        0,
        0,
        6,
        0,
        1,
        50,
        4,
        0,
        0,
        1,
        0,
        19,
        5,
        19,
        18,
        18,
        5,
        1,
        3,
        16,
        4,
        28,
        4,
        44,
        23,
        4,
        20,
        38,
        0,
        30,
        7,
        4,
        7,
        2,
        5,
        0,
        5,
        0,
        2
      ],
      "WindowCenter": [
        -224.0,
        -280.0,
        -262.0,
        -286.0,
        -362.0,
        -278.0,
        -404.0,
        -382.0,
        -326.0,
        -284.0,
        -250.0,
        -168.0,
        -62.0,
        -58.0,
        8.0,
        -48.0,
        -16.0,
        -22.0,
        -40.0,
        -182.0,
        -154.0,
        -86.0,
        -164.0,
        -164.0,
        -46.0,
        -156.0,
        -186.0,
        -194.0,
        -208.0,
        -218.0,
        -98.0,
        -198.0,
        -196.0,
        -224.0,
        -210.0,
        -250.0,
        -118.0,
        -110.0,
        -136.0,
        -122.0,
        -134.0,
        -156.0
      ],
      "WindowWidth": [
        5768.0,
        5730.0,
        5732.0,
        5938.0,
        5964.0,
        5984.0,
        5956.0,
        5902.0,
        5884.0,
        5600.0,
        5348.0,
        5386.0,
        5538.0,
        5606.0,
        5580.0,
        5482.0,
        5386.0,
        5356.0,
        5244.0,
        4530.0,
        4518.0,
        4742.0,
        4516.0,
        4504.0,
        4990.0,
        4490.0,
        4506.0,
        4508.0,
        4526.0,
        4538.0,
        5032.0,
        4528.0,
        4538.0,
        4566.0,
        4582.0,
        4632.0,
        5340.0,
        5412.0,
        5676.0,
        5828.0,
        5962.0,
        6084.0
      ]
    }
  }
}