{
  "AcquisitionMatrixPE": 72,
  "AcquisitionNumber": 1,
  "AcquisitionTime": "15:42:59.342500",
  "BandwidthPerPixelPhaseEncode": 17.943,
  "BaseResolution": 96,
  "BodyPartExamined": "BRAIN",
  "CoilCombinationMethod": "Sum of Squares",
  "ConsistencyInfo": "N4_VE11C_LATEST_20160120",
  "ConversionSoftware": "dcm2niix",
  "ConversionSoftwareVersion": "v1.0.20211006",
  "DerivedVendorReportedEchoSpacing": 0.000552897,
  "DeviceSerialNumber": "166011",
  "EchoTime": 0.03,
  "EchoTrainLength": 58,
  "EffectiveEchoSpacing": 0.000580542,
  "FlipAngle": 62,
  "ImageOrientationPatientDICOM": [0.999341, -0.0255233, 0.0257902, 0.0268668, 0.998224, -0.053162],
  "ImageType": [
    "ORIGINAL",
    "PRIMARY",
    "M",
    "ND",
    "MOSAIC"
],
  "ImagingFrequency": 123.259,
  "InPlanePhaseEncodingDirectionDICOM": "COL",
  "InstitutionAddress": "West 130th Street 610,NY,NYC,US,10025",
  "InstitutionName": "MBBI",
  "MRAcquisitionType": "2D",
  "MagneticFieldStrength": 3,
  "Manufacturer": "Siemens",
  "ManufacturersModelName": "Prisma",
  "Modality": "MR",
  "MultibandAccelerationFactor": 3,
  "PartialFourier": 0.75,
  "PatientPosition": "HFS",
  "PercentPhaseFOV": 100,
  "PercentSampling": 75,
  "PhaseEncodingDirection": "j-",
  "PhaseEncodingSteps": 58,
  "PhaseOversampling": 0.05,
  "PhaseResolution": 0.75,
  "PixelBandwidth": 2265,
  "ProcedureStepDescription": "White^Word_recognition",
  "ProtocolName": "func_vwfate_run3",
  "PulseSequenceDetails": "%SiemensSeq%\\ep2d_bold",
  "ReceiveCoilActiveElements": "HC1-6",
  "ReceiveCoilName": "HeadNeck_64",
  "ReconMatrixPE": 96,
  "RefLinesPE": 40,
  "RepetitionTime": 1.5,
  "SAR": 0.0438037,
  "ScanOptions": "PFP\\FS",
  "ScanningSequence": "EP",
  "SequenceName": "*epfid2d1_72",
  "SequenceVariant": "SK\\OSP",
  "SeriesDescription": "func_vwfate_run3",
  "SeriesNumber": 11,
  "ShimSetting": [-1142, -1370, 674, 508, -82, -63, 112, 9],
  "SliceThickness": 2,
  "SliceTiming": [1.0775, 0, 0.74, 0.0675, 0.8075, 0.135, 0.875, 0.2025, 0.9425, 0.27, 1.01, 0.405, 1.145, 0.4725, 1.2125, 0.5375, 1.2775, 0.605, 1.345, 0.6725, 1.4125, 0.3375, 1.0775, 0, 0.74, 0.0675, 0.8075, 0.135, 0.875, 0.2025, 0.9425, 0.27, 1.01, 0.405, 1.145, 0.4725, 1.2125, 0.5375, 1.2775, 0.605, 1.345, 0.6725, 1.4125, 0.3375, 1.0775, 0, 0.74, 0.0675, 0.8075, 0.135, 0.875, 0.2025, 0.9425, 0.27, 1.01, 0.405, 1.145, 0.4725, 1.2125, 0.5375, 1.2775, 0.605, 1.345, 0.6725, 1.4125, 0.3375],
  "SoftwareVersions": "syngo MR E11",
  "SpacingBetweenSlices": 2,
  "StationName": "AWP166011",
  "TaskName": "vwfate",
  "TotalReadoutTime": 0.0551515,
  "TxRefAmp": 228.68,
  "dcmmeta_affine": [
    [-1.998682975769043, 0.05373355746269226, 0.048775024712085724, 96.5903091430664],
    [0.051046695560216904, 1.9964488744735718, -0.10763974487781525, -65.59278869628906],
    [0.05158035457134247, 0.1063239648938179, 1.996505618095398, -66.28260803222656],
    [0.0, 0.0, 0.0, 1.0]
],
  "dcmmeta_reorient_transform": [
    [0.0, -1.0, 0.0, 95.0],
    [1.0, 0.0, 0.0, 0.0],
    [0.0, 0.0, 1.0, 0.0],
    [0.0, 0.0, 0.0, 1.0]
],
  "dcmmeta_shape": [96, 96, 66, 164],
  "dcmmeta_slice_dim": 2,
  "dcmmeta_version": 0.6,
  "global": {
    "const": {
      "AcquisitionMatrix": [96, 0, 0, 72],
      "AngioFlag": "N",
      "BitsAllocated": 16,
      "BitsStored": 12,
      "BodyPartExamined": "BRAIN",
      "Columns": 864,
      "EchoNumbers": 1,
      "EchoTime": 30.0,
      "EchoTrainLength": 58,
      "FlipAngle": 62.0,
      "HighBit": 11,
      "ImageOrientationPatient": [0.99934149592179, -0.0255233483292, 0.02579017679017, 0.02686677819489, 0.9982244136426, -0.0531619811268],
      "ImagePositionPatient": [-889.82295136024, -871.10426646655, -35.160289404001],
      "ImageType": [
        "ORIGINAL",
        "PRIMARY",
        "M",
        "ND",
        "MOSAIC"
],
      "ImagedNucleus": "1H",
      "ImagingFrequency": 123.259486,
      "InPlanePhaseEncodingDirection": "COL",
      "MRAcquisitionType": "2D",
      "MagneticFieldStrength": 3.0,
      "Manufacturer": "SIEMENS",
      "ManufacturerModelName": "Prisma",
      "Modality": "MR",
      "NumberOfAverages": 1.0,
      "NumberOfPhaseEncodingSteps": 58,
      "PercentPhaseFieldOfView": 100.0,
      "PercentSampling": 75.0,
      "PerformedProcedureStepStartTime": "150624.384000",
      "PhotometricInterpretation": "MONOCHROME2",
      "PixelBandwidth": 2265.0,
      "PixelRepresentation": 0,
      "PixelSpacing": [2.0, 2.0],
      "ProtocolName": "func_vwfate_run3",
      "RepetitionTime": 1500.0,
      "Rows": 864,
      "SAR": 0.04380369379235,
      "SamplesPerPixel": 1,
      "ScanOptions": [
        "PFP",
        "FS"
],
      "ScanningSequence": "EP",
      "SequenceName": "*epfid2d1_72",
      "SequenceVariant": [
        "SK",
        "OSP"
],
      "SeriesDescription": "func_vwfate_run3",
      "SeriesNumber": 11,
      "SeriesTime": "154309.284000",
      "SliceLocation": -60.281010185887,
      "SliceThickness": 2.0,
      "SmallestImagePixelValue": 0,
      "SoftwareVersions": "syngo MR E11",
      "SpacingBetweenSlices": 1.999999942094,
      "SpecificCharacterSet": "ISO_IR 100",
      "StudyID": "1",
      "StudyTime": "150624.300000",
      "TransmitCoilName": "Body",
      "VariableFlipAngleFlag": "N",
      "WindowCenterWidthExplanation": "Algo1",
      "dBdt": 0.0},
    "slices": {}
  },
  "time": {
    "samples": {
      "AcquisitionNumber": [1, 2, 3, 4, 5, 6, 7, 8, 9, 10, 11, 12, 13, 14, 15, 16, 17, 18, 19, 20, 21, 22, 23, 24, 25, 26, 27, 28, 29, 30, 31, 32, 33, 34, 35, 36, 37, 38, 39, 40, 41, 42, 43, 44, 45, 46, 47, 48, 49, 50, 51, 52, 53, 54, 55, 56, 57, 58, 59, 60, 61, 62, 63, 64, 65, 66, 67, 68, 69, 70, 71, 72, 73, 74, 75, 76, 77, 78, 79, 80, 81, 82, 83, 84, 85, 86, 87, 88, 89, 90, 91, 92, 93, 94, 95, 96, 97, 98, 99, 100, 101, 102, 103, 104, 105, 106, 107, 108, 109, 110, 111, 112, 113, 114, 115, 116, 117, 118, 119, 120, 121, 122, 123, 124, 125, 126, 127, 128, 129, 130, 131, 132, 133, 134, 135, 136, 137, 138, 139, 140, 141, 142, 143, 144, 145, 146, 147, 148, 149, 150, 151, 152, 153, 154, 155, 156, 157, 158, 159, 160, 161, 162, 163, 164],
      "AcquisitionTime": ["154259.342500", "154300.842500", "154302.342500", "154303.842500", "154305.342500", "154306.842500", "154308.342500", "154309.842500", "154311.342500", "154312.842500", "154314.342500", "154315.842500", "154317.342500", "154318.842500", "154320.342500", "154321.842500", "154323.342500", "154324.842500", "154326.342500", "154327.842500", "154329.342500", "154330.842500", "154332.342500", "154333.842500", "154335.342500", "154336.842500", "154338.342500", "154339.842500", "154341.342500", "154342.842500", "154344.342500", "154345.842500", "154347.342500", "154348.842500", "154350.342500", "154351.842500", "154353.342500", "154354.842500", "154356.342500", "154357.842500", "154359.342500", "154400.842500", "154402.342500", "154403.842500", "154405.342500", "154406.842500", "154408.342500", "154409.842500", "154411.342500", "154412.842500", "154414.342500", "154415.842500", "154417.342500", "154418.842500", "154420.342500", "154421.842500", "154423.342500", "154424.842500", "154426.342500", "154427.842500", "154429.342500", "154430.842500", "154432.342500", "154433.842500", "154435.342500", "154436.842500", "154438.342500", "154439.842500", "154441.342500", "154442.842500", "154444.342500", "154445.842500", "154447.342500", "154448.842500", "154450.342500", "154451.842500", "154453.342500", "154454.842500", "154456.342500", "154457.842500", "154459.342500", "154500.842500", "154502.342500", "154503.842500", "154505.342500", "154506.842500", "154508.342500", "154509.842500", "154511.342500", "154512.842500", "154514.342500", "154515.842500", "154517.342500", "154518.842500", "154520.342500", "154521.842500", "154523.342500", "154524.842500", "154526.342500", "154527.842500", "154529.342500", "154530.842500", "154532.342500", "154533.842500", "154535.342500", "154536.842500", "154538.342500", "154539.842500", "154541.342500", "154542.842500", "154544.342500", "154545.842500", "154547.342500", "154548.842500", "154550.342500", "154551.842500", "154553.342500", "154554.842500", "154556.342500", "154557.842500", "154559.342500", "154600.842500", "154602.342500", "154603.842500", "154605.342500", "154606.842500", "154608.342500", "154609.842500", "154611.342500", "154612.842500", "154614.342500", "154615.842500", "154617.342500", "154618.842500", "154620.342500", "154621.842500", "154623.342500", "154624.842500", "154626.342500", "154627.842500", "154629.342500", "154630.842500", "154632.342500", "154633.842500", "154635.342500", "154636.842500", "154638.342500", "154639.842500", "154641.342500", "154642.842500", "154644.342500", "154645.842500", "154647.342500", "154648.842500", "154650.342500", "154651.842500", "154653.342500", "154654.842500", "154656.342500", "154657.842500", "154659.342500", "154700.842500", "154702.342500", "154703.842500"],
      "ContentTime": ["154309.288000", "154309.292000", "154309.295000", "154309.298000", "154309.301000", "154309.304000", "154309.307000", "154349.283000", "154349.286000", "154349.297000", "154349.300000", "154349.307000", "154349.311000", "154349.314000", "154349.317000", "154349.320000", "154349.323000", "154349.327000", "154349.330000", "154349.333000", "154349.336000", "154349.339000", "154349.342000", "154349.346000", "154349.349000", "154349.352000", "154349.355000", "154349.364000", "154349.367000", "154349.370000", "154349.373000", "154349.376000", "154349.379000", "154429.282000", "154429.285000", "154429.288000", "154429.291000", "154429.294000", "154429.298000", "154429.301000", "154429.304000", "154429.307000", "154429.310000", "154429.313000", "154429.316000", "154429.319000", "154429.322000", "154429.325000", "154429.328000", "154429.332000", "154429.335000", "154429.338000", "154429.341000", "154429.350000", "154429.353000", "154429.356000", "154429.359000", "154429.363000", "154429.366000", "154429.369000", "154509.283000", "154509.286000", "154509.289000", "154509.292000", "154509.295000", "154509.298000", "154509.301000", "154509.304000", "154509.307000", "154509.310000", "154509.313000", "154509.316000", "154509.320000", "154509.323000", "154509.326000", "154509.329000", "154509.332000", "154509.335000", "154509.338000", "154509.341000", "154509.344000", "154509.347000", "154509.350000", "154509.353000", "154509.356000", "154509.359000", "154509.362000", "154549.283000", "154549.286000", "154549.289000", "154549.292000", "154549.296000", "154549.299000", "154549.302000", "154549.305000", "154549.308000", "154549.311000", "154549.314000", "154549.317000", "154549.320000", "154549.323000", "154549.326000", "154549.329000", "154549.332000", "154549.336000", "154549.339000", "154549.342000", "154549.345000", "154549.348000", "154549.351000", "154549.354000", "154549.357000", "154549.360000", "154629.282000", "154629.285000", "154629.288000", "154629.291000", "154629.295000", "154629.298000", "154629.301000", "154629.304000", "154629.307000", "154629.310000", "154629.313000", "154629.316000", "154629.320000", "154629.324000", "154629.327000", "154629.330000", "154629.333000", "154629.336000", "154629.339000", "154629.343000", "154629.346000", "154629.349000", "154629.352000", "154629.355000", "154629.358000", "154629.361000", "154629.364000", "154704.522000", "154704.525000", "154704.529000", "154704.532000", "154704.535000", "154704.539000", "154704.542000", "154704.545000", "154704.548000", "154704.551000", "154704.555000", "154704.559000", "154704.562000", "154704.565000", "154704.569000", "154704.573000", "154704.576000", "154704.580000", "154704.584000", "154704.587000", "154704.590000", "154704.593000", "154704.596000", "154704.599000"],
      "InstanceCreationTime": ["154309.288000", "154309.292000", "154309.295000", "154309.298000", "154309.301000", "154309.304000", "154309.307000", "154349.283000", "154349.286000", "154349.297000", "154349.300000", "154349.307000", "154349.311000", "154349.314000", "154349.317000", "154349.320000", "154349.323000", "154349.327000", "154349.330000", "154349.333000", "154349.336000", "154349.339000", "154349.342000", "154349.346000", "154349.349000", "154349.352000", "154349.355000", "154349.364000", "154349.367000", "154349.370000", "154349.373000", "154349.376000", "154349.379000", "154429.282000", "154429.285000", "154429.288000", "154429.291000", "154429.294000", "154429.298000", "154429.301000", "154429.304000", "154429.307000", "154429.310000", "154429.313000", "154429.316000", "154429.319000", "154429.322000", "154429.325000", "154429.328000", "154429.332000", "154429.335000", "154429.338000", "154429.341000", "154429.350000", "154429.353000", "154429.356000", "154429.359000", "154429.363000", "154429.366000", "154429.369000", "154509.283000", "154509.286000", "154509.289000", "154509.292000", "154509.295000", "154509.298000", "154509.301000", "154509.304000", "154509.307000", "154509.310000", "154509.313000", "154509.316000", "154509.320000", "154509.323000", "154509.326000", "154509.329000", "154509.332000", "154509.335000", "154509.338000", "154509.341000", "154509.344000", "154509.347000", "154509.350000", "154509.353000", "154509.356000", "154509.359000", "154509.362000", "154549.283000", "154549.286000", "154549.289000", "154549.292000", "154549.296000", "154549.299000", "154549.302000", "154549.305000", "154549.308000", "154549.311000", "154549.314000", "154549.317000", "154549.320000", "154549.323000", "154549.326000", "154549.329000", "154549.332000", "154549.336000", "154549.339000", "154549.342000", "154549.345000", "154549.348000", "154549.351000", "154549.354000", "154549.357000", "154549.360000", "154629.282000", "154629.285000", "154629.288000", "154629.291000", "154629.295000", "154629.298000", "154629.301000", "154629.304000", "154629.307000", "154629.310000", "154629.313000", "154629.316000", "154629.320000", "154629.324000", "154629.327000", "154629.330000", "154629.333000", "154629.336000", "154629.339000", "154629.343000", "154629.346000", "154629.349000", "154629.352000", "154629.355000", "154629.358000", "154629.361000", "154629.364000", "154704.522000", "154704.525000", "154704.529000", "154704.532000", "154704.535000", "154704.539000", "154704.542000", "154704.545000", "154704.548000", "154704.551000", "154704.555000", "154704.559000", "154704.562000", "154704.565000", "154704.569000", "154704.573000", "154704.576000", "154704.580000", "154704.584000", "154704.587000", "154704.590000", "154704.593000", "154704.596000", "154704.599000"],
      "InstanceNumber": [1, 2, 3, 4, 5, 6, 7, 8, 9, 10, 11, 12, 13, 14, 15, 16, 17, 18, 19, 20, 21, 22, 23, 24, 25, 26, 27, 28, 29, 30, 31, 32, 33, 34, 35, 36, 37, 38, 39, 40, 41, 42, 43, 44, 45, 46, 47, 48, 49, 50, 51, 52, 53, 54, 55, 56, 57, 58, 59, 60, 61, 62, 63, 64, 65, 66, 67, 68, 69, 70, 71, 72, 73, 74, 75, 76, 77, 78, 79, 80, 81, 82, 83, 84, 85, 86, 87, 88, 89, 90, 91, 92, 93, 94, 95, 96, 97, 98, 99, 100, 101, 102, 103, 104, 105, 106, 107, 108, 109, 110, 111, 112, 113, 114, 115, 116, 117, 118, 119, 120, 121, 122, 123, 124, 125, 126, 127, 128, 129, 130, 131, 132, 133, 134, 135, 136, 137, 138, 139, 140, 141, 142, 143, 144, 145, 146, 147, 148, 149, 150, 151, 152, 153, 154, 155, 156, 157, 158, 159, 160, 161, 162, 163, 164],
      "LargestImagePixelValue": [2994, 3176, 3050, 3047, 3043, 3036, 3052, 2998, 3058, 3062, 3028, 3048, 3045, 2976, 2970, 2866, 2890, 2856, 2923, 2901, 2923, 2868, 2933, 2893, 2884, 2934, 2858, 2982, 2959, 2962, 2981, 2853, 2996, 2873, 3009, 2935, 2896, 3011, 2936, 2973, 2920, 2884, 2947, 2895, 3028, 2858, 2962, 2924, 2940, 2859, 2934, 2932, 2895, 2989, 2936, 2968, 2905, 2972, 2956, 2941, 2975, 2945, 2981, 2919, 2982, 2904, 2961, 3045, 2896, 2978, 2913, 2970, 2998, 3014, 2964, 2922, 3032, 3010, 3003, 3096, 2962, 3040, 2890, 3097, 3106, 2930, 2973, 3077, 2946, 3107, 2922, 3146, 2969, 3085, 2998, 3077, 3053, 2998, 3054, 2935, 2982, 2986, 2903, 3014, 2991, 3058, 3008, 2999, 2950, 3087, 2934, 3122, 2905, 3114, 3054, 2981, 2985, 2939, 2948, 2901, 3069, 2923, 2934, 2904, 2837, 2988, 2893, 3007, 2896, 2983, 2943, 2888, 3005, 2879, 2975, 2989, 2944, 2965, 2994, 2989, 2981, 2857, 2888, 3001, 2836, 2987, 2783, 2909, 2879, 3097, 2956, 2940, 3049, 2953, 2986, 2985, 2823, 3104, 2993, 2986, 3023, 2932, 2931, 2863],
      "WindowCenter": [740.0, 740.0, 738.0, 737.0, 739.0, 739.0, 738.0, 738.0, 739.0, 739.0, 739.0, 739.0, 739.0, 739.0, 739.0, 738.0, 738.0, 738.0, 738.0, 738.0, 738.0, 737.0, 737.0, 737.0, 737.0, 737.0, 737.0, 737.0, 737.0, 737.0, 737.0, 736.0, 737.0, 736.0, 736.0, 736.0, 736.0, 737.0, 736.0, 736.0, 735.0, 734.0, 734.0, 735.0, 736.0, 736.0, 736.0, 736.0, 736.0, 735.0, 736.0, 736.0, 736.0, 737.0, 738.0, 738.0, 738.0, 737.0, 737.0, 737.0, 737.0, 737.0, 737.0, 737.0, 737.0, 736.0, 737.0, 738.0, 737.0, 737.0, 735.0, 736.0, 737.0, 737.0, 736.0, 735.0, 735.0, 737.0, 738.0, 739.0, 738.0, 739.0, 738.0, 739.0, 739.0, 738.0, 738.0, 739.0, 739.0, 740.0, 738.0, 738.0, 737.0, 737.0, 736.0, 737.0, 737.0, 736.0, 736.0, 736.0, 736.0, 736.0, 735.0, 736.0, 737.0, 737.0, 737.0, 738.0, 738.0, 739.0, 738.0, 739.0, 737.0, 737.0, 737.0, 737.0, 736.0, 736.0, 736.0, 735.0, 735.0, 734.0, 735.0, 735.0, 735.0, 736.0, 735.0, 735.0, 735.0, 735.0, 736.0, 736.0, 737.0, 738.0, 737.0, 736.0, 735.0, 734.0, 734.0, 733.0, 734.0, 733.0, 734.0, 735.0, 733.0, 734.0, 734.0, 735.0, 734.0, 735.0, 736.0, 736.0, 737.0, 738.0, 738.0, 737.0, 735.0, 735.0, 735.0, 734.0, 734.0, 734.0, 734.0, 734.0],
      "WindowWidth": [1619.0, 1617.0, 1611.0, 1609.0, 1614.0, 1614.0, 1612.0, 1613.0, 1614.0, 1614.0, 1615.0, 1616.0, 1615.0, 1614.0, 1614.0, 1613.0, 1613.0, 1612.0, 1613.0, 1612.0, 1612.0, 1610.0, 1611.0, 1609.0, 1609.0, 1610.0, 1609.0, 1611.0, 1610.0, 1610.0, 1609.0, 1607.0, 1609.0, 1606.0, 1608.0, 1606.0, 1606.0, 1608.0, 1607.0, 1607.0, 1604.0, 1602.0, 1602.0, 1603.0, 1608.0, 1607.0, 1607.0, 1606.0, 1606.0, 1605.0, 1606.0, 1606.0, 1607.0, 1610.0, 1612.0, 1613.0, 1611.0, 1610.0, 1608.0, 1609.0, 1610.0, 1609.0, 1610.0, 1609.0, 1609.0, 1608.0, 1610.0, 1612.0, 1609.0, 1609.0, 1605.0, 1607.0, 1610.0, 1609.0, 1606.0, 1603.0, 1605.0, 1610.0, 1612.0, 1614.0, 1613.0, 1614.0, 1611.0, 1615.0, 1614.0, 1611.0, 1611.0, 1616.0, 1616.0, 1618.0, 1612.0, 1613.0, 1608.0, 1609.0, 1606.0, 1609.0, 1608.0, 1606.0, 1607.0, 1605.0, 1607.0, 1607.0, 1604.0, 1606.0, 1609.0, 1609.0, 1610.0, 1611.0, 1612.0, 1615.0, 1613.0, 1615.0, 1609.0, 1610.0, 1610.0, 1609.0, 1607.0, 1608.0, 1607.0, 1605.0, 1602.0, 1602.0, 1604.0, 1603.0, 1605.0, 1606.0, 1605.0, 1604.0, 1603.0, 1605.0, 1608.0, 1608.0, 1609.0, 1611.0, 1609.0, 1608.0, 1603.0, 1600.0, 1600.0, 1600.0, 1601.0, 1599.0, 1600.0, 1605.0, 1600.0, 1600.0, 1600.0, 1603.0, 1601.0, 1605.0, 1605.0, 1608.0, 1610.0, 1613.0, 1612.0, 1609.0, 1603.0, 1604.0, 1603.0, 1602.0, 1601.0, 1601.0, 1599.0, 1599.0]
    },
    "slices": {}
  }
}