{
  "AcquisitionMatrixPE": 72,
  "AcquisitionNumber": 1,
  "AcquisitionTime": "16:04:46.547500",
  "BandwidthPerPixelPhaseEncode": 17.943,
  "BaseResolution": 96,
  "BodyPartExamined": "BRAIN",
  "CoilCombinationMethod": "Sum of Squares",
  "ConsistencyInfo": "N4_VE11C_LATEST_20160120",
  "ConversionSoftware": "dcm2niix",
  "ConversionSoftwareVersion": "v1.0.20211006",
  "DerivedVendorReportedEchoSpacing": 0.000552897,
  "DeviceSerialNumber": "166011",
  "EchoTime": 0.03,
  "EchoTrainLength": 58,
  "EffectiveEchoSpacing": 0.000580542,
  "FlipAngle": 62,
  "ImageOrientationPatientDICOM": [0.999341, -0.0255233, 0.0257902, 0.0268668, 0.998224, -0.053162],
  "ImageType": [
    "ORIGINAL",
    "PRIMARY",
    "M",
    "ND",
    "MOSAIC"
],
  "ImagingFrequency": 123.259,
  "InPlanePhaseEncodingDirectionDICOM": "COL",
  "InstitutionAddress": "West 130th Street 610,NY,NYC,US,10025",
  "InstitutionName": "MBBI",
  "MRAcquisitionType": "2D",
  "MagneticFieldStrength": 3,
  "Manufacturer": "Siemens",
  "ManufacturersModelName": "Prisma",
  "Modality": "MR",
  "MultibandAccelerationFactor": 3,
  "PartialFourier": 0.75,
  "PatientPosition": "HFS",
  "PercentPhaseFOV": 100,
  "PercentSampling": 75,
  "PhaseEncodingDirection": "j-",
  "PhaseEncodingSteps": 58,
  "PhaseOversampling": 0.05,
  "PhaseResolution": 0.75,
  "PixelBandwidth": 2265,
  "ProcedureStepDescription": "White^Word_recognition",
  "ProtocolName": "func_vwfate_run5",
  "PulseSequenceDetails": "%SiemensSeq%\\ep2d_bold",
  "ReceiveCoilActiveElements": "HC1-6",
  "ReceiveCoilName": "HeadNeck_64",
  "ReconMatrixPE": 96,
  "RefLinesPE": 40,
  "RepetitionTime": 1.5,
  "SAR": 0.0438037,
  "ScanOptions": "PFP\\FS",
  "ScanningSequence": "EP",
  "SequenceName": "*epfid2d1_72",
  "SequenceVariant": "SK\\OSP",
  "SeriesDescription": "func_vwfate_run5",
  "SeriesNumber": 14,
  "ShimSetting": [-1142, -1370, 674, 508, -82, -63, 112, 9],
  "SliceThickness": 2,
  "SliceTiming": [1.0775, 0, 0.74, 0.0675, 0.8075, 0.135, 0.875, 0.2025, 0.9425, 0.27, 1.01, 0.4025, 1.1425, 0.47, 1.21, 0.5375, 1.2775, 0.605, 1.345, 0.6725, 1.4125, 0.3375, 1.0775, 0, 0.74, 0.0675, 0.8075, 0.135, 0.875, 0.2025, 0.9425, 0.27, 1.01, 0.4025, 1.1425, 0.47, 1.21, 0.5375, 1.2775, 0.605, 1.345, 0.6725, 1.4125, 0.3375, 1.0775, 0, 0.74, 0.0675, 0.8075, 0.135, 0.875, 0.2025, 0.9425, 0.27, 1.01, 0.4025, 1.1425, 0.47, 1.21, 0.5375, 1.2775, 0.605, 1.345, 0.6725, 1.4125, 0.3375],
  "SoftwareVersions": "syngo MR E11",
  "SpacingBetweenSlices": 2,
  "StationName": "AWP166011",
  "TaskName": "vwfate",
  "TotalReadoutTime": 0.0551515,
  "TxRefAmp": 228.68,
  "dcmmeta_affine": [
    [-1.998682975769043, 0.05373355746269226, 0.048775024712085724, 96.5903091430664],
    [0.051046695560216904, 1.9964488744735718, -0.10763974487781525, -65.59278869628906],
    [0.05158035457134247, 0.1063239648938179, 1.996505618095398, -66.28260803222656],
    [0.0, 0.0, 0.0, 1.0]
],
  "dcmmeta_reorient_transform": [
    [0.0, -1.0, 0.0, 95.0],
    [1.0, 0.0, 0.0, 0.0],
    [0.0, 0.0, 1.0, 0.0],
    [0.0, 0.0, 0.0, 1.0]
],
  "dcmmeta_shape": [96, 96, 66, 164],
  "dcmmeta_slice_dim": 2,
  "dcmmeta_version": 0.6,
  "global": {
    "const": {
      "AcquisitionMatrix": [96, 0, 0, 72],
      "AngioFlag": "N",
      "BitsAllocated": 16,
      "BitsStored": 12,
      "BodyPartExamined": "BRAIN",
      "Columns": 864,
      "EchoNumbers": 1,
      "EchoTime": 30.0,
      "EchoTrainLength": 58,
      "FlipAngle": 62.0,
      "HighBit": 11,
      "ImageOrientationPatient": [0.99934149592179, -0.0255233483292, 0.02579017679017, 0.02686677819489, 0.9982244136426, -0.0531619811268],
      "ImagePositionPatient": [-889.82295136024, -871.10426646655, -35.160289404001],
      "ImageType": [
        "ORIGINAL",
        "PRIMARY",
        "M",
        "ND",
        "MOSAIC"
],
      "ImagedNucleus": "1H",
      "ImagingFrequency": 123.259495,
      "InPlanePhaseEncodingDirection": "COL",
      "MRAcquisitionType": "2D",
      "MagneticFieldStrength": 3.0,
      "Manufacturer": "SIEMENS",
      "ManufacturerModelName": "Prisma",
      "Modality": "MR",
      "NumberOfAverages": 1.0,
      "NumberOfPhaseEncodingSteps": 58,
      "PercentPhaseFieldOfView": 100.0,
      "PercentSampling": 75.0,
      "PerformedProcedureStepStartTime": "150624.384000",
      "PhotometricInterpretation": "MONOCHROME2",
      "PixelBandwidth": 2265.0,
      "PixelRepresentation": 0,
      "PixelSpacing": [2.0, 2.0],
      "ProtocolName": "func_vwfate_run5",
      "RepetitionTime": 1500.0,
      "Rows": 864,
      "SAR": 0.04380369379235,
      "SamplesPerPixel": 1,
      "ScanOptions": [
        "PFP",
        "FS"
],
      "ScanningSequence": "EP",
      "SequenceName": "*epfid2d1_72",
      "SequenceVariant": [
        "SK",
        "OSP"
],
      "SeriesDescription": "func_vwfate_run5",
      "SeriesNumber": 14,
      "SeriesTime": "160529.283000",
      "SliceLocation": -60.281010185887,
      "SliceThickness": 2.0,
      "SmallestImagePixelValue": 0,
      "SoftwareVersions": "syngo MR E11",
      "SpacingBetweenSlices": 1.999999942094,
      "SpecificCharacterSet": "ISO_IR 100",
      "StudyID": "1",
      "StudyTime": "150624.300000",
      "TransmitCoilName": "Body",
      "VariableFlipAngleFlag": "N",
      "WindowCenterWidthExplanation": "Algo1",
      "dBdt": 0.0},
    "slices": {}
  },
  "time": {
    "samples": {
      "AcquisitionNumber": [1, 2, 3, 4, 5, 6, 7, 8, 9, 10, 11, 12, 13, 14, 15, 16, 17, 18, 19, 20, 21, 22, 23, 24, 25, 26, 27, 28, 29, 30, 31, 32, 33, 34, 35, 36, 37, 38, 39, 40, 41, 42, 43, 44, 45, 46, 47, 48, 49, 50, 51, 52, 53, 54, 55, 56, 57, 58, 59, 60, 61, 62, 63, 64, 65, 66, 67, 68, 69, 70, 71, 72, 73, 74, 75, 76, 77, 78, 79, 80, 81, 82, 83, 84, 85, 86, 87, 88, 89, 90, 91, 92, 93, 94, 95, 96, 97, 98, 99, 100, 101, 102, 103, 104, 105, 106, 107, 108, 109, 110, 111, 112, 113, 114, 115, 116, 117, 118, 119, 120, 121, 122, 123, 124, 125, 126, 127, 128, 129, 130, 131, 132, 133, 134, 135, 136, 137, 138, 139, 140, 141, 142, 143, 144, 145, 146, 147, 148, 149, 150, 151, 152, 153, 154, 155, 156, 157, 158, 159, 160, 161, 162, 163, 164],
      "AcquisitionTime": ["160446.547500", "160448.047500", "160449.547500", "160451.047500", "160452.547500", "160454.047500", "160455.547500", "160457.047500", "160458.547500", "160500.047500", "160501.547500", "160503.047500", "160504.547500", "160506.047500", "160507.547500", "160509.047500", "160510.547500", "160512.047500", "160513.547500", "160515.047500", "160516.547500", "160518.047500", "160519.547500", "160521.047500", "160522.547500", "160524.047500", "160525.547500", "160527.047500", "160528.547500", "160530.047500", "160531.547500", "160533.047500", "160534.547500", "160536.047500", "160537.547500", "160539.047500", "160540.547500", "160542.047500", "160543.547500", "160545.047500", "160546.547500", "160548.047500", "160549.547500", "160551.047500", "160552.547500", "160554.047500", "160555.547500", "160557.047500", "160558.547500", "160600.047500", "160601.547500", "160603.047500", "160604.547500", "160606.047500", "160607.547500", "160609.047500", "160610.547500", "160612.047500", "160613.547500", "160615.047500", "160616.547500", "160618.047500", "160619.547500", "160621.047500", "160622.547500", "160624.047500", "160625.547500", "160627.047500", "160628.547500", "160630.047500", "160631.547500", "160633.047500", "160634.547500", "160636.047500", "160637.547500", "160639.047500", "160640.547500", "160642.047500", "160643.547500", "160645.047500", "160646.547500", "160648.047500", "160649.547500", "160651.047500", "160652.547500", "160654.047500", "160655.547500", "160657.047500", "160658.547500", "160700.047500", "160701.547500", "160703.047500", "160704.547500", "160706.047500", "160707.547500", "160709.047500", "160710.547500", "160712.047500", "160713.547500", "160715.047500", "160716.547500", "160718.047500", "160719.547500", "160721.047500", "160722.547500", "160724.047500", "160725.547500", "160727.047500", "160728.547500", "160730.047500", "160731.547500", "160733.047500", "160734.547500", "160736.047500", "160737.547500", "160739.047500", "160740.547500", "160742.047500", "160743.547500", "160745.047500", "160746.547500", "160748.047500", "160749.547500", "160751.047500", "160752.547500", "160754.047500", "160755.547500", "160757.047500", "160758.547500", "160800.047500", "160801.547500", "160803.047500", "160804.547500", "160806.047500", "160807.547500", "160809.047500", "160810.547500", "160812.047500", "160813.547500", "160815.047500", "160816.547500", "160818.047500", "160819.547500", "160821.047500", "160822.547500", "160824.047500", "160825.547500", "160827.047500", "160828.547500", "160830.047500", "160831.547500", "160833.047500", "160834.547500", "160836.047500", "160837.547500", "160839.047500", "160840.547500", "160842.047500", "160843.547500", "160845.047500", "160846.547500", "160848.047500", "160849.547500", "160851.047500"],
      "ContentTime": ["160529.287000", "160529.291000", "160529.303000", "160529.307000", "160529.310000", "160529.317000", "160529.320000", "160529.324000", "160529.327000", "160529.330000", "160529.333000", "160529.336000", "160529.347000", "160529.351000", "160529.355000", "160529.358000", "160529.361000", "160529.364000", "160529.367000", "160529.370000", "160529.373000", "160529.377000", "160529.380000", "160529.383000", "160529.401000", "160529.404000", "160529.407000", "160529.410000", "160609.283000", "160609.286000", "160609.289000", "160609.292000", "160609.295000", "160609.298000", "160609.302000", "160609.305000", "160609.308000", "160609.311000", "160609.314000", "160609.317000", "160609.320000", "160609.323000", "160609.326000", "160609.332000", "160609.335000", "160609.338000", "160609.341000", "160609.344000", "160609.347000", "160609.350000", "160609.353000", "160609.356000", "160609.359000", "160609.362000", "160609.365000", "160649.284000", "160649.287000", "160649.290000", "160649.293000", "160649.297000", "160649.300000", "160649.303000", "160649.321000", "160649.324000", "160649.327000", "160649.330000", "160649.333000", "160649.336000", "160649.340000", "160649.343000", "160649.346000", "160649.349000", "160649.352000", "160649.355000", "160649.358000", "160649.361000", "160649.364000", "160649.367000", "160649.370000", "160649.373000", "160649.376000", "160729.282000", "160729.285000", "160729.288000", "160729.291000", "160729.294000", "160729.298000", "160729.301000", "160729.304000", "160729.307000", "160729.310000", "160729.313000", "160729.316000", "160729.319000", "160729.322000", "160729.325000", "160729.328000", "160729.331000", "160729.336000", "160729.339000", "160729.342000", "160729.345000", "160729.348000", "160729.351000", "160729.354000", "160729.357000", "160729.360000", "160729.363000", "160809.282000", "160809.285000", "160809.288000", "160809.291000", "160809.294000", "160809.297000", "160809.300000", "160809.303000", "160809.307000", "160809.310000", "160809.313000", "160809.316000", "160809.319000", "160809.322000", "160809.325000", "160809.328000", "160809.331000", "160809.334000", "160809.337000", "160809.340000", "160809.343000", "160809.346000", "160809.349000", "160809.352000", "160809.355000", "160809.358000", "160809.361000", "160849.283000", "160849.286000", "160849.289000", "160849.292000", "160849.296000", "160849.299000", "160849.302000", "160849.305000", "160849.308000", "160849.311000", "160849.314000", "160849.317000", "160849.320000", "160849.323000", "160849.326000", "160849.329000", "160849.332000", "160849.336000", "160849.339000", "160849.342000", "160849.345000", "160849.348000", "160849.351000", "160849.354000", "160849.357000", "160849.360000", "160852.546000", "160852.550000", "160852.553000"],
      "InstanceCreationTime": ["160529.287000", "160529.291000", "160529.303000", "160529.307000", "160529.310000", "160529.317000", "160529.320000", "160529.324000", "160529.327000", "160529.330000", "160529.333000", "160529.336000", "160529.347000", "160529.351000", "160529.355000", "160529.358000", "160529.361000", "160529.364000", "160529.367000", "160529.370000", "160529.373000", "160529.377000", "160529.380000", "160529.383000", "160529.401000", "160529.404000", "160529.407000", "160529.410000", "160609.283000", "160609.286000", "160609.289000", "160609.292000", "160609.295000", "160609.298000", "160609.302000", "160609.305000", "160609.308000", "160609.311000", "160609.314000", "160609.317000", "160609.320000", "160609.323000", "160609.326000", "160609.332000", "160609.335000", "160609.338000", "160609.341000", "160609.344000", "160609.347000", "160609.350000", "160609.353000", "160609.356000", "160609.359000", "160609.362000", "160609.365000", "160649.284000", "160649.287000", "160649.290000", "160649.293000", "160649.297000", "160649.300000", "160649.303000", "160649.321000", "160649.324000", "160649.327000", "160649.330000", "160649.333000", "160649.336000", "160649.340000", "160649.343000", "160649.346000", "160649.349000", "160649.352000", "160649.355000", "160649.358000", "160649.361000", "160649.364000", "160649.367000", "160649.370000", "160649.373000", "160649.376000", "160729.282000", "160729.285000", "160729.288000", "160729.291000", "160729.294000", "160729.298000", "160729.301000", "160729.304000", "160729.307000", "160729.310000", "160729.313000", "160729.316000", "160729.319000", "160729.322000", "160729.325000", "160729.328000", "160729.331000", "160729.336000", "160729.339000", "160729.342000", "160729.345000", "160729.348000", "160729.351000", "160729.354000", "160729.357000", "160729.360000", "160729.363000", "160809.282000", "160809.285000", "160809.288000", "160809.291000", "160809.294000", "160809.297000", "160809.300000", "160809.303000", "160809.307000", "160809.310000", "160809.313000", "160809.316000", "160809.319000", "160809.322000", "160809.325000", "160809.328000", "160809.331000", "160809.334000", "160809.337000", "160809.340000", "160809.343000", "160809.346000", "160809.349000", "160809.352000", "160809.355000", "160809.358000", "160809.361000", "160849.283000", "160849.286000", "160849.289000", "160849.292000", "160849.296000", "160849.299000", "160849.302000", "160849.305000", "160849.308000", "160849.311000", "160849.314000", "160849.317000", "160849.320000", "160849.323000", "160849.326000", "160849.329000", "160849.332000", "160849.336000", "160849.339000", "160849.342000", "160849.345000", "160849.348000", "160849.351000", "160849.354000", "160849.357000", "160849.360000", "160852.546000", "160852.550000", "160852.553000"],
      "InstanceNumber": [1, 2, 3, 4, 5, 6, 7, 8, 9, 10, 11, 12, 13, 14, 15, 16, 17, 18, 19, 20, 21, 22, 23, 24, 25, 26, 27, 28, 29, 30, 31, 32, 33, 34, 35, 36, 37, 38, 39, 40, 41, 42, 43, 44, 45, 46, 47, 48, 49, 50, 51, 52, 53, 54, 55, 56, 57, 58, 59, 60, 61, 62, 63, 64, 65, 66, 67, 68, 69, 70, 71, 72, 73, 74, 75, 76, 77, 78, 79, 80, 81, 82, 83, 84, 85, 86, 87, 88, 89, 90, 91, 92, 93, 94, 95, 96, 97, 98, 99, 100, 101, 102, 103, 104, 105, 106, 107, 108, 109, 110, 111, 112, 113, 114, 115, 116, 117, 118, 119, 120, 121, 122, 123, 124, 125, 126, 127, 128, 129, 130, 131, 132, 133, 134, 135, 136, 137, 138, 139, 140, 141, 142, 143, 144, 145, 146, 147, 148, 149, 150, 151, 152, 153, 154, 155, 156, 157, 158, 159, 160, 161, 162, 163, 164],
      "LargestImagePixelValue": [2494, 2525, 2502, 2475, 2487, 2468, 2520, 2470, 2478, 2461, 2450, 2476, 2435, 2432, 2479, 2424, 2462, 2437, 2422, 2398, 2370, 2420, 2441, 2445, 2431, 2445, 2389, 2424, 2423, 2418, 2446, 2416, 2446, 2405, 2448, 2437, 2429, 2449, 2469, 2449, 2455, 2458, 2409, 2417, 2438, 2442, 2502, 2448, 2444, 2442, 2450, 2425, 2447, 2430, 2490, 2493, 2461, 2526, 2540, 2470, 2500, 2461, 2479, 2448, 2530, 2654, 2564, 2491, 2506, 2528, 2515, 2525, 2491, 2515, 2528, 2546, 2552, 2561, 2534, 2544, 2478, 2538, 2523, 2560, 2539, 2502, 2505, 2581, 2588, 2593, 2567, 2643, 2579, 2621, 2567, 2573, 2571, 2578, 2655, 2589, 2598, 2605, 2601, 2637, 2622, 2642, 2617, 2627, 2633, 2658, 2614, 2656, 2581, 2571, 2498, 2468, 2643, 2547, 2513, 2562, 2547, 2551, 2558, 2578, 2578, 2616, 2635, 2579, 2603, 2594, 2568, 2657, 2632, 2716, 2610, 2647, 2617, 2676, 2632, 2668, 2615, 2633, 2654, 2622, 2642, 2527, 2614, 2568, 2575, 2620, 2637, 2634, 2615, 2634, 2576, 2620, 2604, 2619, 2616, 2514, 2488, 2518, 2543, 2568],
      "WindowCenter": [715.0, 712.0, 711.0, 710.0, 710.0, 710.0, 710.0, 709.0, 708.0, 708.0, 707.0, 707.0, 706.0, 706.0, 707.0, 706.0, 706.0, 707.0, 707.0, 707.0, 706.0, 706.0, 707.0, 708.0, 708.0, 709.0, 708.0, 708.0, 707.0, 708.0, 708.0, 708.0, 708.0, 707.0, 708.0, 708.0, 708.0, 709.0, 710.0, 709.0, 708.0, 707.0, 707.0, 707.0, 708.0, 708.0, 708.0, 708.0, 707.0, 708.0, 708.0, 708.0, 708.0, 708.0, 708.0, 708.0, 708.0, 708.0, 708.0, 708.0, 708.0, 709.0, 709.0, 709.0, 709.0, 710.0, 709.0, 709.0, 710.0, 711.0, 711.0, 710.0, 708.0, 709.0, 709.0, 710.0, 711.0, 711.0, 710.0, 709.0, 709.0, 709.0, 708.0, 709.0, 709.0, 709.0, 709.0, 710.0, 710.0, 710.0, 709.0, 711.0, 710.0, 710.0, 708.0, 707.0, 707.0, 706.0, 708.0, 707.0, 706.0, 706.0, 706.0, 706.0, 706.0, 706.0, 706.0, 706.0, 707.0, 708.0, 709.0, 709.0, 709.0, 710.0, 709.0, 709.0, 710.0, 709.0, 709.0, 708.0, 708.0, 708.0, 707.0, 706.0, 706.0, 707.0, 709.0, 709.0, 709.0, 709.0, 710.0, 710.0, 711.0, 713.0, 712.0, 711.0, 710.0, 710.0, 708.0, 708.0, 707.0, 707.0, 708.0, 708.0, 708.0, 707.0, 707.0, 706.0, 705.0, 705.0, 705.0, 705.0, 707.0, 707.0, 706.0, 706.0, 707.0, 708.0, 708.0, 709.0, 709.0, 708.0, 708.0, 708.0],
      "WindowWidth": [1547.0, 1539.0, 1536.0, 1534.0, 1535.0, 1533.0, 1534.0, 1531.0, 1529.0, 1527.0, 1526.0, 1526.0, 1524.0, 1524.0, 1526.0, 1524.0, 1524.0, 1525.0, 1526.0, 1525.0, 1524.0, 1524.0, 1526.0, 1528.0, 1530.0, 1530.0, 1529.0, 1528.0, 1526.0, 1529.0, 1529.0, 1529.0, 1529.0, 1527.0, 1529.0, 1529.0, 1530.0, 1532.0, 1533.0, 1530.0, 1530.0, 1527.0, 1525.0, 1526.0, 1528.0, 1529.0, 1530.0, 1529.0, 1527.0, 1527.0, 1529.0, 1529.0, 1530.0, 1529.0, 1530.0, 1529.0, 1528.0, 1528.0, 1528.0, 1528.0, 1528.0, 1530.0, 1531.0, 1532.0, 1532.0, 1532.0, 1531.0, 1531.0, 1534.0, 1535.0, 1536.0, 1533.0, 1529.0, 1531.0, 1532.0, 1534.0, 1536.0, 1536.0, 1534.0, 1532.0, 1530.0, 1530.0, 1529.0, 1531.0, 1530.0, 1531.0, 1531.0, 1532.0, 1532.0, 1533.0, 1531.0, 1535.0, 1533.0, 1533.0, 1528.0, 1525.0, 1525.0, 1524.0, 1527.0, 1526.0, 1523.0, 1522.0, 1523.0, 1523.0, 1522.0, 1522.0, 1524.0, 1524.0, 1525.0, 1528.0, 1531.0, 1532.0, 1531.0, 1533.0, 1532.0, 1530.0, 1533.0, 1530.0, 1530.0, 1528.0, 1529.0, 1529.0, 1525.0, 1522.0, 1523.0, 1526.0, 1529.0, 1531.0, 1531.0, 1532.0, 1533.0, 1534.0, 1537.0, 1542.0, 1538.0, 1536.0, 1533.0, 1533.0, 1529.0, 1527.0, 1526.0, 1526.0, 1527.0, 1528.0, 1528.0, 1525.0, 1525.0, 1522.0, 1521.0, 1521.0, 1519.0, 1521.0, 1525.0, 1524.0, 1523.0, 1523.0, 1525.0, 1527.0, 1529.0, 1530.0, 1530.0, 1529.0, 1528.0, 1528.0]
    },
    "slices": {}
  }
}