{
  "AcquisitionMatrixPE": 72,
  "AcquisitionNumber": 1,
  "AcquisitionTime": "15:57:34.447500",
  "BandwidthPerPixelPhaseEncode": 17.943,
  "BaseResolution": 96,
  "BodyPartExamined": "BRAIN",
  "CoilCombinationMethod": "Sum of Squares",
  "ConsistencyInfo": "N4_VE11C_LATEST_20160120",
  "ConversionSoftware": "dcm2niix",
  "ConversionSoftwareVersion": "v1.0.20211006",
  "DerivedVendorReportedEchoSpacing": 0.000552897,
  "DeviceSerialNumber": "166011",
  "EchoTime": 0.03,
  "EchoTrainLength": 58,
  "EffectiveEchoSpacing": 0.000580542,
  "FlipAngle": 62,
  "ImageOrientationPatientDICOM": [0.999341, -0.0255233, 0.0257902, 0.0268668, 0.998224, -0.053162],
  "ImageType": [
    "ORIGINAL",
    "PRIMARY",
    "M",
    "ND",
    "MOSAIC"
],
  "ImagingFrequency": 123.259,
  "InPlanePhaseEncodingDirectionDICOM": "COL",
  "InstitutionAddress": "West 130th Street 610,NY,NYC,US,10025",
  "InstitutionName": "MBBI",
  "MRAcquisitionType": "2D",
  "MagneticFieldStrength": 3,
  "Manufacturer": "Siemens",
  "ManufacturersModelName": "Prisma",
  "Modality": "MR",
  "MultibandAccelerationFactor": 3,
  "PartialFourier": 0.75,
  "PatientPosition": "HFS",
  "PercentPhaseFOV": 100,
  "PercentSampling": 75,
  "PhaseEncodingDirection": "j-",
  "PhaseEncodingSteps": 58,
  "PhaseOversampling": 0.05,
  "PhaseResolution": 0.75,
  "PixelBandwidth": 2265,
  "ProcedureStepDescription": "White^Word_recognition",
  "ProtocolName": "func_catLoc_run2",
  "PulseSequenceDetails": "%SiemensSeq%\\ep2d_bold",
  "ReceiveCoilActiveElements": "HC1-6",
  "ReceiveCoilName": "HeadNeck_64",
  "ReconMatrixPE": 96,
  "RefLinesPE": 40,
  "RepetitionTime": 1.5,
  "SAR": 0.0439408,
  "ScanOptions": "PFP\\FS",
  "ScanningSequence": "EP",
  "SequenceName": "*epfid2d1_72",
  "SequenceVariant": "SK\\OSP",
  "SeriesDescription": "func_catLoc_run2",
  "SeriesNumber": 13,
  "ShimSetting": [-1142, -1370, 674, 508, -82, -63, 112, 9],
  "SliceThickness": 2,
  "SliceTiming": [1.075, 0, 0.74, 0.0675, 0.8075, 0.135, 0.875, 0.2025, 0.9425, 0.2675, 1.0075, 0.4025, 1.1425, 0.47, 1.21, 0.5375, 1.2775, 0.605, 1.345, 0.6725, 1.4125, 0.335, 1.075, 0, 0.74, 0.0675, 0.8075, 0.135, 0.875, 0.2025, 0.9425, 0.2675, 1.0075, 0.4025, 1.1425, 0.47, 1.21, 0.5375, 1.2775, 0.605, 1.345, 0.6725, 1.4125, 0.335, 1.075, 0, 0.74, 0.0675, 0.8075, 0.135, 0.875, 0.2025, 0.9425, 0.2675, 1.0075, 0.4025, 1.1425, 0.47, 1.21, 0.5375, 1.2775, 0.605, 1.345, 0.6725, 1.4125, 0.335],
  "SoftwareVersions": "syngo MR E11",
  "SpacingBetweenSlices": 2,
  "StationName": "AWP166011",
  "TaskName": "catLoc",
  "TotalReadoutTime": 0.0551515,
  "TxRefAmp": 228.68,
  "dcmmeta_affine": [
    [-1.998682975769043, 0.05373355746269226, 0.048775024712085724, 96.5903091430664],
    [0.051046695560216904, 1.9964488744735718, -0.10763974487781525, -65.59278869628906],
    [0.05158035457134247, 0.1063239648938179, 1.996505618095398, -66.28260803222656],
    [0.0, 0.0, 0.0, 1.0]
],
  "dcmmeta_reorient_transform": [
    [0.0, -1.0, 0.0, 95.0],
    [1.0, 0.0, 0.0, 0.0],
    [0.0, 0.0, 1.0, 0.0],
    [0.0, 0.0, 0.0, 1.0]
],
  "dcmmeta_shape": [96, 96, 66, 214],
  "dcmmeta_slice_dim": 2,
  "dcmmeta_version": 0.6,
  "global": {
    "const": {
      "AcquisitionMatrix": [96, 0, 0, 72],
      "AngioFlag": "N",
      "BitsAllocated": 16,
      "BitsStored": 12,
      "BodyPartExamined": "BRAIN",
      "Columns": 864,
      "EchoNumbers": 1,
      "EchoTime": 30.0,
      "EchoTrainLength": 58,
      "FlipAngle": 62.0,
      "HighBit": 11,
      "ImageOrientationPatient": [0.99934149592179, -0.0255233483292, 0.02579017679017, 0.02686677819489, 0.9982244136426, -0.0531619811268],
      "ImagePositionPatient": [-889.82295136024, -871.10426646655, -35.160289404001],
      "ImageType": [
        "ORIGINAL",
        "PRIMARY",
        "M",
        "ND",
        "MOSAIC"
],
      "ImagedNucleus": "1H",
      "ImagingFrequency": 123.259492,
      "InPlanePhaseEncodingDirection": "COL",
      "MRAcquisitionType": "2D",
      "MagneticFieldStrength": 3.0,
      "Manufacturer": "SIEMENS",
      "ManufacturerModelName": "Prisma",
      "Modality": "MR",
      "NumberOfAverages": 1.0,
      "NumberOfPhaseEncodingSteps": 58,
      "PercentPhaseFieldOfView": 100.0,
      "PercentSampling": 75.0,
      "PerformedProcedureStepStartTime": "150624.384000",
      "PhotometricInterpretation": "MONOCHROME2",
      "PixelBandwidth": 2265.0,
      "PixelRepresentation": 0,
      "PixelSpacing": [2.0, 2.0],
      "ProtocolName": "func_catLoc_run2",
      "RepetitionTime": 1500.0,
      "Rows": 864,
      "SAR": 0.04394077554973,
      "SamplesPerPixel": 1,
      "ScanOptions": [
        "PFP",
        "FS"
],
      "ScanningSequence": "EP",
      "SequenceName": "*epfid2d1_72",
      "SequenceVariant": [
        "SK",
        "OSP"
],
      "SeriesDescription": "func_catLoc_run2",
      "SeriesNumber": 13,
      "SeriesTime": "155809.197000",
      "SliceLocation": -60.281010185887,
      "SliceThickness": 2.0,
      "SmallestImagePixelValue": 0,
      "SoftwareVersions": "syngo MR E11",
      "SpacingBetweenSlices": 1.999999942094,
      "SpecificCharacterSet": "ISO_IR 100",
      "StudyID": "1",
      "StudyTime": "150624.300000",
      "TransmitCoilName": "Body",
      "VariableFlipAngleFlag": "N",
      "WindowCenterWidthExplanation": "Algo1",
      "dBdt": 0.0},
    "slices": {}
  },
  "time": {
    "samples": {
      "AcquisitionNumber": [1, 2, 3, 4, 5, 6, 7, 8, 9, 10, 11, 12, 13, 14, 15, 16, 17, 18, 19, 20, 21, 22, 23, 24, 25, 26, 27, 28, 29, 30, 31, 32, 33, 34, 35, 36, 37, 38, 39, 40, 41, 42, 43, 44, 45, 46, 47, 48, 49, 50, 51, 52, 53, 54, 55, 56, 57, 58, 59, 60, 61, 62, 63, 64, 65, 66, 67, 68, 69, 70, 71, 72, 73, 74, 75, 76, 77, 78, 79, 80, 81, 82, 83, 84, 85, 86, 87, 88, 89, 90, 91, 92, 93, 94, 95, 96, 97, 98, 99, 100, 101, 102, 103, 104, 105, 106, 107, 108, 109, 110, 111, 112, 113, 114, 115, 116, 117, 118, 119, 120, 121, 122, 123, 124, 125, 126, 127, 128, 129, 130, 131, 132, 133, 134, 135, 136, 137, 138, 139, 140, 141, 142, 143, 144, 145, 146, 147, 148, 149, 150, 151, 152, 153, 154, 155, 156, 157, 158, 159, 160, 161, 162, 163, 164, 165, 166, 167, 168, 169, 170, 171, 172, 173, 174, 175, 176, 177, 178, 179, 180, 181, 182, 183, 184, 185, 186, 187, 188, 189, 190, 191, 192, 193, 194, 195, 196, 197, 198, 199, 200, 201, 202, 203, 204, 205, 206, 207, 208, 209, 210, 211, 212, 213, 214],
      "AcquisitionTime": ["155734.447500", "155735.947500", "155737.447500", "155738.947500", "155740.447500", "155741.947500", "155743.447500", "155744.947500", "155746.447500", "155747.947500", "155749.447500", "155750.947500", "155752.447500", "155753.947500", "155755.447500", "155756.947500", "155758.447500", "155759.947500", "155801.447500", "155802.947500", "155804.447500", "155805.947500", "155807.447500", "155808.947500", "155810.447500", "155811.947500", "155813.447500", "155814.947500", "155816.447500", "155817.947500", "155819.447500", "155820.947500", "155822.447500", "155823.947500", "155825.447500", "155826.947500", "155828.447500", "155829.947500", "155831.447500", "155832.947500", "155834.447500", "155835.947500", "155837.447500", "155838.947500", "155840.447500", "155841.947500", "155843.447500", "155844.947500", "155846.447500", "155847.947500", "155849.447500", "155850.947500", "155852.447500", "155853.947500", "155855.447500", "155856.947500", "155858.447500", "155859.947500", "155901.447500", "155902.947500", "155904.447500", "155905.947500", "155907.447500", "155908.947500", "155910.447500", "155911.947500", "155913.447500", "155914.947500", "155916.447500", "155917.947500", "155919.447500", "155920.947500", "155922.447500", "155923.947500", "155925.447500", "155926.947500", "155928.447500", "155929.947500", "155931.447500", "155932.947500", "155934.447500", "155935.947500", "155937.447500", "155938.947500", "155940.447500", "155941.947500", "155943.447500", "155944.947500", "155946.447500", "155947.947500", "155949.447500", "155950.947500", "155952.447500", "155953.947500", "155955.447500", "155956.947500", "155958.447500", "155959.947500", "160001.447500", "160002.947500", "160004.447500", "160005.947500", "160007.447500", "160008.947500", "160010.447500", "160011.947500", "160013.447500", "160014.947500", "160016.447500", "160017.947500", "160019.447500", "160020.947500", "160022.447500", "160023.947500", "160025.447500", "160026.947500", "160028.447500", "160029.947500", "160031.447500", "160032.947500", "160034.447500", "160035.947500", "160037.447500", "160038.947500", "160040.447500", "160041.947500", "160043.447500", "160044.947500", "160046.447500", "160047.947500", "160049.447500", "160050.947500", "160052.447500", "160053.947500", "160055.447500", "160056.947500", "160058.447500", "160059.947500", "160101.447500", "160102.947500", "160104.447500", "160105.947500", "160107.447500", "160108.947500", "160110.447500", "160111.947500", "160113.447500", "160114.947500", "160116.447500", "160117.947500", "160119.447500", "160120.947500", "160122.447500", "160123.947500", "160125.447500", "160126.947500", "160128.447500", "160129.947500", "160131.447500", "160132.947500", "160134.447500", "160135.947500", "160137.447500", "160138.947500", "160140.447500", "160141.947500", "160143.447500", "160144.947500", "160146.447500", "160147.947500", "160149.447500", "160150.947500", "160152.447500", "160153.947500", "160155.447500", "160156.947500", "160158.447500", "160159.947500", "160201.447500", "160202.947500", "160204.447500", "160205.947500", "160207.447500", "160208.947500", "160210.447500", "160211.947500", "160213.447500", "160214.947500", "160216.447500", "160217.947500", "160219.447500", "160220.947500", "160222.447500", "160223.947500", "160225.447500", "160226.947500", "160228.447500", "160229.947500", "160231.447500", "160232.947500", "160234.447500", "160235.947500", "160237.447500", "160238.947500", "160240.447500", "160241.947500", "160243.447500", "160244.947500", "160246.447500", "160247.947500", "160249.447500", "160250.947500", "160252.447500", "160253.947500"],
      "ContentTime": ["155809.201000", "155809.205000", "155809.208000", "155809.214000", "155809.217000", "155809.220000", "155809.223000", "155809.226000", "155809.229000", "155809.232000", "155809.235000", "155809.238000", "155809.245000", "155809.248000", "155809.251000", "155809.254000", "155809.262000", "155809.265000", "155809.268000", "155809.271000", "155809.274000", "155809.277000", "155809.280000", "155849.176000", "155849.179000", "155849.182000", "155849.186000", "155849.190000", "155849.200000", "155849.203000", "155849.206000", "155849.209000", "155849.212000", "155849.215000", "155849.218000", "155849.221000", "155849.224000", "155849.227000", "155849.230000", "155849.233000", "155849.242000", "155849.245000", "155849.248000", "155849.251000", "155849.254000", "155849.257000", "155849.260000", "155849.263000", "155849.266000", "155849.269000", "155929.177000", "155929.180000", "155929.183000", "155929.186000", "155929.189000", "155929.192000", "155929.195000", "155929.198000", "155929.202000", "155929.205000", "155929.208000", "155929.211000", "155929.214000", "155929.217000", "155929.220000", "155929.223000", "155929.226000", "155929.229000", "155929.232000", "155929.244000", "155929.247000", "155929.250000", "155929.253000", "155929.256000", "155929.259000", "155929.262000", "160009.177000", "160009.183000", "160009.186000", "160009.189000", "160009.192000", "160009.195000", "160009.198000", "160009.213000", "160009.216000", "160009.219000", "160009.222000", "160009.225000", "160009.228000", "160009.231000", "160009.234000", "160009.237000", "160009.240000", "160009.243000", "160009.246000", "160009.249000", "160009.252000", "160009.255000", "160009.258000", "160009.261000", "160009.264000", "160009.267000", "160009.270000", "160049.176000", "160049.179000", "160049.182000", "160049.185000", "160049.188000", "160049.191000", "160049.194000", "160049.198000", "160049.201000", "160049.204000", "160049.207000", "160049.210000", "160049.213000", "160049.216000", "160049.219000", "160049.222000", "160049.225000", "160049.228000", "160049.231000", "160049.234000", "160049.237000", "160049.250000", "160049.253000", "160049.256000", "160049.259000", "160049.262000", "160049.265000", "160129.177000", "160129.224000", "160129.227000", "160129.230000", "160129.233000", "160129.236000", "160129.239000", "160129.242000", "160129.245000", "160129.248000", "160129.251000", "160129.254000", "160129.257000", "160129.260000", "160129.263000", "160129.266000", "160129.269000", "160129.273000", "160129.276000", "160129.279000", "160129.282000", "160129.285000", "160129.288000", "160129.291000", "160129.294000", "160129.297000", "160149.182000", "160149.199000", "160149.202000", "160149.205000", "160149.208000", "160149.211000", "160149.214000", "160149.217000", "160149.220000", "160149.223000", "160149.227000", "160149.245000", "160149.248000", "160149.251000", "160229.177000", "160229.180000", "160229.183000", "160229.186000", "160229.190000", "160229.193000", "160229.196000", "160229.199000", "160229.202000", "160229.205000", "160229.208000", "160229.211000", "160229.214000", "160229.217000", "160229.220000", "160229.223000", "160229.226000", "160229.229000", "160229.232000", "160229.235000", "160229.239000", "160229.242000", "160229.245000", "160229.248000", "160229.251000", "160229.254000", "160255.144000", "160255.147000", "160255.150000", "160255.153000", "160255.157000", "160255.160000", "160255.164000", "160255.167000", "160255.170000", "160255.173000", "160255.177000", "160255.180000", "160255.183000", "160255.187000", "160255.190000", "160255.193000", "160255.197000", "160255.200000"],
      "InstanceCreationTime": ["155809.201000", "155809.205000", "155809.208000", "155809.214000", "155809.217000", "155809.220000", "155809.223000", "155809.226000", "155809.229000", "155809.232000", "155809.235000", "155809.238000", "155809.245000", "155809.248000", "155809.251000", "155809.254000", "155809.262000", "155809.265000", "155809.268000", "155809.271000", "155809.274000", "155809.277000", "155809.280000", "155849.176000", "155849.179000", "155849.182000", "155849.186000", "155849.190000", "155849.200000", "155849.203000", "155849.206000", "155849.209000", "155849.212000", "155849.215000", "155849.218000", "155849.221000", "155849.224000", "155849.227000", "155849.230000", "155849.233000", "155849.242000", "155849.245000", "155849.248000", "155849.251000", "155849.254000", "155849.257000", "155849.260000", "155849.263000", "155849.266000", "155849.269000", "155929.177000", "155929.180000", "155929.183000", "155929.186000", "155929.189000", "155929.192000", "155929.195000", "155929.198000", "155929.202000", "155929.205000", "155929.208000", "155929.211000", "155929.214000", "155929.217000", "155929.220000", "155929.223000", "155929.226000", "155929.229000", "155929.232000", "155929.244000", "155929.247000", "155929.250000", "155929.253000", "155929.256000", "155929.259000", "155929.262000", "160009.177000", "160009.183000", "160009.186000", "160009.189000", "160009.192000", "160009.195000", "160009.198000", "160009.213000", "160009.216000", "160009.219000", "160009.222000", "160009.225000", "160009.228000", "160009.231000", "160009.234000", "160009.237000", "160009.240000", "160009.243000", "160009.246000", "160009.249000", "160009.252000", "160009.255000", "160009.258000", "160009.261000", "160009.264000", "160009.267000", "160009.270000", "160049.176000", "160049.179000", "160049.182000", "160049.185000", "160049.188000", "160049.191000", "160049.194000", "160049.198000", "160049.201000", "160049.204000", "160049.207000", "160049.210000", "160049.213000", "160049.216000", "160049.219000", "160049.222000", "160049.225000", "160049.228000", "160049.231000", "160049.234000", "160049.237000", "160049.250000", "160049.253000", "160049.256000", "160049.259000", "160049.262000", "160049.265000", "160129.177000", "160129.224000", "160129.227000", "160129.230000", "160129.233000", "160129.236000", "160129.239000", "160129.242000", "160129.245000", "160129.248000", "160129.251000", "160129.254000", "160129.257000", "160129.260000", "160129.263000", "160129.266000", "160129.269000", "160129.273000", "160129.276000", "160129.279000", "160129.282000", "160129.285000", "160129.288000", "160129.291000", "160129.294000", "160129.297000", "160149.182000", "160149.199000", "160149.202000", "160149.205000", "160149.208000", "160149.211000", "160149.214000", "160149.217000", "160149.220000", "160149.223000", "160149.227000", "160149.245000", "160149.248000", "160149.251000", "160229.177000", "160229.180000", "160229.183000", "160229.186000", "160229.190000", "160229.193000", "160229.196000", "160229.199000", "160229.202000", "160229.205000", "160229.208000", "160229.211000", "160229.214000", "160229.217000", "160229.220000", "160229.223000", "160229.226000", "160229.229000", "160229.232000", "160229.235000", "160229.239000", "160229.242000", "160229.245000", "160229.248000", "160229.251000", "160229.254000", "160255.144000", "160255.147000", "160255.150000", "160255.153000", "160255.157000", "160255.160000", "160255.164000", "160255.167000", "160255.170000", "160255.173000", "160255.177000", "160255.180000", "160255.183000", "160255.187000", "160255.190000", "160255.193000", "160255.197000", "160255.200000"],
      "InstanceNumber": [1, 2, 3, 4, 5, 6, 7, 8, 9, 10, 11, 12, 13, 14, 15, 16, 17, 18, 19, 20, 21, 22, 23, 24, 25, 26, 27, 28, 29, 30, 31, 32, 33, 34, 35, 36, 37, 38, 39, 40, 41, 42, 43, 44, 45, 46, 47, 48, 49, 50, 51, 52, 53, 54, 55, 56, 57, 58, 59, 60, 61, 62, 63, 64, 65, 66, 67, 68, 69, 70, 71, 72, 73, 74, 75, 76, 77, 78, 79, 80, 81, 82, 83, 84, 85, 86, 87, 88, 89, 90, 91, 92, 93, 94, 95, 96, 97, 98, 99, 100, 101, 102, 103, 104, 105, 106, 107, 108, 109, 110, 111, 112, 113, 114, 115, 116, 117, 118, 119, 120, 121, 122, 123, 124, 125, 126, 127, 128, 129, 130, 131, 132, 133, 134, 135, 136, 137, 138, 139, 140, 141, 142, 143, 144, 145, 146, 147, 148, 149, 150, 151, 152, 153, 154, 155, 156, 157, 158, 159, 160, 161, 162, 163, 164, 165, 166, 167, 168, 169, 170, 171, 172, 173, 174, 175, 176, 177, 178, 179, 180, 181, 182, 183, 184, 185, 186, 187, 188, 189, 190, 191, 192, 193, 194, 195, 196, 197, 198, 199, 200, 201, 202, 203, 204, 205, 206, 207, 208, 209, 210, 211, 212, 213, 214],
      "LargestImagePixelValue": [3018, 2988, 2873, 2840, 2851, 2863, 2841, 2876, 2874, 2822, 2860, 2850, 2884, 2902, 2863, 2857, 2916, 2851, 2972, 2931, 2859, 2822, 2833, 2816, 2848, 2939, 2885, 2947, 2904, 2890, 2894, 2862, 2856, 2848, 2895, 2902, 2943, 2958, 2893, 2925, 2922, 2929, 2947, 2870, 2970, 2873, 2943, 3015, 2914, 2939, 2891, 2904, 2940, 2875, 2956, 2802, 2989, 2824, 2875, 2926, 2892, 2944, 2978, 2952, 3052, 2990, 2941, 2970, 2959, 2930, 2874, 2878, 2945, 2927, 2928, 2932, 2946, 2934, 2958, 2960, 2943, 2902, 2905, 2954, 2578, 2820, 2759, 2842, 2799, 2801, 2952, 2909, 2830, 2876, 2900, 2925, 2844, 2980, 2905, 2891, 2880, 2882, 2946, 2662, 2742, 2726, 2723, 2754, 2758, 2901, 2811, 2867, 2934, 2855, 2906, 2773, 2895, 2769, 2868, 2669, 2782, 2725, 2840, 2839, 2823, 2836, 2803, 2881, 2756, 2828, 2714, 3030, 2899, 2876, 2850, 2878, 2838, 2735, 2689, 2667, 2829, 2706, 2780, 2721, 2800, 2709, 2741, 2599, 2745, 2635, 2757, 2819, 2666, 2844, 2736, 2801, 2812, 2710, 2732, 2681, 2714, 2691, 2687, 2766, 2712, 2755, 2674, 2828, 2814, 2777, 2747, 2766, 2720, 2709, 2749, 2791, 2823, 2791, 2775, 2772, 2745, 2684, 2760, 2795, 2790, 2673, 3011, 2893, 2904, 2881, 2810, 2862, 3055, 2865, 2990, 2901, 2901, 2938, 2902, 2971, 2940, 2912, 2783, 2897, 2813, 2851, 2856, 2850, 2824, 2917, 2868, 2890, 2921, 2910],
      "WindowCenter": [733.0, 731.0, 730.0, 729.0, 729.0, 729.0, 729.0, 730.0, 730.0, 730.0, 730.0, 730.0, 731.0, 732.0, 731.0, 730.0, 729.0, 728.0, 727.0, 728.0, 728.0, 727.0, 726.0, 726.0, 726.0, 726.0, 726.0, 727.0, 728.0, 727.0, 727.0, 727.0, 726.0, 726.0, 727.0, 727.0, 729.0, 730.0, 729.0, 727.0, 728.0, 726.0, 727.0, 727.0, 729.0, 727.0, 728.0, 729.0, 728.0, 728.0, 728.0, 728.0, 728.0, 726.0, 726.0, 726.0, 728.0, 725.0, 726.0, 727.0, 727.0, 726.0, 727.0, 726.0, 727.0, 726.0, 726.0, 725.0, 725.0, 725.0, 725.0, 724.0, 724.0, 725.0, 726.0, 726.0, 727.0, 727.0, 728.0, 728.0, 730.0, 727.0, 726.0, 727.0, 723.0, 725.0, 722.0, 725.0, 726.0, 726.0, 728.0, 728.0, 728.0, 727.0, 728.0, 728.0, 727.0, 729.0, 729.0, 727.0, 727.0, 725.0, 725.0, 720.0, 725.0, 725.0, 723.0, 724.0, 723.0, 724.0, 725.0, 726.0, 727.0, 725.0, 725.0, 724.0, 724.0, 723.0, 724.0, 720.0, 722.0, 726.0, 727.0, 727.0, 724.0, 724.0, 722.0, 723.0, 723.0, 723.0, 721.0, 724.0, 723.0, 724.0, 724.0, 723.0, 722.0, 721.0, 720.0, 721.0, 723.0, 722.0, 724.0, 724.0, 725.0, 723.0, 723.0, 721.0, 723.0, 722.0, 724.0, 724.0, 722.0, 723.0, 723.0, 723.0, 724.0, 724.0, 725.0, 725.0, 725.0, 724.0, 722.0, 724.0, 723.0, 723.0, 723.0, 725.0, 727.0, 725.0, 723.0, 723.0, 720.0, 723.0, 723.0, 725.0, 727.0, 726.0, 725.0, 724.0, 723.0, 722.0, 723.0, 723.0, 724.0, 725.0, 730.0, 727.0, 726.0, 727.0, 726.0, 725.0, 726.0, 726.0, 728.0, 727.0, 727.0, 727.0, 727.0, 727.0, 727.0, 725.0, 723.0, 725.0, 724.0, 725.0, 727.0, 728.0, 728.0, 728.0, 727.0, 727.0, 728.0, 725.0],
      "WindowWidth": [1598.0, 1593.0, 1588.0, 1585.0, 1587.0, 1586.0, 1586.0, 1588.0, 1590.0, 1589.0, 1590.0, 1589.0, 1591.0, 1593.0, 1590.0, 1589.0, 1585.0, 1583.0, 1582.0, 1583.0, 1583.0, 1581.0, 1578.0, 1578.0, 1576.0, 1577.0, 1577.0, 1580.0, 1582.0, 1581.0, 1581.0, 1580.0, 1579.0, 1577.0, 1581.0, 1582.0, 1585.0, 1589.0, 1587.0, 1581.0, 1583.0, 1579.0, 1581.0, 1582.0, 1586.0, 1581.0, 1583.0, 1585.0, 1583.0, 1583.0, 1583.0, 1583.0, 1582.0, 1578.0, 1578.0, 1578.0, 1582.0, 1575.0, 1578.0, 1581.0, 1582.0, 1578.0, 1580.0, 1578.0, 1580.0, 1579.0, 1578.0, 1575.0, 1574.0, 1574.0, 1574.0, 1570.0, 1573.0, 1576.0, 1578.0, 1578.0, 1580.0, 1579.0, 1582.0, 1584.0, 1587.0, 1580.0, 1578.0, 1579.0, 1571.0, 1574.0, 1567.0, 1575.0, 1578.0, 1578.0, 1582.0, 1583.0, 1582.0, 1580.0, 1582.0, 1582.0, 1581.0, 1585.0, 1585.0, 1579.0, 1579.0, 1574.0, 1575.0, 1560.0, 1576.0, 1574.0, 1568.0, 1573.0, 1570.0, 1573.0, 1574.0, 1577.0, 1579.0, 1575.0, 1574.0, 1571.0, 1573.0, 1569.0, 1572.0, 1561.0, 1568.0, 1577.0, 1580.0, 1580.0, 1573.0, 1573.0, 1567.0, 1570.0, 1569.0, 1568.0, 1564.0, 1571.0, 1569.0, 1572.0, 1571.0, 1569.0, 1567.0, 1563.0, 1562.0, 1565.0, 1568.0, 1567.0, 1571.0, 1573.0, 1575.0, 1570.0, 1568.0, 1563.0, 1568.0, 1567.0, 1571.0, 1572.0, 1568.0, 1570.0, 1569.0, 1569.0, 1572.0, 1573.0, 1576.0, 1574.0, 1573.0, 1571.0, 1568.0, 1571.0, 1570.0, 1570.0, 1569.0, 1575.0, 1579.0, 1576.0, 1570.0, 1570.0, 1561.0, 1570.0, 1569.0, 1575.0, 1579.0, 1577.0, 1574.0, 1572.0, 1568.0, 1567.0, 1568.0, 1569.0, 1573.0, 1574.0, 1588.0, 1580.0, 1578.0, 1578.0, 1575.0, 1573.0, 1577.0, 1577.0, 1581.0, 1581.0, 1581.0, 1581.0, 1580.0, 1579.0, 1580.0, 1575.0, 1569.0, 1575.0, 1572.0, 1575.0, 1580.0, 1583.0, 1581.0, 1582.0, 1581.0, 1579.0, 1581.0, 1575.0]
    },
    "slices": {}
  }
}