{
  "AcquisitionMatrixPE": 72,
  "AcquisitionNumber": 1,
  "AcquisitionTime": "15:23:0.577500",
  "BandwidthPerPixelPhaseEncode": 17.943,
  "BaseResolution": 96,
  "BodyPartExamined": "BRAIN",
  "CoilCombinationMethod": "Sum of Squares",
  "ConsistencyInfo": "N4_VE11C_LATEST_20160120",
  "ConversionSoftware": "dcm2niix",
  "ConversionSoftwareVersion": "v1.0.20211006",
  "DerivedVendorReportedEchoSpacing": 0.000552897,
  "DeviceSerialNumber": "166011",
  "EchoTime": 0.03,
  "EchoTrainLength": 58,
  "EffectiveEchoSpacing": 0.000580542,
  "FlipAngle": 62,
  "ImageOrientationPatientDICOM": [0.999341, -0.0255233, 0.0257902, 0.0268668, 0.998224, -0.053162],
  "ImageType": [
    "ORIGINAL",
    "PRIMARY",
    "M",
    "ND",
    "MOSAIC"
],
  "ImagingFrequency": 123.259,
  "InPlanePhaseEncodingDirectionDICOM": "COL",
  "InstitutionAddress": "West 130th Street 610,NY,NYC,US,10025",
  "InstitutionName": "MBBI",
  "MRAcquisitionType": "2D",
  "MagneticFieldStrength": 3,
  "Manufacturer": "Siemens",
  "ManufacturersModelName": "Prisma",
  "Modality": "MR",
  "MultibandAccelerationFactor": 3,
  "PartialFourier": 0.75,
  "PatientPosition": "HFS",
  "PercentPhaseFOV": 100,
  "PercentSampling": 75,
  "PhaseEncodingDirection": "j-",
  "PhaseEncodingSteps": 58,
  "PhaseOversampling": 0.05,
  "PhaseResolution": 0.75,
  "PixelBandwidth": 2265,
  "ProcedureStepDescription": "White^Word_recognition",
  "ProtocolName": "func_vwfate_run1",
  "PulseSequenceDetails": "%SiemensSeq%\\ep2d_bold",
  "ReceiveCoilActiveElements": "HC1-6",
  "ReceiveCoilName": "HeadNeck_64",
  "ReconMatrixPE": 96,
  "RefLinesPE": 40,
  "RepetitionTime": 1.5,
  "SAR": 0.0438037,
  "ScanOptions": "PFP\\FS",
  "ScanningSequence": "EP",
  "SequenceName": "*epfid2d1_72",
  "SequenceVariant": "SK\\OSP",
  "SeriesDescription": "func_vwfate_run1",
  "SeriesNumber": 8,
  "ShimSetting": [-1142, -1370, 674, 508, -82, -63, 112, 9],
  "SliceThickness": 2,
  "SliceTiming": [1.0775, 0, 0.74, 0.0675, 0.8075, 0.135, 0.875, 0.2025, 0.9425, 0.27, 1.01, 0.405, 1.145, 0.4725, 1.2125, 0.54, 1.28, 0.6075, 1.3475, 0.675, 1.415, 0.3375, 1.0775, 0, 0.74, 0.0675, 0.8075, 0.135, 0.875, 0.2025, 0.9425, 0.27, 1.01, 0.405, 1.145, 0.4725, 1.2125, 0.54, 1.28, 0.6075, 1.3475, 0.675, 1.415, 0.3375, 1.0775, 0, 0.74, 0.0675, 0.8075, 0.135, 0.875, 0.2025, 0.9425, 0.27, 1.01, 0.405, 1.145, 0.4725, 1.2125, 0.54, 1.28, 0.6075, 1.3475, 0.675, 1.415, 0.3375],
  "SoftwareVersions": "syngo MR E11",
  "SpacingBetweenSlices": 2,
  "StationName": "AWP166011",
  "TaskName": "vwfate",
  "TotalReadoutTime": 0.0551515,
  "TxRefAmp": 228.68,
  "dcmmeta_affine": [
    [-1.998682975769043, 0.05373355746269226, 0.048775024712085724, 96.5903091430664],
    [0.051046695560216904, 1.9964488744735718, -0.10763974487781525, -65.59278869628906],
    [0.05158035457134247, 0.1063239648938179, 1.996505618095398, -66.28260803222656],
    [0.0, 0.0, 0.0, 1.0]
],
  "dcmmeta_reorient_transform": [
    [0.0, -1.0, 0.0, 95.0],
    [1.0, 0.0, 0.0, 0.0],
    [0.0, 0.0, 1.0, 0.0],
    [0.0, 0.0, 0.0, 1.0]
],
  "dcmmeta_shape": [96, 96, 66, 164],
  "dcmmeta_slice_dim": 2,
  "dcmmeta_version": 0.6,
  "global": {
    "const": {
      "AcquisitionMatrix": [96, 0, 0, 72],
      "AngioFlag": "N",
      "BitsAllocated": 16,
      "BitsStored": 12,
      "BodyPartExamined": "BRAIN",
      "Columns": 864,
      "EchoNumbers": 1,
      "EchoTime": 30.0,
      "EchoTrainLength": 58,
      "FlipAngle": 62.0,
      "HighBit": 11,
      "ImageOrientationPatient": [0.99934149592179, -0.0255233483292, 0.02579017679017, 0.02686677819489, 0.9982244136426, -0.0531619811268],
      "ImagePositionPatient": [-889.82295136024, -871.10426646655, -35.160289404001],
      "ImageType": [
        "ORIGINAL",
        "PRIMARY",
        "M",
        "ND",
        "MOSAIC"
],
      "ImagedNucleus": "1H",
      "ImagingFrequency": 123.259475,
      "InPlanePhaseEncodingDirection": "COL",
      "MRAcquisitionType": "2D",
      "MagneticFieldStrength": 3.0,
      "Manufacturer": "SIEMENS",
      "ManufacturerModelName": "Prisma",
      "Modality": "MR",
      "NumberOfAverages": 1.0,
      "NumberOfPhaseEncodingSteps": 58,
      "PercentPhaseFieldOfView": 100.0,
      "PercentSampling": 75.0,
      "PerformedProcedureStepStartTime": "150624.384000",
      "PhotometricInterpretation": "MONOCHROME2",
      "PixelBandwidth": 2265.0,
      "PixelRepresentation": 0,
      "PixelSpacing": [2.0, 2.0],
      "ProtocolName": "func_vwfate_run1",
      "RepetitionTime": 1500.0,
      "Rows": 864,
      "SAR": 0.04380369379235,
      "SamplesPerPixel": 1,
      "ScanOptions": [
        "PFP",
        "FS"
],
      "ScanningSequence": "EP",
      "SequenceName": "*epfid2d1_72",
      "SequenceVariant": [
        "SK",
        "OSP"
],
      "SeriesDescription": "func_vwfate_run1",
      "SeriesNumber": 8,
      "SeriesTime": "152349.283000",
      "SliceLocation": -60.281010185887,
      "SliceThickness": 2.0,
      "SmallestImagePixelValue": 0,
      "SoftwareVersions": "syngo MR E11",
      "SpacingBetweenSlices": 1.999999942094,
      "SpecificCharacterSet": "ISO_IR 100",
      "StudyID": "1",
      "StudyTime": "150624.300000",
      "TransmitCoilName": "Body",
      "VariableFlipAngleFlag": "N",
      "WindowCenterWidthExplanation": "Algo1",
      "dBdt": 0.0},
    "slices": {}
  },
  "time": {
    "samples": {
      "AcquisitionNumber": [1, 2, 3, 4, 5, 6, 7, 8, 9, 10, 11, 12, 13, 14, 15, 16, 17, 18, 19, 20, 21, 22, 23, 24, 25, 26, 27, 28, 29, 30, 31, 32, 33, 34, 35, 36, 37, 38, 39, 40, 41, 42, 43, 44, 45, 46, 47, 48, 49, 50, 51, 52, 53, 54, 55, 56, 57, 58, 59, 60, 61, 62, 63, 64, 65, 66, 67, 68, 69, 70, 71, 72, 73, 74, 75, 76, 77, 78, 79, 80, 81, 82, 83, 84, 85, 86, 87, 88, 89, 90, 91, 92, 93, 94, 95, 96, 97, 98, 99, 100, 101, 102, 103, 104, 105, 106, 107, 108, 109, 110, 111, 112, 113, 114, 115, 116, 117, 118, 119, 120, 121, 122, 123, 124, 125, 126, 127, 128, 129, 130, 131, 132, 133, 134, 135, 136, 137, 138, 139, 140, 141, 142, 143, 144, 145, 146, 147, 148, 149, 150, 151, 152, 153, 154, 155, 156, 157, 158, 159, 160, 161, 162, 163, 164],
      "AcquisitionTime": ["152300.577500", "152302.077500", "152303.577500", "152305.077500", "152306.577500", "152308.077500", "152309.577500", "152311.077500", "152312.577500", "152314.077500", "152315.577500", "152317.077500", "152318.577500", "152320.077500", "152321.577500", "152323.077500", "152324.577500", "152326.077500", "152327.577500", "152329.077500", "152330.577500", "152332.077500", "152333.577500", "152335.077500", "152336.577500", "152338.077500", "152339.577500", "152341.077500", "152342.577500", "152344.077500", "152345.577500", "152347.077500", "152348.577500", "152350.077500", "152351.577500", "152353.077500", "152354.577500", "152356.077500", "152357.577500", "152359.077500", "152400.577500", "152402.077500", "152403.577500", "152405.077500", "152406.577500", "152408.077500", "152409.577500", "152411.077500", "152412.577500", "152414.077500", "152415.577500", "152417.077500", "152418.577500", "152420.077500", "152421.577500", "152423.077500", "152424.577500", "152426.077500", "152427.577500", "152429.077500", "152430.577500", "152432.077500", "152433.577500", "152435.077500", "152436.577500", "152438.077500", "152439.577500", "152441.077500", "152442.577500", "152444.077500", "152445.577500", "152447.077500", "152448.577500", "152450.077500", "152451.577500", "152453.077500", "152454.577500", "152456.077500", "152457.577500", "152459.077500", "152500.577500", "152502.077500", "152503.577500", "152505.077500", "152506.577500", "152508.077500", "152509.577500", "152511.077500", "152512.577500", "152514.077500", "152515.577500", "152517.077500", "152518.577500", "152520.077500", "152521.577500", "152523.077500", "152524.577500", "152526.077500", "152527.577500", "152529.077500", "152530.577500", "152532.077500", "152533.577500", "152535.077500", "152536.577500", "152538.077500", "152539.577500", "152541.077500", "152542.577500", "152544.077500", "152545.577500", "152547.077500", "152548.577500", "152550.077500", "152551.577500", "152553.077500", "152554.577500", "152556.077500", "152557.577500", "152559.077500", "152600.577500", "152602.077500", "152603.577500", "152605.077500", "152606.577500", "152608.077500", "152609.577500", "152611.077500", "152612.577500", "152614.077500", "152615.577500", "152617.077500", "152618.577500", "152620.077500", "152621.577500", "152623.077500", "152624.577500", "152626.077500", "152627.577500", "152629.077500", "152630.577500", "152632.077500", "152633.577500", "152635.077500", "152636.577500", "152638.077500", "152639.577500", "152641.077500", "152642.577500", "152644.077500", "152645.577500", "152647.077500", "152648.577500", "152650.077500", "152651.577500", "152653.077500", "152654.577500", "152656.077500", "152657.577500", "152659.077500", "152700.577500", "152702.077500", "152703.577500", "152705.077500"],
      "ContentTime": ["152349.287000", "152349.291000", "152349.294000", "152349.297000", "152349.300000", "152349.303000", "152349.306000", "152349.309000", "152349.312000", "152349.315000", "152349.325000", "152349.328000", "152349.331000", "152349.335000", "152349.338000", "152349.341000", "152349.344000", "152349.347000", "152349.350000", "152349.353000", "152349.356000", "152349.365000", "152349.368000", "152349.371000", "152349.374000", "152349.381000", "152349.384000", "152349.387000", "152349.390000", "152349.394000", "152349.397000", "152349.400000", "152429.283000", "152429.286000", "152429.289000", "152429.297000", "152429.300000", "152429.303000", "152429.306000", "152429.309000", "152429.312000", "152429.315000", "152429.318000", "152429.321000", "152429.324000", "152429.327000", "152429.330000", "152429.333000", "152429.337000", "152429.340000", "152429.343000", "152429.346000", "152429.349000", "152429.352000", "152429.355000", "152429.358000", "152429.361000", "152429.364000", "152429.367000", "152509.283000", "152509.294000", "152509.297000", "152509.300000", "152509.303000", "152509.307000", "152509.310000", "152509.313000", "152509.316000", "152509.319000", "152509.322000", "152509.325000", "152509.328000", "152509.331000", "152509.334000", "152509.337000", "152509.340000", "152509.344000", "152509.347000", "152509.350000", "152509.353000", "152509.356000", "152509.359000", "152509.362000", "152509.365000", "152509.368000", "152509.371000", "152549.282000", "152549.285000", "152549.289000", "152549.292000", "152549.295000", "152549.298000", "152549.301000", "152549.304000", "152549.307000", "152549.310000", "152549.313000", "152549.316000", "152549.319000", "152549.322000", "152549.325000", "152549.328000", "152549.331000", "152549.334000", "152549.338000", "152549.341000", "152549.344000", "152549.347000", "152549.350000", "152549.353000", "152549.356000", "152549.359000", "152629.283000", "152629.286000", "152629.289000", "152629.293000", "152629.296000", "152629.299000", "152629.302000", "152629.305000", "152629.308000", "152629.311000", "152629.314000", "152629.317000", "152629.320000", "152629.323000", "152629.326000", "152629.329000", "152629.332000", "152629.335000", "152629.339000", "152629.342000", "152629.345000", "152629.348000", "152629.351000", "152629.354000", "152629.357000", "152629.360000", "152629.363000", "152705.968000", "152705.971000", "152705.974000", "152705.978000", "152705.981000", "152705.985000", "152705.988000", "152705.991000", "152705.994000", "152705.998000", "152706.002000", "152706.006000", "152706.009000", "152706.012000", "152706.015000", "152706.018000", "152706.021000", "152706.024000", "152706.027000", "152706.031000", "152706.034000", "152706.037000", "152706.040000", "152706.044000", "152706.047000"],
      "InstanceCreationTime": ["152349.287000", "152349.291000", "152349.294000", "152349.297000", "152349.300000", "152349.303000", "152349.306000", "152349.309000", "152349.312000", "152349.315000", "152349.325000", "152349.328000", "152349.331000", "152349.335000", "152349.338000", "152349.341000", "152349.344000", "152349.347000", "152349.350000", "152349.353000", "152349.356000", "152349.365000", "152349.368000", "152349.371000", "152349.374000", "152349.381000", "152349.384000", "152349.387000", "152349.390000", "152349.394000", "152349.397000", "152349.400000", "152429.283000", "152429.286000", "152429.289000", "152429.297000", "152429.300000", "152429.303000", "152429.306000", "152429.309000", "152429.312000", "152429.315000", "152429.318000", "152429.321000", "152429.324000", "152429.327000", "152429.330000", "152429.333000", "152429.337000", "152429.340000", "152429.343000", "152429.346000", "152429.349000", "152429.352000", "152429.355000", "152429.358000", "152429.361000", "152429.364000", "152429.367000", "152509.283000", "152509.294000", "152509.297000", "152509.300000", "152509.303000", "152509.307000", "152509.310000", "152509.313000", "152509.316000", "152509.319000", "152509.322000", "152509.325000", "152509.328000", "152509.331000", "152509.334000", "152509.337000", "152509.340000", "152509.344000", "152509.347000", "152509.350000", "152509.353000", "152509.356000", "152509.359000", "152509.362000", "152509.365000", "152509.368000", "152509.371000", "152549.282000", "152549.285000", "152549.289000", "152549.292000", "152549.295000", "152549.298000", "152549.301000", "152549.304000", "152549.307000", "152549.310000", "152549.313000", "152549.316000", "152549.319000", "152549.322000", "152549.325000", "152549.328000", "152549.331000", "152549.334000", "152549.338000", "152549.341000", "152549.344000", "152549.347000", "152549.350000", "152549.353000", "152549.356000", "152549.359000", "152629.283000", "152629.286000", "152629.289000", "152629.293000", "152629.296000", "152629.299000", "152629.302000", "152629.305000", "152629.308000", "152629.311000", "152629.314000", "152629.317000", "152629.320000", "152629.323000", "152629.326000", "152629.329000", "152629.332000", "152629.335000", "152629.339000", "152629.342000", "152629.345000", "152629.348000", "152629.351000", "152629.354000", "152629.357000", "152629.360000", "152629.363000", "152705.968000", "152705.971000", "152705.974000", "152705.978000", "152705.981000", "152705.985000", "152705.988000", "152705.991000", "152705.994000", "152705.998000", "152706.002000", "152706.006000", "152706.009000", "152706.012000", "152706.015000", "152706.018000", "152706.021000", "152706.024000", "152706.027000", "152706.031000", "152706.034000", "152706.037000", "152706.040000", "152706.044000", "152706.047000"],
      "InstanceNumber": [1, 2, 3, 4, 5, 6, 7, 8, 9, 10, 11, 12, 13, 14, 15, 16, 17, 18, 19, 20, 21, 22, 23, 24, 25, 26, 27, 28, 29, 30, 31, 32, 33, 34, 35, 36, 37, 38, 39, 40, 41, 42, 43, 44, 45, 46, 47, 48, 49, 50, 51, 52, 53, 54, 55, 56, 57, 58, 59, 60, 61, 62, 63, 64, 65, 66, 67, 68, 69, 70, 71, 72, 73, 74, 75, 76, 77, 78, 79, 80, 81, 82, 83, 84, 85, 86, 87, 88, 89, 90, 91, 92, 93, 94, 95, 96, 97, 98, 99, 100, 101, 102, 103, 104, 105, 106, 107, 108, 109, 110, 111, 112, 113, 114, 115, 116, 117, 118, 119, 120, 121, 122, 123, 124, 125, 126, 127, 128, 129, 130, 131, 132, 133, 134, 135, 136, 137, 138, 139, 140, 141, 142, 143, 144, 145, 146, 147, 148, 149, 150, 151, 152, 153, 154, 155, 156, 157, 158, 159, 160, 161, 162, 163, 164],
      "LargestImagePixelValue": [3260, 3161, 3172, 3099, 3077, 3131, 3103, 3138, 3085, 3093, 3063, 3121, 3095, 3079, 3047, 3070, 3083, 3097, 3070, 3089, 3095, 3044, 3094, 3068, 3078, 3034, 3103, 3042, 3099, 3049, 3088, 3060, 3047, 3064, 3074, 3062, 3073, 3078, 3072, 3097, 3037, 3089, 3050, 3067, 3049, 3054, 3052, 3046, 3047, 3061, 3052, 3056, 2972, 2985, 2956, 2978, 2954, 2968, 2961, 2963, 2986, 2949, 2965, 2967, 2979, 2970, 2943, 2949, 2953, 2973, 2938, 2971, 2935, 3031, 2983, 3026, 2975, 2999, 3040, 2954, 2955, 2990, 2947, 3016, 2957, 2939, 2961, 2971, 2972, 2971, 2974, 2979, 2955, 2969, 2997, 2988, 3040, 3019, 3018, 3024, 3036, 3033, 3046, 3015, 2987, 3020, 3048, 3008, 3020, 2982, 3031, 3013, 3056, 3051, 3036, 3011, 3020, 3041, 3078, 2948, 2991, 3013, 3015, 3014, 3022, 3028, 3012, 3046, 2990, 3023, 2980, 3033, 2997, 3029, 2975, 3036, 2974, 3007, 3002, 3000, 3005, 2988, 3011, 3040, 3002, 3029, 3035, 2979, 3017, 2976, 3035, 3019, 3029, 3008, 3017, 3046, 2974, 3070, 2972, 3038, 3008, 2992, 3003, 2966],
      "WindowCenter": [742.0, 739.0, 738.0, 737.0, 739.0, 740.0, 740.0, 740.0, 739.0, 739.0, 739.0, 739.0, 739.0, 740.0, 739.0, 740.0, 740.0, 740.0, 739.0, 738.0, 737.0, 736.0, 736.0, 736.0, 737.0, 738.0, 739.0, 738.0, 738.0, 737.0, 737.0, 737.0, 737.0, 738.0, 740.0, 740.0, 741.0, 740.0, 740.0, 739.0, 738.0, 739.0, 740.0, 740.0, 740.0, 740.0, 740.0, 740.0, 740.0, 740.0, 741.0, 742.0, 741.0, 739.0, 738.0, 738.0, 738.0, 738.0, 738.0, 738.0, 738.0, 738.0, 738.0, 738.0, 738.0, 738.0, 737.0, 737.0, 736.0, 736.0, 735.0, 736.0, 736.0, 736.0, 736.0, 737.0, 737.0, 737.0, 738.0, 737.0, 737.0, 737.0, 737.0, 737.0, 737.0, 736.0, 737.0, 737.0, 737.0, 736.0, 736.0, 736.0, 736.0, 736.0, 737.0, 737.0, 738.0, 737.0, 737.0, 737.0, 738.0, 737.0, 736.0, 737.0, 736.0, 737.0, 737.0, 737.0, 737.0, 737.0, 738.0, 737.0, 736.0, 735.0, 735.0, 735.0, 734.0, 734.0, 735.0, 734.0, 736.0, 736.0, 736.0, 736.0, 736.0, 735.0, 736.0, 737.0, 738.0, 739.0, 738.0, 738.0, 738.0, 737.0, 737.0, 737.0, 737.0, 736.0, 736.0, 736.0, 735.0, 734.0, 734.0, 734.0, 735.0, 736.0, 737.0, 737.0, 737.0, 737.0, 737.0, 737.0, 737.0, 737.0, 737.0, 737.0, 737.0, 738.0, 737.0, 737.0, 737.0, 735.0, 735.0, 735.0],
      "WindowWidth": [1625.0, 1618.0, 1613.0, 1611.0, 1617.0, 1620.0, 1620.0, 1620.0, 1617.0, 1616.0, 1615.0, 1616.0, 1616.0, 1618.0, 1616.0, 1618.0, 1618.0, 1618.0, 1615.0, 1612.0, 1610.0, 1606.0, 1607.0, 1607.0, 1611.0, 1613.0, 1615.0, 1614.0, 1612.0, 1611.0, 1610.0, 1610.0, 1611.0, 1614.0, 1619.0, 1620.0, 1622.0, 1619.0, 1618.0, 1616.0, 1614.0, 1615.0, 1618.0, 1619.0, 1618.0, 1620.0, 1618.0, 1618.0, 1620.0, 1619.0, 1621.0, 1624.0, 1621.0, 1615.0, 1612.0, 1612.0, 1611.0, 1612.0, 1612.0, 1612.0, 1612.0, 1613.0, 1613.0, 1612.0, 1613.0, 1611.0, 1608.0, 1608.0, 1608.0, 1606.0, 1605.0, 1607.0, 1606.0, 1608.0, 1607.0, 1609.0, 1610.0, 1611.0, 1613.0, 1610.0, 1609.0, 1609.0, 1609.0, 1610.0, 1609.0, 1608.0, 1609.0, 1610.0, 1609.0, 1608.0, 1607.0, 1607.0, 1608.0, 1607.0, 1610.0, 1610.0, 1612.0, 1611.0, 1610.0, 1610.0, 1612.0, 1611.0, 1608.0, 1609.0, 1608.0, 1609.0, 1610.0, 1610.0, 1611.0, 1610.0, 1611.0, 1609.0, 1607.0, 1604.0, 1603.0, 1603.0, 1603.0, 1602.0, 1603.0, 1602.0, 1606.0, 1608.0, 1608.0, 1608.0, 1607.0, 1605.0, 1607.0, 1611.0, 1612.0, 1614.0, 1613.0, 1614.0, 1612.0, 1610.0, 1609.0, 1611.0, 1609.0, 1608.0, 1607.0, 1607.0, 1604.0, 1602.0, 1601.0, 1603.0, 1603.0, 1607.0, 1610.0, 1610.0, 1610.0, 1610.0, 1611.0, 1611.0, 1611.0, 1610.0, 1611.0, 1611.0, 1610.0, 1612.0, 1610.0, 1609.0, 1608.0, 1605.0, 1603.0, 1604.0]
    },
    "slices": {}
  }
}