{
  "AcquisitionMatrixPE": 72,
  "AcquisitionNumber": 1,
  "AcquisitionTime": "18:16:18.235000",
  "BandwidthPerPixelPhaseEncode": 17.943,
  "BaseResolution": 96,
  "BodyPartExamined": "BRAIN",
  "CoilCombinationMethod": "Sum of Squares",
  "ConsistencyInfo": "N4_VE11C_LATEST_20160120",
  "ConversionSoftware": "dcm2niix",
  "ConversionSoftwareVersion": "v1.0.20211006",
  "DerivedVendorReportedEchoSpacing": 0.000552897,
  "DeviceSerialNumber": "166011",
  "EchoTime": 0.03,
  "EchoTrainLength": 58,
  "EffectiveEchoSpacing": 0.000580542,
  "FlipAngle": 62,
  "ImageOrientationPatientDICOM": [0.999216, 0.00455664, 0.0393366, 0.00122078, 0.989341, -0.145612],
  "ImageType": [
    "ORIGINAL",
    "PRIMARY",
    "M",
    "ND",
    "MOSAIC"
],
  "ImagingFrequency": 123.259,
  "InPlanePhaseEncodingDirectionDICOM": "COL",
  "InstitutionAddress": "West 130th Street 610,NY,NYC,US,10025",
  "InstitutionName": "MBBI",
  "MRAcquisitionType": "2D",
  "MagneticFieldStrength": 3,
  "Manufacturer": "Siemens",
  "ManufacturersModelName": "Prisma",
  "Modality": "MR",
  "MultibandAccelerationFactor": 3,
  "PartialFourier": 0.75,
  "PatientPosition": "HFS",
  "PercentPhaseFOV": 100,
  "PercentSampling": 75,
  "PhaseEncodingDirection": "j-",
  "PhaseEncodingSteps": 58,
  "PhaseOversampling": 0.05,
  "PhaseResolution": 0.75,
  "PixelBandwidth": 2265,
  "ProcedureStepDescription": "White^Word_recognition",
  "ProtocolName": "func_catLoc_run1",
  "PulseSequenceDetails": "%SiemensSeq%\\ep2d_bold",
  "ReceiveCoilActiveElements": "HC1-7",
  "ReceiveCoilName": "HeadNeck_64",
  "ReconMatrixPE": 96,
  "RefLinesPE": 40,
  "RepetitionTime": 1.5,
  "SAR": 0.0573923,
  "ScanOptions": "PFP\\FS",
  "ScanningSequence": "EP",
  "SequenceName": "*epfid2d1_72",
  "SequenceVariant": "SK\\OSP",
  "SeriesDescription": "func_catLoc_run1",
  "SeriesNumber": 10,
  "ShimSetting": [-1127, -1349, 699, 524, -140, 46, 6, 28],
  "SliceThickness": 2,
  "SliceTiming": [1.075, 0, 0.74, 0.0675, 0.8075, 0.1325, 0.8725, 0.2, 0.94, 0.2675, 1.0075, 0.4025, 1.1425, 0.47, 1.21, 0.5375, 1.2775, 0.605, 1.345, 0.6725, 1.4125, 0.335, 1.075, 0, 0.74, 0.0675, 0.8075, 0.1325, 0.8725, 0.2, 0.94, 0.2675, 1.0075, 0.4025, 1.1425, 0.47, 1.21, 0.5375, 1.2775, 0.605, 1.345, 0.6725, 1.4125, 0.335, 1.075, 0, 0.74, 0.0675, 0.8075, 0.1325, 0.8725, 0.2, 0.94, 0.2675, 1.0075, 0.4025, 1.1425, 0.47, 1.21, 0.5375, 1.2775, 0.605, 1.345, 0.6725, 1.4125, 0.335],
  "SoftwareVersions": "syngo MR E11",
  "SpacingBetweenSlices": 2,
  "StationName": "AWP166011",
  "TaskName": "catLoc",
  "TotalReadoutTime": 0.0551515,
  "TxRefAmp": 245.155,
  "dcmmeta_affine": [
    [-1.9984312057495117, 0.002441560151055455, 0.07916167378425598, 92.8245620727539],
    [-0.009113289415836334, 1.9786819219589233, -0.29109227657318115, -66.77652740478516],
    [0.07867325097322464, 0.2912246584892273, 1.977118730545044, -77.42840576171875],
    [0.0, 0.0, 0.0, 1.0]
],
  "dcmmeta_reorient_transform": [
    [0.0, -1.0, 0.0, 95.0],
    [1.0, 0.0, 0.0, 0.0],
    [0.0, 0.0, 1.0, 0.0],
    [0.0, 0.0, 0.0, 1.0]
],
  "dcmmeta_shape": [96, 96, 66, 214],
  "dcmmeta_slice_dim": 2,
  "dcmmeta_version": 0.6,
  "global": {
    "const": {
      "AcquisitionMatrix": [96, 0, 0, 72],
      "AngioFlag": "N",
      "BitsAllocated": 16,
      "BitsStored": 12,
      "BodyPartExamined": "BRAIN",
      "Columns": 864,
      "EchoNumbers": 1,
      "EchoTime": 30.0,
      "EchoTrainLength": 58,
      "FlipAngle": 62.0,
      "HighBit": 11,
      "ImageOrientationPatient": [0.99921562580748, 0.00455664481858, 0.03933662581061, 0.00122078006952, 0.98934097136203, -0.1456123349186],
      "ImagePositionPatient": [-861.39166854453, -884.51162470011, 31.857681724495],
      "ImageType": [
        "ORIGINAL",
        "PRIMARY",
        "M",
        "ND",
        "MOSAIC"
],
      "ImagedNucleus": "1H",
      "ImagingFrequency": 123.259499,
      "InPlanePhaseEncodingDirection": "COL",
      "MRAcquisitionType": "2D",
      "MagneticFieldStrength": 3.0,
      "Manufacturer": "SIEMENS",
      "ManufacturerModelName": "Prisma",
      "Modality": "MR",
      "NumberOfAverages": 1.0,
      "NumberOfPhaseEncodingSteps": 58,
      "PercentPhaseFieldOfView": 100.0,
      "PercentSampling": 75.0,
      "PerformedProcedureStepStartTime": "174147.275000",
      "PhotometricInterpretation": "MONOCHROME2",
      "PixelBandwidth": 2265.0,
      "PixelRepresentation": 0,
      "PixelSpacing": [2.0, 2.0],
      "ProtocolName": "func_catLoc_run1",
      "RepetitionTime": 1500.0,
      "Rows": 864,
      "SAR": 0.05739229147285,
      "SamplesPerPixel": 1,
      "ScanOptions": [
        "PFP",
        "FS"
],
      "ScanningSequence": "EP",
      "SequenceName": "*epfid2d1_72",
      "SequenceVariant": [
        "SK",
        "OSP"
],
      "SeriesDescription": "func_catLoc_run1",
      "SeriesNumber": 10,
      "SeriesTime": "181653.157000",
      "SliceLocation": -63.149438522338,
      "SliceThickness": 2.0,
      "SmallestImagePixelValue": 0,
      "SoftwareVersions": "syngo MR E11",
      "SpacingBetweenSlices": 1.9999999523173,
      "SpecificCharacterSet": "ISO_IR 100",
      "StudyID": "1",
      "StudyTime": "174147.206000",
      "TransmitCoilName": "Body",
      "VariableFlipAngleFlag": "N",
      "WindowCenterWidthExplanation": "Algo1",
      "dBdt": 0.0},
    "slices": {}
  },
  "time": {
    "samples": {
      "AcquisitionNumber": [1, 2, 3, 4, 5, 6, 7, 8, 9, 10, 11, 12, 13, 14, 15, 16, 17, 18, 19, 20, 21, 22, 23, 24, 25, 26, 27, 28, 29, 30, 31, 32, 33, 34, 35, 36, 37, 38, 39, 40, 41, 42, 43, 44, 45, 46, 47, 48, 49, 50, 51, 52, 53, 54, 55, 56, 57, 58, 59, 60, 61, 62, 63, 64, 65, 66, 67, 68, 69, 70, 71, 72, 73, 74, 75, 76, 77, 78, 79, 80, 81, 82, 83, 84, 85, 86, 87, 88, 89, 90, 91, 92, 93, 94, 95, 96, 97, 98, 99, 100, 101, 102, 103, 104, 105, 106, 107, 108, 109, 110, 111, 112, 113, 114, 115, 116, 117, 118, 119, 120, 121, 122, 123, 124, 125, 126, 127, 128, 129, 130, 131, 132, 133, 134, 135, 136, 137, 138, 139, 140, 141, 142, 143, 144, 145, 146, 147, 148, 149, 150, 151, 152, 153, 154, 155, 156, 157, 158, 159, 160, 161, 162, 163, 164, 165, 166, 167, 168, 169, 170, 171, 172, 173, 174, 175, 176, 177, 178, 179, 180, 181, 182, 183, 184, 185, 186, 187, 188, 189, 190, 191, 192, 193, 194, 195, 196, 197, 198, 199, 200, 201, 202, 203, 204, 205, 206, 207, 208, 209, 210, 211, 212, 213, 214],
      "AcquisitionTime": ["181618.235000", "181619.735000", "181621.235000", "181622.735000", "181624.235000", "181625.735000", "181627.235000", "181628.735000", "181630.235000", "181631.735000", "181633.235000", "181634.735000", "181636.235000", "181637.735000", "181639.235000", "181640.735000", "181642.235000", "181643.735000", "181645.235000", "181646.735000", "181648.235000", "181649.735000", "181651.235000", "181652.735000", "181654.235000", "181655.735000", "181657.235000", "181658.735000", "181700.235000", "181701.735000", "181703.235000", "181704.735000", "181706.235000", "181707.735000", "181709.235000", "181710.735000", "181712.235000", "181713.735000", "181715.235000", "181716.735000", "181718.235000", "181719.735000", "181721.235000", "181722.735000", "181724.235000", "181725.735000", "181727.235000", "181728.735000", "181730.235000", "181731.735000", "181733.235000", "181734.735000", "181736.235000", "181737.735000", "181739.235000", "181740.735000", "181742.235000", "181743.735000", "181745.235000", "181746.735000", "181748.235000", "181749.735000", "181751.235000", "181752.735000", "181754.235000", "181755.735000", "181757.235000", "181758.735000", "181800.235000", "181801.735000", "181803.235000", "181804.735000", "181806.235000", "181807.735000", "181809.235000", "181810.735000", "181812.235000", "181813.735000", "181815.235000", "181816.735000", "181818.235000", "181819.735000", "181821.235000", "181822.735000", "181824.235000", "181825.735000", "181827.235000", "181828.735000", "181830.235000", "181831.735000", "181833.235000", "181834.735000", "181836.235000", "181837.735000", "181839.235000", "181840.735000", "181842.235000", "181843.735000", "181845.235000", "181846.735000", "181848.235000", "181849.735000", "181851.235000", "181852.735000", "181854.235000", "181855.735000", "181857.235000", "181858.735000", "181900.235000", "181901.735000", "181903.235000", "181904.735000", "181906.235000", "181907.735000", "181909.235000", "181910.735000", "181912.235000", "181913.735000", "181915.235000", "181916.735000", "181918.235000", "181919.735000", "181921.235000", "181922.735000", "181924.235000", "181925.735000", "181927.235000", "181928.735000", "181930.235000", "181931.735000", "181933.235000", "181934.735000", "181936.235000", "181937.735000", "181939.235000", "181940.735000", "181942.235000", "181943.735000", "181945.235000", "181946.735000", "181948.235000", "181949.735000", "181951.235000", "181952.735000", "181954.235000", "181955.735000", "181957.235000", "181958.735000", "182000.235000", "182001.735000", "182003.235000", "182004.735000", "182006.235000", "182007.735000", "182009.235000", "182010.735000", "182012.235000", "182013.735000", "182015.235000", "182016.735000", "182018.235000", "182019.735000", "182021.235000", "182022.735000", "182024.235000", "182025.735000", "182027.235000", "182028.735000", "182030.235000", "182031.735000", "182033.235000", "182034.735000", "182036.235000", "182037.735000", "182039.235000", "182040.735000", "182042.235000", "182043.735000", "182045.235000", "182046.735000", "182048.235000", "182049.735000", "182051.235000", "182052.735000", "182054.235000", "182055.735000", "182057.235000", "182058.735000", "182100.235000", "182101.735000", "182103.235000", "182104.735000", "182106.235000", "182107.735000", "182109.235000", "182110.735000", "182112.235000", "182113.735000", "182115.235000", "182116.735000", "182118.235000", "182119.735000", "182121.235000", "182122.735000", "182124.235000", "182125.735000", "182127.235000", "182128.735000", "182130.235000", "182131.735000", "182133.235000", "182134.735000", "182136.235000", "182137.735000"],
      "ContentTime": ["181653.161000", "181653.165000", "181653.168000", "181653.172000", "181653.175000", "181653.178000", "181653.181000", "181653.184000", "181653.187000", "181653.190000", "181653.193000", "181653.204000", "181653.207000", "181653.210000", "181653.213000", "181653.223000", "181653.226000", "181653.229000", "181653.238000", "181653.241000", "181653.244000", "181653.247000", "181653.250000", "181733.142000", "181733.146000", "181733.149000", "181733.152000", "181733.155000", "181733.158000", "181733.161000", "181733.164000", "181733.167000", "181733.170000", "181733.173000", "181733.176000", "181733.179000", "181733.182000", "181733.185000", "181733.188000", "181733.191000", "181733.195000", "181733.198000", "181733.200000", "181733.204000", "181733.207000", "181733.210000", "181733.213000", "181733.220000", "181733.223000", "181733.226000", "181813.142000", "181813.145000", "181813.149000", "181813.152000", "181813.155000", "181813.158000", "181813.161000", "181813.164000", "181813.167000", "181813.170000", "181813.173000", "181813.177000", "181813.180000", "181813.183000", "181813.186000", "181813.189000", "181813.192000", "181813.195000", "181813.198000", "181813.209000", "181813.212000", "181813.215000", "181813.218000", "181813.221000", "181813.224000", "181813.227000", "181853.141000", "181853.144000", "181853.148000", "181853.151000", "181853.154000", "181853.157000", "181853.160000", "181853.163000", "181853.166000", "181853.169000", "181853.173000", "181853.176000", "181853.179000", "181853.182000", "181853.185000", "181853.188000", "181853.191000", "181853.194000", "181853.197000", "181853.200000", "181853.203000", "181853.206000", "181853.209000", "181853.213000", "181853.216000", "181853.219000", "181853.222000", "181933.142000", "181933.145000", "181933.149000", "181933.152000", "181933.155000", "181933.158000", "181933.161000", "181933.164000", "181933.167000", "181933.170000", "181933.173000", "181933.176000", "181933.179000", "181933.182000", "181933.185000", "181933.188000", "181933.191000", "181933.195000", "181933.198000", "181933.201000", "181933.204000", "181933.207000", "181933.210000", "181933.213000", "181933.216000", "181933.219000", "181933.222000", "182013.142000", "182013.145000", "182013.148000", "182013.152000", "182013.155000", "182013.158000", "182013.161000", "182013.164000", "182013.167000", "182013.170000", "182013.174000", "182013.177000", "182013.180000", "182013.183000", "182013.186000", "182013.189000", "182013.192000", "182013.195000", "182013.198000", "182013.201000", "182013.204000", "182013.207000", "182013.210000", "182013.213000", "182013.216000", "182013.220000", "182053.141000", "182053.144000", "182053.148000", "182053.151000", "182053.154000", "182053.157000", "182053.160000", "182053.163000", "182053.166000", "182053.169000", "182053.173000", "182053.176000", "182053.179000", "182053.182000", "182053.185000", "182053.188000", "182053.191000", "182053.194000", "182053.197000", "182053.200000", "182053.204000", "182053.207000", "182053.210000", "182053.213000", "182053.216000", "182053.219000", "182053.222000", "182133.141000", "182133.144000", "182133.147000", "182133.151000", "182133.157000", "182133.160000", "182133.163000", "182133.166000", "182133.169000", "182133.173000", "182133.176000", "182133.179000", "182133.182000", "182133.185000", "182133.188000", "182133.191000", "182133.194000", "182133.197000", "182133.200000", "182133.203000", "182133.206000", "182133.210000", "182133.213000", "182133.216000", "182133.219000", "182133.228000", "182133.231000", "182138.886000", "182138.889000", "182138.892000", "182138.895000"],
      "InstanceCreationTime": ["181653.161000", "181653.165000", "181653.168000", "181653.172000", "181653.175000", "181653.178000", "181653.181000", "181653.184000", "181653.187000", "181653.190000", "181653.193000", "181653.204000", "181653.207000", "181653.210000", "181653.213000", "181653.223000", "181653.226000", "181653.229000", "181653.238000", "181653.241000", "181653.244000", "181653.247000", "181653.250000", "181733.142000", "181733.146000", "181733.149000", "181733.152000", "181733.155000", "181733.158000", "181733.161000", "181733.164000", "181733.167000", "181733.170000", "181733.173000", "181733.176000", "181733.179000", "181733.182000", "181733.185000", "181733.188000", "181733.191000", "181733.195000", "181733.198000", "181733.200000", "181733.204000", "181733.207000", "181733.210000", "181733.213000", "181733.220000", "181733.223000", "181733.226000", "181813.142000", "181813.145000", "181813.149000", "181813.152000", "181813.155000", "181813.158000", "181813.161000", "181813.164000", "181813.167000", "181813.170000", "181813.173000", "181813.177000", "181813.180000", "181813.183000", "181813.186000", "181813.189000", "181813.192000", "181813.195000", "181813.198000", "181813.209000", "181813.212000", "181813.215000", "181813.218000", "181813.221000", "181813.224000", "181813.227000", "181853.141000", "181853.144000", "181853.148000", "181853.151000", "181853.154000", "181853.157000", "181853.160000", "181853.163000", "181853.166000", "181853.169000", "181853.173000", "181853.176000", "181853.179000", "181853.182000", "181853.185000", "181853.188000", "181853.191000", "181853.194000", "181853.197000", "181853.200000", "181853.203000", "181853.206000", "181853.209000", "181853.213000", "181853.216000", "181853.219000", "181853.222000", "181933.142000", "181933.145000", "181933.149000", "181933.152000", "181933.155000", "181933.158000", "181933.161000", "181933.164000", "181933.167000", "181933.170000", "181933.173000", "181933.176000", "181933.179000", "181933.182000", "181933.185000", "181933.188000", "181933.191000", "181933.195000", "181933.198000", "181933.201000", "181933.204000", "181933.207000", "181933.210000", "181933.213000", "181933.216000", "181933.219000", "181933.222000", "182013.142000", "182013.145000", "182013.148000", "182013.152000", "182013.155000", "182013.158000", "182013.161000", "182013.164000", "182013.167000", "182013.170000", "182013.174000", "182013.177000", "182013.180000", "182013.183000", "182013.186000", "182013.189000", "182013.192000", "182013.195000", "182013.198000", "182013.201000", "182013.204000", "182013.207000", "182013.210000", "182013.213000", "182013.216000", "182013.220000", "182053.141000", "182053.144000", "182053.148000", "182053.151000", "182053.154000", "182053.157000", "182053.160000", "182053.163000", "182053.166000", "182053.169000", "182053.173000", "182053.176000", "182053.179000", "182053.182000", "182053.185000", "182053.188000", "182053.191000", "182053.194000", "182053.197000", "182053.200000", "182053.204000", "182053.207000", "182053.210000", "182053.213000", "182053.216000", "182053.219000", "182053.222000", "182133.141000", "182133.144000", "182133.147000", "182133.151000", "182133.157000", "182133.160000", "182133.163000", "182133.166000", "182133.169000", "182133.173000", "182133.176000", "182133.179000", "182133.182000", "182133.185000", "182133.188000", "182133.191000", "182133.194000", "182133.197000", "182133.200000", "182133.203000", "182133.206000", "182133.210000", "182133.213000", "182133.216000", "182133.219000", "182133.228000", "182133.231000", "182138.886000", "182138.889000", "182138.892000", "182138.895000"],
      "InstanceNumber": [1, 2, 3, 4, 5, 6, 7, 8, 9, 10, 11, 12, 13, 14, 15, 16, 17, 18, 19, 20, 21, 22, 23, 24, 25, 26, 27, 28, 29, 30, 31, 32, 33, 34, 35, 36, 37, 38, 39, 40, 41, 42, 43, 44, 45, 46, 47, 48, 49, 50, 51, 52, 53, 54, 55, 56, 57, 58, 59, 60, 61, 62, 63, 64, 65, 66, 67, 68, 69, 70, 71, 72, 73, 74, 75, 76, 77, 78, 79, 80, 81, 82, 83, 84, 85, 86, 87, 88, 89, 90, 91, 92, 93, 94, 95, 96, 97, 98, 99, 100, 101, 102, 103, 104, 105, 106, 107, 108, 109, 110, 111, 112, 113, 114, 115, 116, 117, 118, 119, 120, 121, 122, 123, 124, 125, 126, 127, 128, 129, 130, 131, 132, 133, 134, 135, 136, 137, 138, 139, 140, 141, 142, 143, 144, 145, 146, 147, 148, 149, 150, 151, 152, 153, 154, 155, 156, 157, 158, 159, 160, 161, 162, 163, 164, 165, 166, 167, 168, 169, 170, 171, 172, 173, 174, 175, 176, 177, 178, 179, 180, 181, 182, 183, 184, 185, 186, 187, 188, 189, 190, 191, 192, 193, 194, 195, 196, 197, 198, 199, 200, 201, 202, 203, 204, 205, 206, 207, 208, 209, 210, 211, 212, 213, 214],
      "LargestImagePixelValue": [2745, 2777, 2645, 2735, 2629, 2689, 2679, 2684, 2680, 2692, 2668, 2666, 2643, 2640, 2607, 2629, 2628, 2579, 2597, 2619, 2530, 2571, 2591, 2619, 2611, 2557, 2587, 2550, 2573, 2563, 2491, 2497, 2458, 2527, 2474, 2510, 2522, 2453, 2500, 2504, 2486, 2542, 2469, 2488, 2441, 2432, 2406, 2446, 2428, 2433, 2476, 2494, 2462, 2448, 2481, 2448, 2448, 2457, 2425, 2430, 2418, 2432, 2436, 2455, 2440, 2453, 2444, 2512, 2470, 2478, 2437, 2400, 2449, 2421, 2443, 2447, 2404, 2455, 2467, 2439, 2456, 2445, 2437, 2438, 2422, 2433, 2466, 2448, 2463, 2439, 2432, 2435, 2407, 2424, 2460, 2389, 2429, 2420, 2435, 2434, 2424, 2447, 2419, 2416, 2498, 2401, 2422, 2467, 2452, 2429, 2470, 2427, 2412, 2420, 2444, 2431, 2434, 2445, 2416, 2491, 2444, 2448, 2436, 2476, 2454, 2466, 2433, 2391, 2488, 2411, 2480, 2514, 2482, 2497, 2456, 2489, 2479, 2514, 2472, 2490, 2441, 2446, 2506, 2468, 2497, 2552, 2503, 2519, 2545, 2527, 2482, 2522, 2504, 2462, 2524, 2457, 2461, 2478, 2452, 2480, 2493, 2455, 2514, 2468, 2502, 2529, 2505, 2483, 2446, 2591, 2555, 2576, 2560, 2536, 2572, 2550, 2524, 2567, 2544, 2556, 2547, 2548, 2534, 2600, 2601, 2608, 2619, 2609, 2600, 2627, 2594, 2574, 2605, 2586, 2603, 2615, 2615, 2613, 2620, 2611, 2631, 2621, 2589, 2620, 2615, 2595, 2618, 2572, 2600, 2573, 2586, 2565, 2569, 2567],
      "WindowCenter": [702.0, 700.0, 699.0, 701.0, 698.0, 698.0, 697.0, 697.0, 698.0, 699.0, 699.0, 699.0, 699.0, 698.0, 698.0, 698.0, 699.0, 698.0, 698.0, 697.0, 697.0, 698.0, 699.0, 699.0, 699.0, 698.0, 699.0, 699.0, 698.0, 698.0, 697.0, 698.0, 697.0, 698.0, 698.0, 699.0, 699.0, 698.0, 697.0, 697.0, 696.0, 698.0, 698.0, 699.0, 698.0, 697.0, 697.0, 697.0, 697.0, 698.0, 698.0, 697.0, 697.0, 697.0, 697.0, 698.0, 699.0, 699.0, 698.0, 698.0, 697.0, 697.0, 697.0, 697.0, 696.0, 696.0, 696.0, 697.0, 698.0, 697.0, 696.0, 695.0, 696.0, 696.0, 696.0, 695.0, 694.0, 694.0, 694.0, 695.0, 695.0, 695.0, 695.0, 695.0, 694.0, 694.0, 695.0, 696.0, 697.0, 697.0, 697.0, 697.0, 697.0, 697.0, 697.0, 697.0, 697.0, 696.0, 696.0, 695.0, 696.0, 696.0, 697.0, 697.0, 698.0, 697.0, 696.0, 696.0, 696.0, 696.0, 697.0, 696.0, 695.0, 695.0, 696.0, 696.0, 695.0, 695.0, 696.0, 696.0, 696.0, 695.0, 694.0, 694.0, 695.0, 695.0, 695.0, 695.0, 696.0, 695.0, 695.0, 695.0, 696.0, 697.0, 697.0, 697.0, 696.0, 696.0, 695.0, 695.0, 696.0, 696.0, 696.0, 696.0, 696.0, 697.0, 696.0, 697.0, 698.0, 698.0, 697.0, 697.0, 696.0, 695.0, 696.0, 696.0, 696.0, 697.0, 697.0, 697.0, 696.0, 696.0, 697.0, 697.0, 697.0, 697.0, 697.0, 697.0, 697.0, 699.0, 696.0, 696.0, 696.0, 697.0, 697.0, 696.0, 694.0, 693.0, 694.0, 694.0, 694.0, 693.0, 694.0, 695.0, 695.0, 695.0, 695.0, 696.0, 696.0, 696.0, 696.0, 696.0, 696.0, 696.0, 696.0, 696.0, 696.0, 697.0, 697.0, 697.0, 697.0, 697.0, 697.0, 697.0, 698.0, 698.0, 698.0, 698.0, 698.0, 698.0, 698.0, 699.0, 700.0, 699.0],
      "WindowWidth": [1501.0, 1495.0, 1494.0, 1497.0, 1491.0, 1489.0, 1488.0, 1489.0, 1491.0, 1493.0, 1492.0, 1492.0, 1492.0, 1491.0, 1490.0, 1490.0, 1492.0, 1492.0, 1490.0, 1488.0, 1488.0, 1490.0, 1494.0, 1493.0, 1492.0, 1491.0, 1494.0, 1492.0, 1492.0, 1491.0, 1489.0, 1490.0, 1489.0, 1491.0, 1491.0, 1494.0, 1493.0, 1492.0, 1489.0, 1488.0, 1487.0, 1490.0, 1491.0, 1493.0, 1490.0, 1489.0, 1487.0, 1488.0, 1489.0, 1490.0, 1490.0, 1489.0, 1489.0, 1489.0, 1489.0, 1491.0, 1493.0, 1494.0, 1492.0, 1492.0, 1490.0, 1489.0, 1488.0, 1487.0, 1485.0, 1486.0, 1485.0, 1487.0, 1490.0, 1489.0, 1485.0, 1483.0, 1485.0, 1485.0, 1486.0, 1484.0, 1480.0, 1480.0, 1482.0, 1483.0, 1484.0, 1484.0, 1484.0, 1484.0, 1482.0, 1482.0, 1484.0, 1486.0, 1488.0, 1488.0, 1487.0, 1487.0, 1487.0, 1487.0, 1488.0, 1487.0, 1488.0, 1487.0, 1486.0, 1484.0, 1485.0, 1487.0, 1487.0, 1488.0, 1489.0, 1487.0, 1486.0, 1485.0, 1486.0, 1486.0, 1488.0, 1485.0, 1483.0, 1483.0, 1485.0, 1485.0, 1484.0, 1484.0, 1485.0, 1486.0, 1485.0, 1484.0, 1482.0, 1482.0, 1483.0, 1483.0, 1484.0, 1484.0, 1485.0, 1483.0, 1482.0, 1484.0, 1486.0, 1487.0, 1487.0, 1487.0, 1485.0, 1485.0, 1483.0, 1484.0, 1484.0, 1485.0, 1486.0, 1485.0, 1486.0, 1487.0, 1486.0, 1488.0, 1490.0, 1490.0, 1487.0, 1486.0, 1484.0, 1483.0, 1485.0, 1484.0, 1486.0, 1487.0, 1487.0, 1487.0, 1485.0, 1486.0, 1488.0, 1488.0, 1488.0, 1488.0, 1487.0, 1487.0, 1488.0, 1492.0, 1485.0, 1485.0, 1486.0, 1488.0, 1488.0, 1486.0, 1481.0, 1479.0, 1480.0, 1481.0, 1480.0, 1479.0, 1479.0, 1482.0, 1483.0, 1484.0, 1483.0, 1484.0, 1485.0, 1486.0, 1485.0, 1486.0, 1486.0, 1485.0, 1485.0, 1484.0, 1486.0, 1488.0, 1488.0, 1488.0, 1488.0, 1487.0, 1488.0, 1489.0, 1491.0, 1490.0, 1490.0, 1490.0, 1489.0, 1489.0, 1490.0, 1491.0, 1495.0, 1493.0]
    },
    "slices": {}
  }
}