{
  "AcquisitionMatrixPE": 72,
  "AcquisitionNumber": 1,
  "AcquisitionTime": "18:46:54.477500",
  "BandwidthPerPixelPhaseEncode": 17.943,
  "BaseResolution": 96,
  "BodyPartExamined": "BRAIN",
  "CoilCombinationMethod": "Sum of Squares",
  "ConsistencyInfo": "N4_VE11C_LATEST_20160120",
  "ConversionSoftware": "dcm2niix",
  "ConversionSoftwareVersion": "v1.0.20211006",
  "DerivedVendorReportedEchoSpacing": 0.000552897,
  "DeviceSerialNumber": "166011",
  "EchoTime": 0.03,
  "EchoTrainLength": 58,
  "EffectiveEchoSpacing": 0.000580542,
  "FlipAngle": 62,
  "ImageOrientationPatientDICOM": [0.999216, 0.00455664, 0.0393366, 0.00122078, 0.989341, -0.145612],
  "ImageType": [
    "ORIGINAL",
    "PRIMARY",
    "M",
    "ND",
    "MOSAIC"
],
  "ImagingFrequency": 123.26,
  "InPlanePhaseEncodingDirectionDICOM": "COL",
  "InstitutionAddress": "West 130th Street 610,NY,NYC,US,10025",
  "InstitutionName": "MBBI",
  "MRAcquisitionType": "2D",
  "MagneticFieldStrength": 3,
  "Manufacturer": "Siemens",
  "ManufacturersModelName": "Prisma",
  "Modality": "MR",
  "MultibandAccelerationFactor": 3,
  "PartialFourier": 0.75,
  "PatientPosition": "HFS",
  "PercentPhaseFOV": 100,
  "PercentSampling": 75,
  "PhaseEncodingDirection": "j-",
  "PhaseEncodingSteps": 58,
  "PhaseOversampling": 0.05,
  "PhaseResolution": 0.75,
  "PixelBandwidth": 2265,
  "ProcedureStepDescription": "White^Word_recognition",
  "ProtocolName": "func_vwfate_run6",
  "PulseSequenceDetails": "%SiemensSeq%\\ep2d_bold",
  "ReceiveCoilActiveElements": "HC1-7",
  "ReceiveCoilName": "HeadNeck_64",
  "ReconMatrixPE": 96,
  "RefLinesPE": 40,
  "RepetitionTime": 1.5,
  "SAR": 0.0572132,
  "ScanOptions": "PFP\\FS",
  "ScanningSequence": "EP",
  "SequenceName": "*epfid2d1_72",
  "SequenceVariant": "SK\\OSP",
  "SeriesDescription": "func_vwfate_run6",
  "SeriesNumber": 15,
  "ShimSetting": [-1127, -1349, 699, 524, -140, 46, 6, 28],
  "SliceThickness": 2,
  "SliceTiming": [1.075, 0, 0.74, 0.0675, 0.8075, 0.1325, 0.8725, 0.2, 0.94, 0.2675, 1.0075, 0.4025, 1.1425, 0.47, 1.21, 0.5375, 1.2775, 0.605, 1.345, 0.6725, 1.4125, 0.335, 1.075, 0, 0.74, 0.0675, 0.8075, 0.1325, 0.8725, 0.2, 0.94, 0.2675, 1.0075, 0.4025, 1.1425, 0.47, 1.21, 0.5375, 1.2775, 0.605, 1.345, 0.6725, 1.4125, 0.335, 1.075, 0, 0.74, 0.0675, 0.8075, 0.1325, 0.8725, 0.2, 0.94, 0.2675, 1.0075, 0.4025, 1.1425, 0.47, 1.21, 0.5375, 1.2775, 0.605, 1.345, 0.6725, 1.4125, 0.335],
  "SoftwareVersions": "syngo MR E11",
  "SpacingBetweenSlices": 2,
  "StationName": "AWP166011",
  "TaskName": "vwfate",
  "TotalReadoutTime": 0.0551515,
  "TxRefAmp": 245.155,
  "dcmmeta_affine": [
    [-1.9984312057495117, 0.002441560151055455, 0.07916167378425598, 92.8245620727539],
    [-0.009113289415836334, 1.9786819219589233, -0.29109227657318115, -66.77652740478516],
    [0.07867325097322464, 0.2912246584892273, 1.977118730545044, -77.42840576171875],
    [0.0, 0.0, 0.0, 1.0]
],
  "dcmmeta_reorient_transform": [
    [0.0, -1.0, 0.0, 95.0],
    [1.0, 0.0, 0.0, 0.0],
    [0.0, 0.0, 1.0, 0.0],
    [0.0, 0.0, 0.0, 1.0]
],
  "dcmmeta_shape": [96, 96, 66, 164],
  "dcmmeta_slice_dim": 2,
  "dcmmeta_version": 0.6,
  "global": {
    "const": {
      "AcquisitionMatrix": [96, 0, 0, 72],
      "AngioFlag": "N",
      "BitsAllocated": 16,
      "BitsStored": 12,
      "BodyPartExamined": "BRAIN",
      "Columns": 864,
      "EchoNumbers": 1,
      "EchoTime": 30.0,
      "EchoTrainLength": 58,
      "FlipAngle": 62.0,
      "HighBit": 11,
      "ImageOrientationPatient": [0.99921562580748, 0.00455664481858, 0.03933662581061, 0.00122078006952, 0.98934097136203, -0.1456123349186],
      "ImagePositionPatient": [-861.39166854453, -884.51162470011, 31.857681724495],
      "ImageType": [
        "ORIGINAL",
        "PRIMARY",
        "M",
        "ND",
        "MOSAIC"
],
      "ImagedNucleus": "1H",
      "ImagingFrequency": 123.259513,
      "InPlanePhaseEncodingDirection": "COL",
      "MRAcquisitionType": "2D",
      "MagneticFieldStrength": 3.0,
      "Manufacturer": "SIEMENS",
      "ManufacturerModelName": "Prisma",
      "Modality": "MR",
      "NumberOfAverages": 1.0,
      "NumberOfPhaseEncodingSteps": 58,
      "PercentPhaseFieldOfView": 100.0,
      "PercentSampling": 75.0,
      "PerformedProcedureStepStartTime": "174147.275000",
      "PhotometricInterpretation": "MONOCHROME2",
      "PixelBandwidth": 2265.0,
      "PixelRepresentation": 0,
      "PixelSpacing": [2.0, 2.0],
      "ProtocolName": "func_vwfate_run6",
      "RepetitionTime": 1500.0,
      "Rows": 864,
      "SAR": 0.05721324391868,
      "SamplesPerPixel": 1,
      "ScanOptions": [
        "PFP",
        "FS"
],
      "ScanningSequence": "EP",
      "SequenceName": "*epfid2d1_72",
      "SequenceVariant": [
        "SK",
        "OSP"
],
      "SeriesDescription": "func_vwfate_run6",
      "SeriesNumber": 15,
      "SeriesTime": "184733.218000",
      "SliceLocation": -63.149438522338,
      "SliceThickness": 2.0,
      "SmallestImagePixelValue": 0,
      "SoftwareVersions": "syngo MR E11",
      "SpacingBetweenSlices": 1.9999999523173,
      "SpecificCharacterSet": "ISO_IR 100",
      "StudyID": "1",
      "StudyTime": "174147.206000",
      "TransmitCoilName": "Body",
      "VariableFlipAngleFlag": "N",
      "WindowCenterWidthExplanation": "Algo1",
      "dBdt": 0.0},
    "slices": {}
  },
  "time": {
    "samples": {
      "AcquisitionNumber": [1, 2, 3, 4, 5, 6, 7, 8, 9, 10, 11, 12, 13, 14, 15, 16, 17, 18, 19, 20, 21, 22, 23, 24, 25, 26, 27, 28, 29, 30, 31, 32, 33, 34, 35, 36, 37, 38, 39, 40, 41, 42, 43, 44, 45, 46, 47, 48, 49, 50, 51, 52, 53, 54, 55, 56, 57, 58, 59, 60, 61, 62, 63, 64, 65, 66, 67, 68, 69, 70, 71, 72, 73, 74, 75, 76, 77, 78, 79, 80, 81, 82, 83, 84, 85, 86, 87, 88, 89, 90, 91, 92, 93, 94, 95, 96, 97, 98, 99, 100, 101, 102, 103, 104, 105, 106, 107, 108, 109, 110, 111, 112, 113, 114, 115, 116, 117, 118, 119, 120, 121, 122, 123, 124, 125, 126, 127, 128, 129, 130, 131, 132, 133, 134, 135, 136, 137, 138, 139, 140, 141, 142, 143, 144, 145, 146, 147, 148, 149, 150, 151, 152, 153, 154, 155, 156, 157, 158, 159, 160, 161, 162, 163, 164],
      "AcquisitionTime": ["184654.477500", "184655.977500", "184657.477500", "184658.977500", "184700.477500", "184701.977500", "184703.477500", "184704.977500", "184706.477500", "184707.977500", "184709.477500", "184710.977500", "184712.477500", "184713.977500", "184715.477500", "184716.977500", "184718.477500", "184719.977500", "184721.477500", "184722.977500", "184724.477500", "184725.977500", "184727.477500", "184728.977500", "184730.477500", "184731.977500", "184733.477500", "184734.977500", "184736.477500", "184737.977500", "184739.477500", "184740.977500", "184742.477500", "184743.977500", "184745.477500", "184746.977500", "184748.477500", "184749.977500", "184751.477500", "184752.977500", "184754.477500", "184755.977500", "184757.477500", "184758.977500", "184800.477500", "184801.977500", "184803.477500", "184804.977500", "184806.477500", "184807.977500", "184809.477500", "184810.977500", "184812.477500", "184813.977500", "184815.477500", "184816.977500", "184818.477500", "184819.977500", "184821.477500", "184822.977500", "184824.477500", "184825.977500", "184827.477500", "184828.977500", "184830.477500", "184831.977500", "184833.477500", "184834.977500", "184836.477500", "184837.977500", "184839.477500", "184840.977500", "184842.477500", "184843.977500", "184845.477500", "184846.977500", "184848.477500", "184849.977500", "184851.477500", "184852.977500", "184854.477500", "184855.977500", "184857.477500", "184858.977500", "184900.477500", "184901.977500", "184903.477500", "184904.977500", "184906.477500", "184907.977500", "184909.477500", "184910.977500", "184912.477500", "184913.977500", "184915.477500", "184916.977500", "184918.477500", "184919.977500", "184921.477500", "184922.977500", "184924.477500", "184925.977500", "184927.477500", "184928.977500", "184930.477500", "184931.977500", "184933.477500", "184934.977500", "184936.477500", "184937.977500", "184939.477500", "184940.977500", "184942.477500", "184943.977500", "184945.477500", "184946.977500", "184948.477500", "184949.977500", "184951.477500", "184952.977500", "184954.477500", "184955.977500", "184957.477500", "184958.977500", "185000.477500", "185001.977500", "185003.477500", "185004.977500", "185006.477500", "185007.977500", "185009.477500", "185010.977500", "185012.477500", "185013.977500", "185015.477500", "185016.977500", "185018.477500", "185019.977500", "185021.477500", "185022.977500", "185024.477500", "185025.977500", "185027.477500", "185028.977500", "185030.477500", "185031.977500", "185033.477500", "185034.977500", "185036.477500", "185037.977500", "185039.477500", "185040.977500", "185042.477500", "185043.977500", "185045.477500", "185046.977500", "185048.477500", "185049.977500", "185051.477500", "185052.977500", "185054.477500", "185055.977500", "185057.477500", "185058.977500"],
      "ContentTime": ["184733.222000", "184733.231000", "184733.234000", "184733.237000", "184733.244000", "184733.247000", "184733.250000", "184733.253000", "184733.256000", "184733.259000", "184733.262000", "184733.265000", "184733.269000", "184733.272000", "184733.275000", "184733.278000", "184733.281000", "184733.290000", "184733.293000", "184733.296000", "184733.299000", "184733.302000", "184733.305000", "184733.308000", "184733.311000", "184733.314000", "184813.217000", "184813.221000", "184813.235000", "184813.238000", "184813.241000", "184813.244000", "184813.247000", "184813.250000", "184813.253000", "184813.256000", "184813.259000", "184813.262000", "184813.265000", "184813.269000", "184813.272000", "184813.275000", "184813.284000", "184813.287000", "184813.290000", "184813.293000", "184813.296000", "184813.299000", "184813.302000", "184813.305000", "184813.309000", "184813.312000", "184853.216000", "184853.227000", "184853.230000", "184853.233000", "184853.236000", "184853.239000", "184853.242000", "184853.246000", "184853.249000", "184853.252000", "184853.255000", "184853.258000", "184853.261000", "184853.264000", "184853.267000", "184853.270000", "184853.273000", "184853.276000", "184853.279000", "184853.282000", "184853.285000", "184853.289000", "184853.292000", "184853.295000", "184853.298000", "184853.301000", "184853.304000", "184933.217000", "184933.220000", "184933.223000", "184933.226000", "184933.230000", "184933.233000", "184933.236000", "184933.239000", "184933.242000", "184933.245000", "184933.248000", "184933.251000", "184933.254000", "184933.257000", "184933.260000", "184933.263000", "184933.267000", "184933.270000", "184933.273000", "184933.276000", "184933.279000", "184933.282000", "184933.285000", "184933.288000", "184933.291000", "184933.294000", "184933.297000", "185013.217000", "185013.220000", "185013.224000", "185013.227000", "185013.230000", "185013.233000", "185013.236000", "185013.239000", "185013.242000", "185013.245000", "185013.248000", "185013.251000", "185013.254000", "185013.257000", "185013.260000", "185013.263000", "185013.267000", "185013.270000", "185013.273000", "185013.276000", "185013.279000", "185013.282000", "185013.285000", "185013.288000", "185013.291000", "185013.295000", "185053.217000", "185053.221000", "185053.224000", "185053.227000", "185053.230000", "185053.233000", "185053.236000", "185053.239000", "185053.242000", "185053.245000", "185053.248000", "185053.251000", "185053.254000", "185053.258000", "185053.261000", "185053.264000", "185053.267000", "185053.270000", "185053.273000", "185053.276000", "185053.279000", "185053.282000", "185053.285000", "185053.288000", "185053.291000", "185053.294000", "185053.298000", "185059.837000", "185059.841000", "185059.844000", "185059.862000", "185059.865000"],
      "InstanceCreationTime": ["184733.222000", "184733.231000", "184733.234000", "184733.237000", "184733.244000", "184733.247000", "184733.250000", "184733.253000", "184733.256000", "184733.259000", "184733.262000", "184733.265000", "184733.269000", "184733.272000", "184733.275000", "184733.278000", "184733.281000", "184733.290000", "184733.293000", "184733.296000", "184733.299000", "184733.302000", "184733.305000", "184733.308000", "184733.311000", "184733.314000", "184813.217000", "184813.221000", "184813.235000", "184813.238000", "184813.241000", "184813.244000", "184813.247000", "184813.250000", "184813.253000", "184813.256000", "184813.259000", "184813.262000", "184813.265000", "184813.269000", "184813.272000", "184813.275000", "184813.284000", "184813.287000", "184813.290000", "184813.293000", "184813.296000", "184813.299000", "184813.302000", "184813.305000", "184813.309000", "184813.312000", "184853.216000", "184853.227000", "184853.230000", "184853.233000", "184853.236000", "184853.239000", "184853.242000", "184853.246000", "184853.249000", "184853.252000", "184853.255000", "184853.258000", "184853.261000", "184853.264000", "184853.267000", "184853.270000", "184853.273000", "184853.276000", "184853.279000", "184853.282000", "184853.285000", "184853.289000", "184853.292000", "184853.295000", "184853.298000", "184853.301000", "184853.304000", "184933.217000", "184933.220000", "184933.223000", "184933.226000", "184933.230000", "184933.233000", "184933.236000", "184933.239000", "184933.242000", "184933.245000", "184933.248000", "184933.251000", "184933.254000", "184933.257000", "184933.260000", "184933.263000", "184933.267000", "184933.270000", "184933.273000", "184933.276000", "184933.279000", "184933.282000", "184933.285000", "184933.288000", "184933.291000", "184933.294000", "184933.297000", "185013.217000", "185013.220000", "185013.224000", "185013.227000", "185013.230000", "185013.233000", "185013.236000", "185013.239000", "185013.242000", "185013.245000", "185013.248000", "185013.251000", "185013.254000", "185013.257000", "185013.260000", "185013.263000", "185013.267000", "185013.270000", "185013.273000", "185013.276000", "185013.279000", "185013.282000", "185013.285000", "185013.288000", "185013.291000", "185013.295000", "185053.217000", "185053.221000", "185053.224000", "185053.227000", "185053.230000", "185053.233000", "185053.236000", "185053.239000", "185053.242000", "185053.245000", "185053.248000", "185053.251000", "185053.254000", "185053.258000", "185053.261000", "185053.264000", "185053.267000", "185053.270000", "185053.273000", "185053.276000", "185053.279000", "185053.282000", "185053.285000", "185053.288000", "185053.291000", "185053.294000", "185053.298000", "185059.837000", "185059.841000", "185059.844000", "185059.862000", "185059.865000"],
      "InstanceNumber": [1, 2, 3, 4, 5, 6, 7, 8, 9, 10, 11, 12, 13, 14, 15, 16, 17, 18, 19, 20, 21, 22, 23, 24, 25, 26, 27, 28, 29, 30, 31, 32, 33, 34, 35, 36, 37, 38, 39, 40, 41, 42, 43, 44, 45, 46, 47, 48, 49, 50, 51, 52, 53, 54, 55, 56, 57, 58, 59, 60, 61, 62, 63, 64, 65, 66, 67, 68, 69, 70, 71, 72, 73, 74, 75, 76, 77, 78, 79, 80, 81, 82, 83, 84, 85, 86, 87, 88, 89, 90, 91, 92, 93, 94, 95, 96, 97, 98, 99, 100, 101, 102, 103, 104, 105, 106, 107, 108, 109, 110, 111, 112, 113, 114, 115, 116, 117, 118, 119, 120, 121, 122, 123, 124, 125, 126, 127, 128, 129, 130, 131, 132, 133, 134, 135, 136, 137, 138, 139, 140, 141, 142, 143, 144, 145, 146, 147, 148, 149, 150, 151, 152, 153, 154, 155, 156, 157, 158, 159, 160, 161, 162, 163, 164],
      "LargestImagePixelValue": [2589, 2575, 2497, 2555, 2486, 2502, 2520, 2502, 2506, 2531, 2484, 2527, 2482, 2484, 2515, 2499, 2483, 2492, 2481, 2484, 2470, 2528, 2497, 2468, 2500, 2485, 2513, 2492, 2482, 2492, 2501, 2492, 2480, 2503, 2515, 2495, 2509, 2499, 2504, 2483, 2497, 2495, 2499, 2498, 2495, 2511, 2481, 2492, 2477, 2496, 2479, 2466, 2483, 2475, 2488, 2491, 2494, 2498, 2479, 2475, 2473, 2492, 2475, 2484, 2476, 2463, 2478, 2500, 2491, 2478, 2478, 2454, 2512, 2461, 2474, 2481, 2475, 2470, 2467, 2456, 2492, 2461, 2496, 2491, 2479, 2483, 2494, 2482, 2482, 2486, 2496, 2492, 2485, 2527, 2579, 2557, 2556, 2511, 2523, 2515, 2490, 2507, 2481, 2482, 2460, 2502, 2451, 2471, 2446, 2473, 2461, 2430, 2442, 2484, 2472, 2439, 2480, 2430, 2484, 2463, 2474, 2461, 2444, 2465, 2440, 2448, 2434, 2490, 2442, 2455, 2435, 2429, 2422, 2462, 2422, 2422, 2433, 2426, 2469, 2431, 2445, 2415, 2462, 2437, 2461, 2420, 2429, 2442, 2418, 2436, 2408, 2463, 2507, 2433, 2456, 2455, 2449, 2457, 2435, 2485, 2425, 2430, 2468, 2443],
      "WindowCenter": [700.0, 698.0, 696.0, 697.0, 696.0, 696.0, 696.0, 696.0, 695.0, 696.0, 695.0, 696.0, 696.0, 696.0, 695.0, 695.0, 694.0, 695.0, 695.0, 694.0, 694.0, 695.0, 695.0, 694.0, 695.0, 695.0, 694.0, 694.0, 694.0, 694.0, 694.0, 694.0, 694.0, 694.0, 694.0, 694.0, 694.0, 693.0, 693.0, 694.0, 694.0, 693.0, 694.0, 695.0, 696.0, 696.0, 696.0, 695.0, 695.0, 695.0, 695.0, 695.0, 695.0, 695.0, 695.0, 696.0, 695.0, 695.0, 695.0, 695.0, 696.0, 696.0, 696.0, 696.0, 696.0, 695.0, 696.0, 697.0, 697.0, 697.0, 698.0, 697.0, 696.0, 696.0, 696.0, 696.0, 698.0, 697.0, 697.0, 697.0, 697.0, 696.0, 696.0, 696.0, 694.0, 694.0, 695.0, 694.0, 694.0, 694.0, 694.0, 695.0, 695.0, 695.0, 697.0, 697.0, 697.0, 696.0, 696.0, 695.0, 695.0, 695.0, 696.0, 696.0, 696.0, 696.0, 696.0, 696.0, 696.0, 698.0, 697.0, 697.0, 697.0, 698.0, 699.0, 698.0, 699.0, 697.0, 697.0, 697.0, 697.0, 698.0, 697.0, 697.0, 696.0, 696.0, 695.0, 696.0, 696.0, 696.0, 695.0, 696.0, 696.0, 697.0, 696.0, 696.0, 696.0, 696.0, 697.0, 698.0, 698.0, 698.0, 698.0, 697.0, 697.0, 697.0, 697.0, 697.0, 696.0, 696.0, 696.0, 696.0, 698.0, 699.0, 699.0, 697.0, 696.0, 697.0, 698.0, 698.0, 696.0, 695.0, 696.0, 697.0],
      "WindowWidth": [1497.0, 1492.0, 1487.0, 1489.0, 1487.0, 1486.0, 1486.0, 1485.0, 1484.0, 1485.0, 1485.0, 1486.0, 1485.0, 1485.0, 1485.0, 1483.0, 1482.0, 1484.0, 1484.0, 1483.0, 1482.0, 1484.0, 1483.0, 1482.0, 1483.0, 1483.0, 1482.0, 1482.0, 1481.0, 1482.0, 1482.0, 1481.0, 1481.0, 1481.0, 1482.0, 1482.0, 1481.0, 1479.0, 1480.0, 1481.0, 1481.0, 1480.0, 1482.0, 1485.0, 1486.0, 1486.0, 1485.0, 1484.0, 1483.0, 1484.0, 1483.0, 1484.0, 1483.0, 1484.0, 1485.0, 1487.0, 1485.0, 1484.0, 1484.0, 1485.0, 1487.0, 1487.0, 1487.0, 1487.0, 1486.0, 1485.0, 1486.0, 1488.0, 1489.0, 1489.0, 1491.0, 1489.0, 1487.0, 1485.0, 1486.0, 1488.0, 1490.0, 1489.0, 1488.0, 1488.0, 1487.0, 1487.0, 1487.0, 1486.0, 1482.0, 1482.0, 1483.0, 1482.0, 1482.0, 1481.0, 1482.0, 1483.0, 1483.0, 1483.0, 1488.0, 1488.0, 1489.0, 1487.0, 1486.0, 1485.0, 1485.0, 1486.0, 1486.0, 1486.0, 1486.0, 1487.0, 1487.0, 1487.0, 1487.0, 1491.0, 1490.0, 1490.0, 1489.0, 1492.0, 1494.0, 1493.0, 1493.0, 1490.0, 1490.0, 1489.0, 1490.0, 1491.0, 1490.0, 1489.0, 1487.0, 1486.0, 1485.0, 1486.0, 1487.0, 1486.0, 1485.0, 1486.0, 1488.0, 1489.0, 1487.0, 1486.0, 1485.0, 1486.0, 1489.0, 1490.0, 1492.0, 1491.0, 1491.0, 1488.0, 1489.0, 1488.0, 1489.0, 1488.0, 1486.0, 1486.0, 1485.0, 1487.0, 1491.0, 1492.0, 1492.0, 1488.0, 1486.0, 1488.0, 1491.0, 1492.0, 1486.0, 1485.0, 1486.0, 1488.0]
    },
    "slices": {}
  }
}