{
  "AcquisitionMatrixPE": 70,
  "AcquisitionNumber": 1,
  "AcquisitionTime": "09:52:16.827500",
  "BaseResolution": 70,
  "BodyPartExamined": "BRAIN",
  "CoilCombinationMethod": "Sum of Squares",
  "ConsistencyInfo": "N4_VE11C_LATEST_20160120",
  "ConversionSoftware": "dcm2niix",
  "ConversionSoftwareVersion": "v1.0.20211006",
  "DeviceSerialNumber": "166011",
  "EchoNumber": 2,
  "EchoTime": 0.00738,
  "EchoTime1": 0.00492,
  "EchoTime2": 0.00738,
  "FlipAngle": 60,
  "ImageOrientationPatientDICOM": [
    0.999034,
    0.00883978,
    -0.0430494,
    -0.0141244,
    0.992176,
    -0.124048
  ],
  "ImageType": [
    "ORIGINAL",
    "PRIMARY",
    "P",
    "ND",
    "PHASE"
  ],
  "ImagingFrequency": 123.26,
  "InPlanePhaseEncodingDirectionDICOM": "ROW",
  "InstitutionAddress": "West 130th Street 610,NY,NYC,US,10025",
  "InstitutionName": "MBBI",
  "IntendedFor": [
    "ses-3/func/sub-091_ses-3_task-langLoc_run-01_bold.nii.gz",
    "ses-3/func/sub-091_ses-3_task-langLoc_run-02_bold.nii.gz",
    "ses-3/func/sub-091_ses-3_task-langLoc_run-03_bold.nii.gz",
    "ses-3/func/sub-091_ses-3_task-vwfate_run-01_bold.nii.gz",
    "ses-3/func/sub-091_ses-3_task-vwfate_run-02_bold.nii.gz",
    "ses-3/func/sub-091_ses-3_task-vwfate_run-03_bold.nii.gz",
    "ses-3/func/sub-091_ses-3_task-vwfate_run-04_bold.nii.gz"
  ],
  "MRAcquisitionType": "2D",
  "MagneticFieldStrength": 3,
  "Manufacturer": "Siemens",
  "ManufacturersModelName": "Prisma",
  "MatrixCoilMode": "SENSE",
  "Modality": "MR",
  "PartialFourier": 1,
  "PatientPosition": "HFS",
  "PercentPhaseFOV": 100,
  "PercentSampling": 100,
  "PhaseEncodingDirection": "i",
  "PhaseEncodingSteps": 70,
  "PhaseResolution": 1,
  "PixelBandwidth": 595,
  "ProcedureStepDescription": "White^Word_recognition",
  "ProtocolName": "fmap_gre_field_mapping",
  "PulseSequenceDetails": "%SiemensSeq%\\gre_field_mapping",
  "ReceiveCoilActiveElements": "HC1-7",
  "ReceiveCoilName": "HeadNeck_64",
  "ReconMatrixPE": 70,
  "RepetitionTime": 0.52,
  "SAR": 0.0959577,
  "ScanningSequence": "GR",
  "SequenceName": "*fm2d2r",
  "SequenceVariant": "SP",
  "SeriesDescription": "fmap_gre_field_mapping",
  "SeriesNumber": 20,
  "ShimSetting": [
    -1143,
    -1357,
    645,
    577,
    -31,
    112,
    -155,
    -24
  ],
  "SliceThickness": 3,
  "SliceTiming": [
    0.25781,
    0,
    0.27344,
    0.00781,
    0.28125,
    0.02344,
    0.29688,
    0.03125,
    0.30469,
    0.04688,
    0.32031,
    0.0625,
    0.33594,
    0.07031,
    0.34375,
    0.08594,
    0.35938,
    0.09375,
    0.36719,
    0.10938,
    0.38281,
    0.125,
    0.39844,
    0.13281,
    0.40625,
    0.14844,
    0.42188,
    0.15625,
    0.42969,
    0.17188,
    0.44531,
    0.1875,
    0.46094,
    0.19531,
    0.46875,
    0.21094,
    0.48438,
    0.21875,
    0.49219,
    0.23438,
    0.50781,
    0.24219
  ],
  "SoftwareVersions": "syngo MR E11",
  "SpacingBetweenSlices": 3,
  "StationName": "AWP166011",
  "TxRefAmp": 214.135,
  "dcmmeta_affine": [
    [
      -2.9971015453338623,
      -0.04237334802746773,
      -0.1248478889465332,
      108.68646240234375
    ],
    [
      -0.026519328355789185,
      2.976526975631714,
      -0.3736085891723633,
      -79.37825775146484
    ],
    [
      -0.12914811074733734,
      0.3721442222595215,
      2.9740257263183594,
      -73.8707046508789
    ],
    [
      0.0,
      0.0,
      0.0,
      1.0
    ]
  ],
  "dcmmeta_reorient_transform": [
    [
      0.0,
      -1.0,
      0.0,
      69.0
    ],
    [
      1.0,
      0.0,
      0.0,
      0.0
    ],
    [
      0.0,
      0.0,
      -1.0,
      41.0
    ],
    [
      0.0,
      0.0,
      0.0,
      1.0
    ]
  ],
  "dcmmeta_shape": [
    70,
    70,
    42
  ],
  "dcmmeta_slice_dim": 2,
  "dcmmeta_version": 0.6,
  "global": {
    "const": {
      "AcquisitionMatrix": [
        0,
        70,
        70,
        0
      ],
      "AcquisitionNumber": 1,
      "AngioFlag": "N",
      "BitsAllocated": 16,
      "BitsStored": 12,
      "BodyPartExamined": "BRAIN",
      "Columns": 70,
      "EchoNumbers": 2,
      "EchoTime": 7.38,
      "EchoTrainLength": 0,
      "FlipAngle": 60.0,
      "HighBit": 11,
      "ImageOrientationPatient": [
        0.99903383821013,
        0.00883977605876,
        -0.0430493724735,
        -0.014124449088,
        0.99217567750312,
        -0.1240480749918
      ],
      "ImageType": [
        "ORIGINAL",
        "PRIMARY",
        "P",
        "ND"
      ],
      "ImagedNucleus": "1H",
      "ImagingFrequency": 123.259565,
      "InPlanePhaseEncodingDirection": "ROW",
      "MRAcquisitionType": "2D",
      "MagneticFieldStrength": 3.0,
      "Manufacturer": "SIEMENS",
      "ManufacturerModelName": "Prisma",
      "Modality": "MR",
      "NumberOfAverages": 1.0,
      "NumberOfPhaseEncodingSteps": 70,
      "PercentPhaseFieldOfView": 100.0,
      "PercentSampling": 100.0,
      "PerformedProcedureStepStartTime": "081455.466000",
      "PhotometricInterpretation": "MONOCHROME2",
      "PixelBandwidth": 595.0,
      "PixelRepresentation": 0,
      "PixelSpacing": [
        3.0,
        3.0
      ],
      "ProtocolName": "fmap_gre_field_mapping",
      "RepetitionTime": 520.0,
      "RescaleIntercept": -4096.0,
      "RescaleSlope": 2.0,
      "RescaleType": "US",
      "Rows": 70,
      "SAR": 0.09595770319373,
      "SamplesPerPixel": 1,
      "ScanningSequence": "GR",
      "SequenceName": "*fm2d2r",
      "SequenceVariant": "SP",
      "SeriesDescription": "fmap_gre_field_mapping",
      "SeriesNumber": 20,
      "SeriesTime": "095330.069000",
      "SliceThickness": 3.0,
      "SoftwareVersions": "syngo MR E11",
      "SpacingBetweenSlices": 3.0,
      "SpecificCharacterSet": "ISO_IR 100",
      "StudyID": "5",
      "StudyTime": "081454.914000",
      "TransmitCoilName": "Body",
      "VariableFlipAngleFlag": "N",
      "WindowCenterWidthExplanation": "Algo1",
      "dBdt": 0.0
    },
    "slices": {
      "AcquisitionTime": [
        "095216.827500",
        "095216.567500",
        "095216.840000",
        "095216.580000",
        "095216.852500",
        "095216.592500",
        "095216.865000",
        "095216.605000",
        "095216.877500",
        "095216.617500",
        "095216.890000",
        "095216.630000",
        "095216.902500",
        "095216.642500",
        "095216.915000",
        "095216.655000",
        "095216.927500",
        "095216.667500",
        "095216.940000",
        "095216.680000",
        "095216.952500",
        "095216.692500",
        "095216.965000",
        "095216.705000",
        "095216.977500",
        "095216.717500",
        "095216.990000",
        "095216.730000",
        "095217.002500",
        "095216.742500",
        "095217.015000",
        "095216.755000",
        "095217.027500",
        "095216.767500",
        "095217.040000",
        "095216.780000",
        "095217.052500",
        "095216.792500",
        "095217.065000",
        "095216.805000",
        "095217.075000",
        "095216.815000"
      ],
      "ContentTime": [
        "095330.120000",
        "095330.073000",
        "095330.122000",
        "095330.075000",
        "095330.125000",
        "095330.077000",
        "095330.127000",
        "095330.079000",
        "095330.129000",
        "095330.081000",
        "095330.131000",
        "095330.084000",
        "095330.133000",
        "095330.086000",
        "095330.135000",
        "095330.088000",
        "095330.137000",
        "095330.090000",
        "095330.139000",
        "095330.095000",
        "095330.142000",
        "095330.097000",
        "095330.144000",
        "095330.099000",
        "095330.146000",
        "095330.101000",
        "095330.148000",
        "095330.103000",
        "095330.150000",
        "095330.105000",
        "095330.152000",
        "095330.108000",
        "095330.154000",
        "095330.110000",
        "095330.156000",
        "095330.112000",
        "095330.159000",
        "095330.114000",
        "095330.161000",
        "095330.116000",
        "095330.163000",
        "095330.118000"
      ],
      "CsaImage.ICE_Dims": [
        "X_2_1_1_1_1_1_22_1_1_1_1_436",
        "X_2_1_1_1_1_1_1_1_1_2_1_436",
        "X_2_1_1_1_1_1_23_1_1_3_1_436",
        "X_2_1_1_1_1_1_2_1_1_4_1_436",
        "X_2_1_1_1_1_1_24_1_1_5_1_436",
        "X_2_1_1_1_1_1_3_1_1_6_1_436",
        "X_2_1_1_1_1_1_25_1_1_7_1_436",
        "X_2_1_1_1_1_1_4_1_1_8_1_436",
        "X_2_1_1_1_1_1_26_1_1_9_1_436",
        "X_2_1_1_1_1_1_5_1_1_10_1_436",
        "X_2_1_1_1_1_1_27_1_1_11_1_436",
        "X_2_1_1_1_1_1_6_1_1_12_1_436",
        "X_2_1_1_1_1_1_28_1_1_13_1_436",
        "X_2_1_1_1_1_1_7_1_1_14_1_436",
        "X_2_1_1_1_1_1_29_1_1_15_1_436",
        "X_2_1_1_1_1_1_8_1_1_16_1_436",
        "X_2_1_1_1_1_1_30_1_1_17_1_436",
        "X_2_1_1_1_1_1_9_1_1_18_1_436",
        "X_2_1_1_1_1_1_31_1_1_19_1_436",
        "X_2_1_1_1_1_1_10_1_1_20_1_436",
        "X_2_1_1_1_1_1_32_1_1_21_1_436",
        "X_2_1_1_1_1_1_11_1_1_22_1_436",
        "X_2_1_1_1_1_1_33_1_1_23_1_436",
        "X_2_1_1_1_1_1_12_1_1_24_1_436",
        "X_2_1_1_1_1_1_34_1_1_25_1_436",
        "X_2_1_1_1_1_1_13_1_1_26_1_436",
        "X_2_1_1_1_1_1_35_1_1_27_1_436",
        "X_2_1_1_1_1_1_14_1_1_28_1_436",
        "X_2_1_1_1_1_1_36_1_1_29_1_436",
        "X_2_1_1_1_1_1_15_1_1_30_1_436",
        "X_2_1_1_1_1_1_37_1_1_31_1_436",
        "X_2_1_1_1_1_1_16_1_1_32_1_436",
        "X_2_1_1_1_1_1_38_1_1_33_1_436",
        "X_2_1_1_1_1_1_17_1_1_34_1_436",
        "X_2_1_1_1_1_1_39_1_1_35_1_436",
        "X_2_1_1_1_1_1_18_1_1_36_1_436",
        "X_2_1_1_1_1_1_40_1_1_37_1_436",
        "X_2_1_1_1_1_1_19_1_1_38_1_436",
        "X_2_1_1_1_1_1_41_1_1_39_1_436",
        "X_2_1_1_1_1_1_20_1_1_40_1_436",
        "X_2_1_1_1_1_1_42_1_1_41_1_436",
        "X_2_1_1_1_1_1_21_1_1_42_1_436"
      ],
      "CsaImage.ProtocolSliceNumber": [
        0,
        1,
        2,
        3,
        4,
        5,
        6,
        7,
        8,
        9,
        10,
        11,
        12,
        13,
        14,
        15,
        16,
        17,
        18,
        19,
        20,
        21,
        22,
        23,
        24,
        25,
        26,
        27,
        28,
        29,
        30,
        31,
        32,
        33,
        34,
        35,
        36,
        37,
        38,
        39,
        40,
        41
      ],
      "CsaImage.SlicePosition_PCS": [
        [
          -105.7627008,
          -126.00211518,
          -48.19275935
        ],
        [
          -105.63785291,
          -125.62850563,
          -45.21872981
        ],
        [
          -105.51300502,
          -125.254898,
          -42.24470408
        ],
        [
          -105.38815701,
          -124.88128846,
          -39.27067836
        ],
        [
          -105.26330912,
          -124.50767891,
          -36.29665263
        ],
        [
          -105.13846111,
          -124.13407128,
          -33.3226269
        ],
        [
          -105.01361322,
          -123.76046174,
          -30.34860118
        ],
        [
          -104.88876521,
          -123.38685219,
          -27.37457545
        ],
        [
          -104.76391733,
          -123.01324456,
          -24.40054972
        ],
        [
          -104.63906932,
          -122.63963501,
          -21.426524
        ],
        [
          -104.51422143,
          -122.26602738,
          -18.45249827
        ],
        [
          -104.38937348,
          -121.89241784,
          -15.47847254
        ],
        [
          -104.26452553,
          -121.51880829,
          -12.50444682
        ],
        [
          -104.13967758,
          -121.14520066,
          -9.53042109
        ],
        [
          -104.01482963,
          -120.77159111,
          -6.55639537
        ],
        [
          -103.88998166,
          -120.39798253,
          -3.58236964
        ],
        [
          -103.76513371,
          -120.02437394,
          -0.60834391
        ],
        [
          -103.64028577,
          -119.65076439,
          2.36568181
        ],
        [
          -103.51543782,
          -119.2771558,
          5.33970754
        ],
        [
          -103.39058987,
          -118.90354722,
          8.31373327
        ],
        [
          -103.26574191,
          -118.52993863,
          11.28775899
        ],
        [
          -103.14089396,
          -118.15632908,
          14.26178496
        ],
        [
          -103.01604602,
          -117.78272049,
          17.23581074
        ],
        [
          -102.8911981,
          -117.4091119,
          20.20983665
        ],
        [
          -102.76635015,
          -117.03550332,
          23.18386237
        ],
        [
          -102.6415022,
          -116.66189377,
          26.15788858
        ],
        [
          -102.51665425,
          -116.28828518,
          29.1319143
        ],
        [
          -102.39180624,
          -115.91467659,
          32.10594003
        ],
        [
          -102.26695835,
          -115.54106801,
          35.0799648
        ],
        [
          -102.14211035,
          -115.16745846,
          38.05399053
        ],
        [
          -102.01726246,
          -114.79384987,
          41.02801626
        ],
        [
          -101.89241445,
          -114.42024128,
          44.00204198
        ],
        [
          -101.76756656,
          -114.04663269,
          46.97606962
        ],
        [
          -101.64271855,
          -113.67302315,
          49.95009343
        ],
        [
          -101.51787066,
          -113.29941456,
          52.92411916
        ],
        [
          -101.39302277,
          -112.92580597,
          55.89814489
        ],
        [
          -101.26817465,
          -112.55219691,
          58.87217061
        ],
        [
          -101.14332676,
          -112.17858832,
          61.84619634
        ],
        [
          -101.01847887,
          -111.80497925,
          64.82022207
        ],
        [
          -100.89363098,
          -111.43137066,
          67.79424779
        ],
        [
          -100.76878285,
          -111.0577616,
          70.76827352
        ],
        [
          -100.64393496,
          -110.68415301,
          73.74229924
        ]
      ],
      "CsaImage.TimeAfterStart": [
        0.7825,
        0.5225,
        0.795,
        0.535,
        0.8075,
        0.5475,
        0.82,
        0.56,
        0.8325,
        0.5725,
        0.845,
        0.585,
        0.8575,
        0.5975,
        0.87,
        0.61,
        0.8825,
        0.6225,
        0.895,
        0.635,
        0.9075,
        0.6475,
        0.92,
        0.66,
        0.9325,
        0.6725,
        0.945,
        0.685,
        0.9575,
        0.6975,
        0.97,
        0.71,
        0.9825,
        0.7225,
        0.995,
        0.735,
        1.0075,
        0.7475,
        1.02,
        0.76,
        1.03,
        0.77
      ],
      "ImagePositionPatient": [
        [
          -105.76270079503,
          -126.00211517771,
          -48.192759349152
        ],
        [
          -105.63785290608,
          -125.62850563486,
          -45.218729808136
        ],
        [
          -105.51300501714,
          -125.25489799936,
          -42.244704081818
        ],
        [
          -105.38815700898,
          -124.88128845652,
          -39.270678355499
        ],
        [
          -105.26330912004,
          -124.50767891367,
          -36.296652629181
        ],
        [
          -105.13846111188,
          -124.13407127817,
          -33.322626902863
        ],
        [
          -105.01361322293,
          -123.76046173533,
          -30.348601176544
        ],
        [
          -104.88876521478,
          -123.38685219248,
          -27.374575450226
        ],
        [
          -104.76391732583,
          -123.01324455698,
          -24.400549723907
        ],
        [
          -104.63906931767,
          -122.63963501413,
          -21.426523997589
        ],
        [
          -104.51422142873,
          -122.26602737864,
          -18.452498271271
        ],
        [
          -104.38937348018,
          -121.89241783579,
          -15.478472544952
        ],
        [
          -104.26452553163,
          -121.51880829294,
          -12.504446818634
        ],
        [
          -104.13967758307,
          -121.14520065744,
          -9.5304210923157
        ],
        [
          -104.01482963452,
          -120.7715911146,
          -6.5563953659973
        ],
        [
          -103.88998165617,
          -120.39798252543,
          -3.582369639679
        ],
        [
          -103.76513370762,
          -120.02437393625,
          -0.6083439133606
        ],
        [
          -103.64028577397,
          -119.65076439341,
          2.3656818129577
        ],
        [
          -103.51543781797,
          -119.27715580423,
          5.3397075392761
        ],
        [
          -103.39058986942,
          -118.90354721506,
          8.3137332655945
        ],
        [
          -103.26574191341,
          -118.52993862589,
          11.287758991913
        ],
        [
          -103.14089396486,
          -118.15632908304,
          14.26178495665
        ],
        [
          -103.01604601631,
          -117.78272049387,
          17.235810742573
        ],
        [
          -102.89119809756,
          -117.4091119047,
          20.209836647705
        ],
        [
          -102.76635014901,
          -117.03550331553,
          23.183862374023
        ],
        [
          -102.64150220046,
          -116.66189377268,
          26.157888577179
        ],
        [
          -102.51665425191,
          -116.28828518351,
          29.131914303497
        ],
        [
          -102.39180624375,
          -115.91467659433,
          32.105940029816
        ],
        [
          -102.26695835481,
          -115.54106800516,
          35.07996480246
        ],
        [
          -102.14211034665,
          -115.16745846232,
          38.053990528778
        ],
        [
          -102.0172624577,
          -114.79384987314,
          41.028016255096
        ],
        [
          -101.89241444955,
          -114.42024128397,
          44.002041981415
        ],
        [
          -101.7675665606,
          -114.0466326948,
          46.976069615082
        ],
        [
          -101.64271855245,
          -113.67302315195,
          49.950093434051
        ],
        [
          -101.5178706635,
          -113.29941456278,
          52.92411916037
        ],
        [
          -101.39302277455,
          -112.92580597361,
          55.898144886688
        ],
        [
          -101.26817464719,
          -112.5521969076,
          58.872170613007
        ],
        [
          -101.14332675824,
          -112.17858831843,
          61.846196339325
        ],
        [
          -101.0184788693,
          -111.80497925242,
          64.820222065643
        ],
        [
          -100.89363098035,
          -111.43137066324,
          67.794247791962
        ],
        [
          -100.76878285298,
          -111.05776159723,
          70.76827351828
        ],
        [
          -100.64393496404,
          -110.68415300806,
          73.742299244598
        ]
      ],
      "InstanceCreationTime": [
        "095330.120000",
        "095330.073000",
        "095330.122000",
        "095330.075000",
        "095330.125000",
        "095330.077000",
        "095330.127000",
        "095330.079000",
        "095330.129000",
        "095330.081000",
        "095330.131000",
        "095330.084000",
        "095330.133000",
        "095330.086000",
        "095330.135000",
        "095330.088000",
        "095330.137000",
        "095330.090000",
        "095330.139000",
        "095330.095000",
        "095330.142000",
        "095330.097000",
        "095330.144000",
        "095330.099000",
        "095330.146000",
        "095330.101000",
        "095330.148000",
        "095330.103000",
        "095330.150000",
        "095330.105000",
        "095330.152000",
        "095330.108000",
        "095330.154000",
        "095330.110000",
        "095330.156000",
        "095330.112000",
        "095330.159000",
        "095330.114000",
        "095330.161000",
        "095330.116000",
        "095330.163000",
        "095330.118000"
      ],
      "InstanceNumber": [
        1,
        2,
        3,
        4,
        5,
        6,
        7,
        8,
        9,
        10,
        11,
        12,
        13,
        14,
        15,
        16,
        17,
        18,
        19,
        20,
        21,
        22,
        23,
        24,
        25,
        26,
        27,
        28,
        29,
        30,
        31,
        32,
        33,
        34,
        35,
        36,
        37,
        38,
        39,
        40,
        41,
        42
      ],
      "LargestImagePixelValue": [
        4094,
        4094,
        4095,
        4092,
        4090,
        4088,
        4087,
        4088,
        4094,
        4095,
        4093,
        4094,
        4093,
        4088,
        4095,
        4094,
        4085,
        4092,
        4077,
        4090,
        4077,
        4086,
        4081,
        4081,
        4030,
        4093,
        4093,
        4090,
        4078,
        4091,
        4094,
        4094,
        4077,
        4087,
        4081,
        4090,
        4092,
        4093,
        4091,
        4093,
        4094,
        4094
      ],
      "SliceLocation": [
        -67.868755775198,
        -64.868751975748,
        -61.868752195501,
        -58.86875217276,
        -55.868752154979,
        -52.868752369772,
        -49.868752351991,
        -46.86875232925,
        -43.868752549003,
        -40.868752526261,
        -37.868752746015,
        -34.868752725754,
        -31.868752705493,
        -28.868752922766,
        -25.868752902505,
        -22.86875299977,
        -19.868753098276,
        -16.868753078635,
        -13.868753176831,
        -10.868753275337,
        -7.8687533735333,
        -4.8687531169178,
        -1.8687531563352,
        1.1312469211843,
        4.1312468226783,
        7.1312473156481,
        10.131247217142,
        13.131247121117,
        16.131246074713,
        19.131246097454,
        22.131245996468,
        25.131245900442,
        28.131247690291,
        31.131245822198,
        34.131245721211,
        37.131245620225,
        40.131245588544,
        43.131245487557,
        46.131245445954,
        49.131245344968,
        52.131245313287,
        55.1312452123
      ],
      "SmallestImagePixelValue": [
        1,
        1,
        2,
        1,
        0,
        5,
        5,
        2,
        1,
        4,
        5,
        1,
        7,
        7,
        16,
        0,
        6,
        11,
        13,
        2,
        2,
        24,
        15,
        9,
        20,
        6,
        11,
        2,
        18,
        5,
        2,
        0,
        6,
        0,
        2,
        0,
        1,
        0,
        1,
        0,
        4,
        0
      ],
      "WindowCenter": [
        -260.0,
        -124.0,
        -200.0,
        -174.0,
        -282.0,
        -250.0,
        -242.0,
        -266.0,
        -386.0,
        -196.0,
        -136.0,
        -152.0,
        -90.0,
        -70.0,
        -82.0,
        -240.0,
        -250.0,
        -266.0,
        -258.0,
        -232.0,
        -226.0,
        -204.0,
        -178.0,
        -158.0,
        -136.0,
        -114.0,
        -142.0,
        -148.0,
        -208.0,
        -246.0,
        -262.0,
        -42.0,
        -324.0,
        -114.0,
        -342.0,
        -128.0,
        -174.0,
        -152.0,
        -130.0,
        -296.0,
        -234.0,
        -278.0
      ],
      "WindowWidth": [
        6278.0,
        6368.0,
        6206.0,
        6266.0,
        5988.0,
        6022.0,
        5768.0,
        5544.0,
        4694.0,
        5448.0,
        5322.0,
        5446.0,
        5468.0,
        5314.0,
        5268.0,
        4570.0,
        4534.0,
        4572.0,
        4532.0,
        4536.0,
        4504.0,
        4514.0,
        4468.0,
        4498.0,
        4456.0,
        4486.0,
        4472.0,
        4550.0,
        4546.0,
        4648.0,
        4602.0,
        5336.0,
        4700.0,
        5780.0,
        4742.0,
        5976.0,
        5318.0,
        6002.0,
        5750.0,
        5996.0,
        5796.0,
        6050.0
      ]
    }
  }
}