{
  "AcquisitionMatrixPE": 70,
  "AcquisitionNumber": 1,
  "AcquisitionTime": "09:56:38.492500",
  "BaseResolution": 70,
  "BodyPartExamined": "BRAIN",
  "CoilCombinationMethod": "Sum of Squares",
  "ConsistencyInfo": "N4_VE11C_LATEST_20160120",
  "ConversionSoftware": "dcm2niix",
  "ConversionSoftwareVersion": "v1.0.20211006",
  "DeviceSerialNumber": "166011",
  "EchoNumber": 2,
  "EchoTime": 0.00738,
  "EchoTime1": 0.00492,
  "EchoTime2": 0.00738,
  "FlipAngle": 60,
  "ImageOrientationPatientDICOM": [
    0.997706,
    0.0594502,
    0.0323723,
    -0.0542085,
    0.988104,
    -0.143914
  ],
  "ImageType": [
    "ORIGINAL",
    "PRIMARY",
    "P",
    "ND",
    "PHASE"
  ],
  "ImagingFrequency": 123.259,
  "InPlanePhaseEncodingDirectionDICOM": "ROW",
  "InstitutionAddress": "West 130th Street 610,NY,NYC,US,10025",
  "InstitutionName": "MBBI",
  "IntendedFor": [
    "ses-3/func/sub-164_ses-3_task-langLoc_run-01_bold.nii.gz",
    "ses-3/func/sub-164_ses-3_task-langLoc_run-02_bold.nii.gz",
    "ses-3/func/sub-164_ses-3_task-langLoc_run-03_bold.nii.gz",
    "ses-3/func/sub-164_ses-3_task-vwfate_run-01_bold.nii.gz",
    "ses-3/func/sub-164_ses-3_task-vwfate_run-02_bold.nii.gz",
    "ses-3/func/sub-164_ses-3_task-vwfate_run-03_bold.nii.gz"
  ],
  "MRAcquisitionType": "2D",
  "MagneticFieldStrength": 3,
  "Manufacturer": "Siemens",
  "ManufacturersModelName": "Prisma",
  "MatrixCoilMode": "SENSE",
  "Modality": "MR",
  "PartialFourier": 1,
  "PatientPosition": "HFS",
  "PercentPhaseFOV": 100,
  "PercentSampling": 100,
  "PhaseEncodingDirection": "i",
  "PhaseEncodingSteps": 70,
  "PhaseResolution": 1,
  "PixelBandwidth": 595,
  "ProcedureStepDescription": "White^Word_recognition",
  "ProtocolName": "fmap_gre_field_mapping",
  "PulseSequenceDetails": "%SiemensSeq%\\gre_field_mapping",
  "ReceiveCoilActiveElements": "HC2,4,6,7;NC2",
  "ReceiveCoilName": "HeadNeck_64",
  "ReconMatrixPE": 70,
  "RepetitionTime": 0.52,
  "SAR": 0.0898805,
  "ScanningSequence": "GR",
  "SequenceName": "*fm2d2r",
  "SequenceVariant": "SP",
  "SeriesDescription": "fmap_gre_field_mapping",
  "SeriesNumber": 19,
  "ShimSetting": [
    -1144,
    -1402,
    690,
    684,
    -50,
    -105,
    163,
    -12
  ],
  "SliceThickness": 3,
  "SliceTiming": [
    0.25781,
    0,
    0.27344,
    0.00781,
    0.28125,
    0.02344,
    0.29688,
    0.03906,
    0.30469,
    0.04688,
    0.32031,
    0.05469,
    0.32812,
    0.07031,
    0.34375,
    0.08594,
    0.35938,
    0.09375,
    0.36719,
    0.10938,
    0.38281,
    0.11719,
    0.39062,
    0.13281,
    0.40625,
    0.14844,
    0.42188,
    0.15625,
    0.42969,
    0.17188,
    0.44531,
    0.17969,
    0.45312,
    0.19531,
    0.46875,
    0.21094,
    0.48438,
    0.21875,
    0.49219,
    0.23438,
    0.50781,
    0.24219
  ],
  "SoftwareVersions": "syngo MR E11",
  "SpacingBetweenSlices": 3,
  "StationName": "AWP166011",
  "TxRefAmp": 217.877,
  "dcmmeta_affine": [
    [
      -2.9931187629699707,
      -0.16262544691562653,
      0.1216287612915039,
      114.66204071044922
    ],
    [
      -0.17835049331188202,
      2.96431303024292,
      -0.4254875183105469,
      -69.2897720336914
    ],
    [
      0.09711683541536331,
      0.43174201250076294,
      2.9671783447265625,
      -70.44012451171875
    ],
    [
      0.0,
      0.0,
      0.0,
      1.0
    ]
  ],
  "dcmmeta_reorient_transform": [
    [
      0.0,
      -1.0,
      0.0,
      69.0
    ],
    [
      1.0,
      0.0,
      0.0,
      0.0
    ],
    [
      0.0,
      0.0,
      -1.0,
      41.0
    ],
    [
      0.0,
      0.0,
      0.0,
      1.0
    ]
  ],
  "dcmmeta_shape": [
    70,
    70,
    42
  ],
  "dcmmeta_slice_dim": 2,
  "dcmmeta_version": 0.6,
  "global": {
    "const": {
      "AcquisitionMatrix": [
        0,
        70,
        70,
        0
      ],
      "AcquisitionNumber": 1,
      "AngioFlag": "N",
      "BitsAllocated": 16,
      "BitsStored": 12,
      "BodyPartExamined": "BRAIN",
      "Columns": 70,
      "EchoNumbers": 2,
      "EchoTime": 7.38,
      "EchoTrainLength": 0,
      "FlipAngle": 60.0,
      "HighBit": 11,
      "ImageOrientationPatient": [
        0.99770622607141,
        0.05945016382108,
        0.0323722794994,
        -0.054208483041,
        0.98810434704423,
        -0.1439140011211
      ],
      "ImageType": [
        "ORIGINAL",
        "PRIMARY",
        "P",
        "ND"
      ],
      "ImagedNucleus": "1H",
      "ImagingFrequency": 123.259292,
      "InPlanePhaseEncodingDirection": "ROW",
      "MRAcquisitionType": "2D",
      "MagneticFieldStrength": 3.0,
      "Manufacturer": "SIEMENS",
      "ManufacturerModelName": "Prisma",
      "Modality": "MR",
      "NumberOfAverages": 1.0,
      "NumberOfPhaseEncodingSteps": 70,
      "PercentPhaseFieldOfView": 100.0,
      "PercentSampling": 100.0,
      "PerformedProcedureStepStartTime": "084413.393000",
      "PhotometricInterpretation": "MONOCHROME2",
      "PixelBandwidth": 595.0,
      "PixelRepresentation": 0,
      "PixelSpacing": [
        3.0,
        3.0
      ],
      "ProtocolName": "fmap_gre_field_mapping",
      "RepetitionTime": 520.0,
      "RescaleIntercept": -4096.0,
      "RescaleSlope": 2.0,
      "RescaleType": "US",
      "Rows": 70,
      "SAR": 0.0898804815984,
      "SamplesPerPixel": 1,
      "ScanningSequence": "GR",
      "SequenceName": "*fm2d2r",
      "SequenceVariant": "SP",
      "SeriesDescription": "fmap_gre_field_mapping",
      "SeriesNumber": 19,
      "SeriesTime": "095751.459000",
      "SliceThickness": 3.0,
      "SoftwareVersions": "syngo MR E11",
      "SpacingBetweenSlices": 3.0,
      "SpecificCharacterSet": "ISO_IR 100",
      "StudyID": "3",
      "StudyTime": "084413.208000",
      "TransmitCoilName": "Body",
      "VariableFlipAngleFlag": "N",
      "WindowCenterWidthExplanation": "Algo1",
      "dBdt": 0.0
    },
    "slices": {
      "AcquisitionTime": [
        "095638.492500",
        "095638.232500",
        "095638.505000",
        "095638.245000",
        "095638.517500",
        "095638.257500",
        "095638.530000",
        "095638.270000",
        "095638.542500",
        "095638.282500",
        "095638.552500",
        "095638.292500",
        "095638.565000",
        "095638.305000",
        "095638.577500",
        "095638.317500",
        "095638.590000",
        "095638.330000",
        "095638.602500",
        "095638.342500",
        "095638.615000",
        "095638.355000",
        "095638.627500",
        "095638.367500",
        "095638.640000",
        "095638.380000",
        "095638.652500",
        "095638.392500",
        "095638.665000",
        "095638.405000",
        "095638.677500",
        "095638.417500",
        "095638.690000",
        "095638.430000",
        "095638.702500",
        "095638.442500",
        "095638.715000",
        "095638.455000",
        "095638.727500",
        "095638.467500",
        "095638.740000",
        "095638.480000"
      ],
      "ContentTime": [
        "095751.517000",
        "095751.462000",
        "095751.519000",
        "095751.474000",
        "095751.521000",
        "095751.476000",
        "095751.523000",
        "095751.478000",
        "095751.525000",
        "095751.480000",
        "095751.528000",
        "095751.482000",
        "095751.530000",
        "095751.484000",
        "095751.532000",
        "095751.487000",
        "095751.534000",
        "095751.489000",
        "095751.537000",
        "095751.491000",
        "095751.539000",
        "095751.493000",
        "095751.541000",
        "095751.495000",
        "095751.543000",
        "095751.497000",
        "095751.545000",
        "095751.500000",
        "095751.547000",
        "095751.502000",
        "095751.549000",
        "095751.504000",
        "095751.552000",
        "095751.506000",
        "095751.554000",
        "095751.508000",
        "095751.556000",
        "095751.510000",
        "095751.558000",
        "095751.512000",
        "095751.560000",
        "095751.515000"
      ],
      "CsaImage.ICE_Dims": [
        "X_2_1_1_1_1_1_22_1_1_1_1_44",
        "X_2_1_1_1_1_1_1_1_1_2_1_44",
        "X_2_1_1_1_1_1_23_1_1_3_1_44",
        "X_2_1_1_1_1_1_2_1_1_4_1_44",
        "X_2_1_1_1_1_1_24_1_1_5_1_44",
        "X_2_1_1_1_1_1_3_1_1_6_1_44",
        "X_2_1_1_1_1_1_25_1_1_7_1_44",
        "X_2_1_1_1_1_1_4_1_1_8_1_44",
        "X_2_1_1_1_1_1_26_1_1_9_1_44",
        "X_2_1_1_1_1_1_5_1_1_10_1_44",
        "X_2_1_1_1_1_1_27_1_1_11_1_44",
        "X_2_1_1_1_1_1_6_1_1_12_1_44",
        "X_2_1_1_1_1_1_28_1_1_13_1_44",
        "X_2_1_1_1_1_1_7_1_1_14_1_44",
        "X_2_1_1_1_1_1_29_1_1_15_1_44",
        "X_2_1_1_1_1_1_8_1_1_16_1_44",
        "X_2_1_1_1_1_1_30_1_1_17_1_44",
        "X_2_1_1_1_1_1_9_1_1_18_1_44",
        "X_2_1_1_1_1_1_31_1_1_19_1_44",
        "X_2_1_1_1_1_1_10_1_1_20_1_44",
        "X_2_1_1_1_1_1_32_1_1_21_1_44",
        "X_2_1_1_1_1_1_11_1_1_22_1_44",
        "X_2_1_1_1_1_1_33_1_1_23_1_44",
        "X_2_1_1_1_1_1_12_1_1_24_1_44",
        "X_2_1_1_1_1_1_34_1_1_25_1_44",
        "X_2_1_1_1_1_1_13_1_1_26_1_44",
        "X_2_1_1_1_1_1_35_1_1_27_1_44",
        "X_2_1_1_1_1_1_14_1_1_28_1_44",
        "X_2_1_1_1_1_1_36_1_1_29_1_44",
        "X_2_1_1_1_1_1_15_1_1_30_1_44",
        "X_2_1_1_1_1_1_37_1_1_31_1_44",
        "X_2_1_1_1_1_1_16_1_1_32_1_44",
        "X_2_1_1_1_1_1_38_1_1_33_1_44",
        "X_2_1_1_1_1_1_17_1_1_34_1_44",
        "X_2_1_1_1_1_1_39_1_1_35_1_44",
        "X_2_1_1_1_1_1_18_1_1_36_1_44",
        "X_2_1_1_1_1_1_40_1_1_37_1_44",
        "X_2_1_1_1_1_1_19_1_1_38_1_44",
        "X_2_1_1_1_1_1_41_1_1_39_1_44",
        "X_2_1_1_1_1_1_20_1_1_40_1_44",
        "X_2_1_1_1_1_1_42_1_1_41_1_44",
        "X_2_1_1_1_1_1_21_1_1_42_1_44"
      ],
      "CsaImage.ProtocolSliceNumber": [
        0,
        1,
        2,
        3,
        4,
        5,
        6,
        7,
        8,
        9,
        10,
        11,
        12,
        13,
        14,
        15,
        16,
        17,
        18,
        19,
        20,
        21,
        22,
        23,
        24,
        25,
        26,
        27,
        28,
        29,
        30,
        31,
        32,
        33,
        34,
        35,
        36,
        37,
        38,
        39,
        40,
        41
      ],
      "CsaImage.SlicePosition_PCS": [
        [
          -103.44088305,
          -135.24781081,
          -40.65006152
        ],
        [
          -103.56251181,
          -134.8223233,
          -37.68288318
        ],
        [
          -103.68414057,
          -134.39683578,
          -34.71570102
        ],
        [
          -103.80576934,
          -133.97135017,
          -31.74851886
        ],
        [
          -103.9273981,
          -133.54586265,
          -28.7813367
        ],
        [
          -104.04902638,
          -133.12037513,
          -25.81415454
        ],
        [
          -104.17065514,
          -132.69488761,
          -22.84697238
        ],
        [
          -104.2922839,
          -132.26940009,
          -19.87979022
        ],
        [
          -104.41391266,
          -131.84391448,
          -16.91260997
        ],
        [
          -104.53554143,
          -131.41842696,
          -13.94542781
        ],
        [
          -104.65717019,
          -130.99293945,
          -10.97824565
        ],
        [
          -104.77879895,
          -130.56745193,
          -8.01106349
        ],
        [
          -104.90042771,
          -130.14196441,
          -5.04388324
        ],
        [
          -105.02205647,
          -129.7164788,
          -2.07670108
        ],
        [
          -105.14368476,
          -129.29099128,
          0.89048108
        ],
        [
          -105.26531352,
          -128.86550376,
          3.85766229
        ],
        [
          -105.38694228,
          -128.44001624,
          6.82484397
        ],
        [
          -105.50857104,
          -128.01452873,
          9.79202565
        ],
        [
          -105.6301998,
          -127.58904311,
          12.75920734
        ],
        [
          -105.75182856,
          -127.1635556,
          15.72638902
        ],
        [
          -105.87345732,
          -126.73806808,
          18.6935707
        ],
        [
          -105.99508608,
          -126.31258056,
          21.66075238
        ],
        [
          -106.11671485,
          -125.88709399,
          24.62793454
        ],
        [
          -106.23834313,
          -125.46160648,
          27.59511575
        ],
        [
          -106.35997189,
          -125.03611896,
          30.56229695
        ],
        [
          -106.48160065,
          -124.61063239,
          33.52947911
        ],
        [
          -106.60322941,
          -124.18514487,
          36.49666127
        ],
        [
          -106.72485818,
          -123.75965831,
          39.46384343
        ],
        [
          -106.84648694,
          -123.33417079,
          42.43102368
        ],
        [
          -106.9681157,
          -122.90868327,
          45.39820584
        ],
        [
          -107.08974398,
          -122.48319671,
          48.365388
        ],
        [
          -107.21137274,
          -122.05770919,
          51.33257016
        ],
        [
          -107.33300151,
          -121.63222263,
          54.29975232
        ],
        [
          -107.45463027,
          -121.20673511,
          57.26693448
        ],
        [
          -107.57625903,
          -120.78124759,
          60.23411283
        ],
        [
          -107.69788779,
          -120.35576102,
          63.20129499
        ],
        [
          -107.81951655,
          -119.93027351,
          66.16847714
        ],
        [
          -107.94114531,
          -119.50478694,
          69.1356593
        ],
        [
          -108.06277407,
          -119.07929942,
          72.10284146
        ],
        [
          -108.18440283,
          -118.65381191,
          75.07002362
        ],
        [
          -108.3060316,
          -118.22832534,
          78.03720578
        ],
        [
          -108.42766036,
          -117.80283782,
          81.00438413
        ]
      ],
      "CsaImage.TimeAfterStart": [
        0.7825,
        0.5225,
        0.795,
        0.535,
        0.8075,
        0.5475,
        0.82,
        0.56,
        0.8325,
        0.5725,
        0.8425,
        0.5825,
        0.855,
        0.595,
        0.8675,
        0.6075,
        0.88,
        0.62,
        0.8925,
        0.6325,
        0.905,
        0.645,
        0.9175,
        0.6575,
        0.93,
        0.67,
        0.9425,
        0.6825,
        0.955,
        0.695,
        0.9675,
        0.7075,
        0.98,
        0.72,
        0.9925,
        0.7325,
        1.005,
        0.745,
        1.0175,
        0.7575,
        1.03,
        0.77
      ],
      "ImagePositionPatient": [
        [
          -103.44088305145,
          -135.24781081432,
          -40.650061520981
        ],
        [
          -103.56251181274,
          -134.82232329601,
          -37.682883176254
        ],
        [
          -103.68414057404,
          -134.3968357777,
          -34.71570101683
        ],
        [
          -103.80576933533,
          -133.97135016674,
          -31.748518857407
        ],
        [
          -103.92739809662,
          -133.54586264843,
          -28.781336697983
        ],
        [
          -104.04902638107,
          -133.12037513012,
          -25.814154538559
        ],
        [
          -104.17065514236,
          -132.6948876118,
          -22.846972379135
        ],
        [
          -104.29228390366,
          -132.26940009349,
          -19.879790219711
        ],
        [
          -104.41391266495,
          -131.84391448253,
          -16.912609967636
        ],
        [
          -104.53554142624,
          -131.41842696422,
          -13.945427808212
        ],
        [
          -104.65717018753,
          -130.99293944591,
          -10.978245648788
        ],
        [
          -104.77879894882,
          -130.5674519276,
          -8.0110634893645
        ],
        [
          -104.90042771011,
          -130.14196440929,
          -5.0438832372893
        ],
        [
          -105.02205647141,
          -129.71647879833,
          -2.0767010778655
        ],
        [
          -105.14368475586,
          -129.29099128002,
          0.89048108155832
        ],
        [
          -105.26531351715,
          -128.86550376171,
          3.8576622873078
        ],
        [
          -105.38694227844,
          -128.4400162434,
          6.8248439698945
        ],
        [
          -105.50857103973,
          -128.01452872509,
          9.7920256524812
        ],
        [
          -105.63019980103,
          -127.58904311412,
          12.759207335068
        ],
        [
          -105.75182856232,
          -127.16355559581,
          15.726389017655
        ],
        [
          -105.87345732361,
          -126.7380680775,
          18.693570700241
        ],
        [
          -105.9950860849,
          -126.31258055919,
          21.660752382828
        ],
        [
          -106.11671484619,
          -125.88709399456,
          24.627934542252
        ],
        [
          -106.23834313065,
          -125.46160647625,
          27.595115748001
        ],
        [
          -106.35997189194,
          -125.03611895794,
          30.562296953751
        ],
        [
          -106.48160065323,
          -124.6106323933,
          33.529479113175
        ],
        [
          -106.60322941452,
          -124.18514487499,
          36.496661272598
        ],
        [
          -106.72485817581,
          -123.75965831035,
          39.463843432022
        ],
        [
          -106.8464869371,
          -123.33417079204,
          42.431023684097
        ],
        [
          -106.9681156984,
          -122.90868327373,
          45.398205843521
        ],
        [
          -107.08974398285,
          -122.48319670909,
          48.365388002945
        ],
        [
          -107.21137274414,
          -122.05770919078,
          51.332570162369
        ],
        [
          -107.33300150543,
          -121.63222262615,
          54.299752321793
        ],
        [
          -107.45463026672,
          -121.20673510784,
          57.266934481217
        ],
        [
          -107.57625902802,
          -120.78124758953,
          60.234112825943
        ],
        [
          -107.69788778931,
          -120.35576102489,
          63.201294985367
        ],
        [
          -107.8195165506,
          -119.93027350658,
          66.168477144791
        ],
        [
          -107.94114531189,
          -119.50478694194,
          69.135659304215
        ],
        [
          -108.06277407318,
          -119.07929942363,
          72.102841463638
        ],
        [
          -108.18440283447,
          -118.65381190532,
          75.070023623062
        ],
        [
          -108.30603159576,
          -118.22832534069,
          78.037205782486
        ],
        [
          -108.42766035706,
          -117.80283782238,
          81.004384127213
        ]
      ],
      "InstanceCreationTime": [
        "095751.517000",
        "095751.462000",
        "095751.519000",
        "095751.474000",
        "095751.521000",
        "095751.476000",
        "095751.523000",
        "095751.478000",
        "095751.525000",
        "095751.480000",
        "095751.528000",
        "095751.482000",
        "095751.530000",
        "095751.484000",
        "095751.532000",
        "095751.487000",
        "095751.534000",
        "095751.489000",
        "095751.537000",
        "095751.491000",
        "095751.539000",
        "095751.493000",
        "095751.541000",
        "095751.495000",
        "095751.543000",
        "095751.497000",
        "095751.545000",
        "095751.500000",
        "095751.547000",
        "095751.502000",
        "095751.549000",
        "095751.504000",
        "095751.552000",
        "095751.506000",
        "095751.554000",
        "095751.508000",
        "095751.556000",
        "095751.510000",
        "095751.558000",
        "095751.512000",
        "095751.560000",
        "095751.515000"
      ],
      "InstanceNumber": [
        1,
        2,
        3,
        4,
        5,
        6,
        7,
        8,
        9,
        10,
        11,
        12,
        13,
        14,
        15,
        16,
        17,
        18,
        19,
        20,
        21,
        22,
        23,
        24,
        25,
        26,
        27,
        28,
        29,
        30,
        31,
        32,
        33,
        34,
        35,
        36,
        37,
        38,
        39,
        40,
        41,
        42
      ],
      "LargestImagePixelValue": [
        4094,
        4094,
        4086,
        4088,
        4090,
        4089,
        4095,
        4091,
        4092,
        4091,
        4094,
        4095,
        4093,
        4072,
        4091,
        4094,
        4094,
        4095,
        4092,
        4094,
        4091,
        4094,
        4092,
        4094,
        4092,
        4092,
        4084,
        4094,
        4092,
        4095,
        4093,
        4088,
        4094,
        4095,
        4091,
        4094,
        4092,
        4092,
        4095,
        4093,
        4091,
        4093
      ],
      "SliceLocation": [
        -55.193646763424,
        -52.193650011222,
        -49.193649486052,
        -46.193649231401,
        -43.193648706232,
        -40.193648200395,
        -37.193647675226,
        -34.193647150057,
        -31.193648781889,
        -28.19364825672,
        -25.193647731551,
        -22.193647206382,
        -19.193648567696,
        -16.193648313045,
        -13.193647807208,
        -10.193648225281,
        -7.1936481717325,
        -4.1936481181843,
        -1.1936483351536,
        1.8063517183946,
        4.8063517719428,
        7.806351825491,
        10.806352215401,
        13.806351777996,
        16.806351359924,
        19.806351749834,
        22.806352275003,
        25.806352664913,
        28.806351303599,
        31.806351828768,
        34.806352199346,
        37.806352724515,
        40.806353114425,
        43.806353639594,
        46.806350391797,
        49.806350781707,
        52.806351306876,
        55.806351696786,
        58.806352221955,
        61.806352747124,
        64.806353137034,
        67.806349889237
      ],
      "SmallestImagePixelValue": [
        6,
        4,
        1,
        10,
        18,
        0,
        0,
        0,
        0,
        0,
        0,
        18,
        2,
        15,
        2,
        6,
        8,
        21,
        0,
        9,
        5,
        14,
        0,
        4,
        0,
        10,
        3,
        21,
        4,
        2,
        2,
        1,
        0,
        0,
        0,
        1,
        5,
        2,
        1,
        2,
        0,
        0
      ],
      "WindowCenter": [
        -140.0,
        -186.0,
        -188.0,
        -178.0,
        -330.0,
        -342.0,
        -370.0,
        -370.0,
        -368.0,
        -354.0,
        -304.0,
        -256.0,
        -178.0,
        -176.0,
        -176.0,
        -34.0,
        -200.0,
        -142.0,
        -76.0,
        -68.0,
        -92.0,
        -134.0,
        -94.0,
        -102.0,
        -100.0,
        -100.0,
        -96.0,
        -44.0,
        -50.0,
        -44.0,
        10.0,
        -38.0,
        -32.0,
        -62.0,
        -214.0,
        -64.0,
        -160.0,
        -168.0,
        -212.0,
        -234.0,
        -294.0,
        -234.0
      ],
      "WindowWidth": [
        5994.0,
        5952.0,
        5716.0,
        5618.0,
        4722.0,
        4698.0,
        4680.0,
        4704.0,
        4698.0,
        4658.0,
        4632.0,
        4616.0,
        4562.0,
        4568.0,
        4566.0,
        5136.0,
        4594.0,
        4852.0,
        5422.0,
        5450.0,
        5320.0,
        5104.0,
        5360.0,
        5478.0,
        5534.0,
        5578.0,
        5508.0,
        5556.0,
        5502.0,
        5522.0,
        5528.0,
        5442.0,
        5404.0,
        5312.0,
        4722.0,
        5594.0,
        5566.0,
        5702.0,
        5864.0,
        6108.0,
        6196.0,
        6262.0
      ]
    }
  }
}