{
  "AcquisitionMatrixPE": 72,
  "AcquisitionNumber": 1,
  "AcquisitionTime": "15:54:33.370000",
  "BandwidthPerPixelPhaseEncode": 17.943,
  "BaseResolution": 96,
  "BodyPartExamined": "BRAIN",
  "CoilCombinationMethod": "Sum of Squares",
  "ConsistencyInfo": "N4_VE11C_LATEST_20160120",
  "ConversionSoftware": "dcm2niix",
  "ConversionSoftwareVersion": "v1.0.20211006",
  "DerivedVendorReportedEchoSpacing": 0.000552897,
  "DeviceSerialNumber": "166011",
  "EchoTime": 0.03,
  "EchoTrainLength": 58,
  "EffectiveEchoSpacing": 0.000580542,
  "FlipAngle": 62,
  "ImageOrientationPatientDICOM": [0.996823, 0.0489421, 0.0628313, -0.0403851, 0.990574, -0.130889],
  "ImageType": [
    "ORIGINAL",
    "PRIMARY",
    "M",
    "ND",
    "MOSAIC"
],
  "ImagingFrequency": 123.259,
  "InPlanePhaseEncodingDirectionDICOM": "COL",
  "InstitutionAddress": "West 130th Street 610,NY,NYC,US,10025",
  "InstitutionName": "MBBI",
  "MRAcquisitionType": "2D",
  "MagneticFieldStrength": 3,
  "Manufacturer": "Siemens",
  "ManufacturersModelName": "Prisma",
  "Modality": "MR",
  "MultibandAccelerationFactor": 3,
  "PartialFourier": 0.75,
  "PatientPosition": "HFS",
  "PercentPhaseFOV": 100,
  "PercentSampling": 75,
  "PhaseEncodingDirection": "j-",
  "PhaseEncodingSteps": 58,
  "PhaseOversampling": 0.05,
  "PhaseResolution": 0.75,
  "PixelBandwidth": 2265,
  "ProcedureStepDescription": "White^Word_recognition",
  "ProtocolName": "func_catLoc_run4",
  "PulseSequenceDetails": "%SiemensSeq%\\ep2d_bold",
  "ReceiveCoilActiveElements": "HC1-7",
  "ReceiveCoilName": "HeadNeck_64",
  "ReconMatrixPE": 96,
  "RefLinesPE": 40,
  "RepetitionTime": 1.5,
  "SAR": 0.0632139,
  "ScanOptions": "PFP\\FS",
  "ScanningSequence": "EP",
  "SequenceName": "*epfid2d1_72",
  "SequenceVariant": "SK\\OSP",
  "SeriesDescription": "func_catLoc_run4",
  "SeriesNumber": 13,
  "ShimSetting": [-1122, -1342, 673, 504, -190, 1, -51, 32],
  "SliceThickness": 2,
  "SliceTiming": [1.075, 0, 0.74, 0.0675, 0.8075, 0.135, 0.875, 0.2025, 0.94, 0.2675, 1.0075, 0.4025, 1.1425, 0.47, 1.21, 0.5375, 1.2775, 0.605, 1.345, 0.6725, 1.4125, 0.335, 1.075, 0, 0.74, 0.0675, 0.8075, 0.135, 0.875, 0.2025, 0.94, 0.2675, 1.0075, 0.4025, 1.1425, 0.47, 1.21, 0.5375, 1.2775, 0.605, 1.345, 0.6725, 1.4125, 0.335, 1.075, 0, 0.74, 0.0675, 0.8075, 0.135, 0.875, 0.2025, 0.94, 0.2675, 1.0075, 0.4025, 1.1425, 0.47, 1.21, 0.5375, 1.2775, 0.605, 1.345, 0.6725, 1.4125, 0.335],
  "SoftwareVersions": "syngo MR E11",
  "SpacingBetweenSlices": 2,
  "StationName": "AWP166011",
  "TaskName": "catLoc",
  "TotalReadoutTime": 0.0551515,
  "TxRefAmp": 250.964,
  "dcmmeta_affine": [
    [-1.9936468601226807, -0.08077023178339005, 0.13729004561901093, 98.65967559814453],
    [-0.09788412600755692, 1.981148362159729, -0.2558711767196655, -66.69641876220703],
    [0.12566258013248444, 0.2617776393890381, 1.978808045387268, -77.89418029785156],
    [0.0, 0.0, 0.0, 1.0]
],
  "dcmmeta_reorient_transform": [
    [0.0, -1.0, 0.0, 95.0],
    [1.0, 0.0, 0.0, 0.0],
    [0.0, 0.0, 1.0, 0.0],
    [0.0, 0.0, 0.0, 1.0]
],
  "dcmmeta_shape": [96, 96, 66, 214],
  "dcmmeta_slice_dim": 2,
  "dcmmeta_version": 0.6,
  "global": {
    "const": {
      "AcquisitionMatrix": [96, 0, 0, 72],
      "AngioFlag": "N",
      "BitsAllocated": 16,
      "BitsStored": 12,
      "BodyPartExamined": "BRAIN",
      "Columns": 864,
      "EchoNumbers": 1,
      "EchoTime": 30.0,
      "EchoTrainLength": 58,
      "FlipAngle": 62.0,
      "HighBit": 11,
      "ImageOrientationPatient": [0.99682340614473, 0.04894206257144, 0.06283129374186, -0.0403851156916, 0.99057415661064, -0.1308888180316],
      "ImagePositionPatient": [-825.53110803469, -919.8611238622, -0.7571254602143],
      "ImageType": [
        "ORIGINAL",
        "PRIMARY",
        "M",
        "ND",
        "MOSAIC"
],
      "ImagedNucleus": "1H",
      "ImagingFrequency": 123.259469,
      "InPlanePhaseEncodingDirection": "COL",
      "MRAcquisitionType": "2D",
      "MagneticFieldStrength": 3.0,
      "Manufacturer": "SIEMENS",
      "ManufacturerModelName": "Prisma",
      "Modality": "MR",
      "NumberOfAverages": 1.0,
      "NumberOfPhaseEncodingSteps": 58,
      "PercentPhaseFieldOfView": 100.0,
      "PercentSampling": 75.0,
      "PerformedProcedureStepStartTime": "145909.525000",
      "PhotometricInterpretation": "MONOCHROME2",
      "PixelBandwidth": 2265.0,
      "PixelRepresentation": 0,
      "PixelSpacing": [2.0, 2.0],
      "ProtocolName": "func_catLoc_run4",
      "RepetitionTime": 1500.0,
      "Rows": 864,
      "SAR": 0.06321388605407,
      "SamplesPerPixel": 1,
      "ScanOptions": [
        "PFP",
        "FS"
],
      "ScanningSequence": "EP",
      "SequenceName": "*epfid2d1_72",
      "SequenceVariant": [
        "SK",
        "OSP"
],
      "SeriesDescription": "func_catLoc_run4",
      "SeriesNumber": 13,
      "SeriesTime": "155513.157000",
      "SliceLocation": -61.763473906594,
      "SliceThickness": 2.0,
      "SmallestImagePixelValue": 0,
      "SoftwareVersions": "syngo MR E11",
      "SpacingBetweenSlices": 1.9999999956375,
      "SpecificCharacterSet": "ISO_IR 100",
      "StudyID": "2",
      "StudyTime": "145909.474000",
      "TransmitCoilName": "Body",
      "VariableFlipAngleFlag": "N",
      "WindowCenterWidthExplanation": "Algo1",
      "dBdt": 0.0},
    "slices": {}
  },
  "time": {
    "samples": {
      "AcquisitionNumber": [1, 2, 3, 4, 5, 6, 7, 8, 9, 10, 11, 12, 13, 14, 15, 16, 17, 18, 19, 20, 21, 22, 23, 24, 25, 26, 27, 28, 29, 30, 31, 32, 33, 34, 35, 36, 37, 38, 39, 40, 41, 42, 43, 44, 45, 46, 47, 48, 49, 50, 51, 52, 53, 54, 55, 56, 57, 58, 59, 60, 61, 62, 63, 64, 65, 66, 67, 68, 69, 70, 71, 72, 73, 74, 75, 76, 77, 78, 79, 80, 81, 82, 83, 84, 85, 86, 87, 88, 89, 90, 91, 92, 93, 94, 95, 96, 97, 98, 99, 100, 101, 102, 103, 104, 105, 106, 107, 108, 109, 110, 111, 112, 113, 114, 115, 116, 117, 118, 119, 120, 121, 122, 123, 124, 125, 126, 127, 128, 129, 130, 131, 132, 133, 134, 135, 136, 137, 138, 139, 140, 141, 142, 143, 144, 145, 146, 147, 148, 149, 150, 151, 152, 153, 154, 155, 156, 157, 158, 159, 160, 161, 162, 163, 164, 165, 166, 167, 168, 169, 170, 171, 172, 173, 174, 175, 176, 177, 178, 179, 180, 181, 182, 183, 184, 185, 186, 187, 188, 189, 190, 191, 192, 193, 194, 195, 196, 197, 198, 199, 200, 201, 202, 203, 204, 205, 206, 207, 208, 209, 210, 211, 212, 213, 214],
      "AcquisitionTime": ["155433.370000", "155434.870000", "155436.370000", "155437.870000", "155439.370000", "155440.870000", "155442.370000", "155443.870000", "155445.370000", "155446.870000", "155448.370000", "155449.870000", "155451.370000", "155452.870000", "155454.370000", "155455.870000", "155457.370000", "155458.870000", "155500.370000", "155501.870000", "155503.370000", "155504.870000", "155506.370000", "155507.870000", "155509.370000", "155510.870000", "155512.370000", "155513.870000", "155515.370000", "155516.870000", "155518.370000", "155519.870000", "155521.370000", "155522.870000", "155524.370000", "155525.870000", "155527.370000", "155528.870000", "155530.370000", "155531.870000", "155533.370000", "155534.870000", "155536.370000", "155537.870000", "155539.370000", "155540.870000", "155542.370000", "155543.870000", "155545.370000", "155546.870000", "155548.370000", "155549.870000", "155551.370000", "155552.870000", "155554.370000", "155555.870000", "155557.370000", "155558.870000", "155600.370000", "155601.870000", "155603.370000", "155604.870000", "155606.370000", "155607.870000", "155609.370000", "155610.870000", "155612.370000", "155613.870000", "155615.370000", "155616.870000", "155618.370000", "155619.870000", "155621.370000", "155622.870000", "155624.370000", "155625.870000", "155627.370000", "155628.870000", "155630.370000", "155631.870000", "155633.370000", "155634.870000", "155636.370000", "155637.870000", "155639.370000", "155640.870000", "155642.370000", "155643.870000", "155645.370000", "155646.870000", "155648.370000", "155649.870000", "155651.370000", "155652.870000", "155654.370000", "155655.870000", "155657.370000", "155658.870000", "155700.370000", "155701.870000", "155703.370000", "155704.870000", "155706.370000", "155707.870000", "155709.370000", "155710.870000", "155712.370000", "155713.870000", "155715.370000", "155716.870000", "155718.370000", "155719.870000", "155721.370000", "155722.870000", "155724.370000", "155725.870000", "155727.370000", "155728.870000", "155730.370000", "155731.870000", "155733.370000", "155734.870000", "155736.370000", "155737.870000", "155739.370000", "155740.870000", "155742.370000", "155743.870000", "155745.370000", "155746.870000", "155748.370000", "155749.870000", "155751.370000", "155752.870000", "155754.370000", "155755.870000", "155757.370000", "155758.870000", "155800.370000", "155801.870000", "155803.370000", "155804.870000", "155806.370000", "155807.870000", "155809.370000", "155810.870000", "155812.370000", "155813.870000", "155815.370000", "155816.870000", "155818.370000", "155819.870000", "155821.370000", "155822.870000", "155824.370000", "155825.870000", "155827.370000", "155828.870000", "155830.370000", "155831.870000", "155833.370000", "155834.870000", "155836.370000", "155837.870000", "155839.370000", "155840.870000", "155842.370000", "155843.870000", "155845.370000", "155846.870000", "155848.370000", "155849.870000", "155851.370000", "155852.870000", "155854.370000", "155855.870000", "155857.370000", "155858.870000", "155900.370000", "155901.870000", "155903.370000", "155904.870000", "155906.370000", "155907.870000", "155909.370000", "155910.870000", "155912.370000", "155913.870000", "155915.370000", "155916.870000", "155918.370000", "155919.870000", "155921.370000", "155922.870000", "155924.370000", "155925.870000", "155927.370000", "155928.870000", "155930.370000", "155931.870000", "155933.370000", "155934.870000", "155936.370000", "155937.870000", "155939.370000", "155940.870000", "155942.370000", "155943.870000", "155945.370000", "155946.870000", "155948.370000", "155949.870000", "155951.370000", "155952.870000"],
      "ContentTime": ["155513.161000", "155513.165000", "155513.168000", "155513.177000", "155513.180000", "155513.183000", "155513.192000", "155513.195000", "155513.198000", "155513.201000", "155513.204000", "155513.207000", "155513.217000", "155513.220000", "155513.223000", "155513.227000", "155513.230000", "155513.233000", "155513.236000", "155513.239000", "155513.242000", "155513.245000", "155513.248000", "155513.251000", "155513.255000", "155513.258000", "155553.141000", "155553.144000", "155553.148000", "155553.151000", "155553.154000", "155553.157000", "155553.160000", "155553.163000", "155553.166000", "155553.169000", "155553.172000", "155553.175000", "155553.178000", "155553.181000", "155553.185000", "155553.188000", "155553.191000", "155553.194000", "155553.197000", "155553.200000", "155553.203000", "155553.206000", "155553.209000", "155553.217000", "155553.220000", "155553.223000", "155553.226000", "155633.142000", "155633.145000", "155633.148000", "155633.151000", "155633.154000", "155633.158000", "155633.161000", "155633.164000", "155633.167000", "155633.170000", "155633.173000", "155633.176000", "155633.179000", "155633.182000", "155633.185000", "155633.189000", "155633.192000", "155633.195000", "155633.198000", "155633.201000", "155633.204000", "155633.207000", "155633.210000", "155633.213000", "155633.216000", "155633.219000", "155713.142000", "155713.145000", "155713.148000", "155713.152000", "155713.155000", "155713.158000", "155713.161000", "155713.164000", "155713.167000", "155713.170000", "155713.173000", "155713.176000", "155713.179000", "155713.183000", "155713.186000", "155713.189000", "155713.192000", "155713.195000", "155713.198000", "155713.201000", "155713.204000", "155713.207000", "155713.210000", "155713.213000", "155713.216000", "155713.219000", "155713.222000", "155753.141000", "155753.144000", "155753.148000", "155753.151000", "155753.154000", "155753.157000", "155753.160000", "155753.163000", "155753.166000", "155753.169000", "155753.172000", "155753.175000", "155753.178000", "155753.181000", "155753.185000", "155753.188000", "155753.191000", "155753.194000", "155753.197000", "155753.200000", "155753.203000", "155753.206000", "155753.209000", "155753.212000", "155753.215000", "155753.219000", "155753.222000", "155833.141000", "155833.144000", "155833.147000", "155833.151000", "155833.154000", "155833.157000", "155833.160000", "155833.163000", "155833.166000", "155833.169000", "155833.172000", "155833.176000", "155833.179000", "155833.182000", "155833.185000", "155833.188000", "155833.191000", "155833.194000", "155833.197000", "155833.201000", "155833.204000", "155833.207000", "155833.210000", "155833.213000", "155833.216000", "155833.219000", "155913.142000", "155913.145000", "155913.148000", "155913.152000", "155913.155000", "155913.158000", "155913.161000", "155913.164000", "155913.167000", "155913.170000", "155913.173000", "155913.177000", "155913.180000", "155913.183000", "155913.186000", "155913.198000", "155913.201000", "155913.204000", "155913.207000", "155913.210000", "155913.213000", "155913.216000", "155913.219000", "155913.222000", "155913.225000", "155913.228000", "155913.232000", "155953.142000", "155953.145000", "155953.149000", "155953.152000", "155953.155000", "155953.158000", "155953.161000", "155953.164000", "155953.167000", "155953.170000", "155953.174000", "155953.177000", "155953.180000", "155953.183000", "155953.186000", "155953.189000", "155953.192000", "155953.195000", "155953.198000", "155953.201000", "155953.205000", "155953.208000", "155953.211000", "155953.214000", "155953.217000", "155953.220000", "155953.224000", "155954.347000"],
      "InstanceCreationTime": ["155513.161000", "155513.165000", "155513.168000", "155513.177000", "155513.180000", "155513.183000", "155513.192000", "155513.195000", "155513.198000", "155513.201000", "155513.204000", "155513.207000", "155513.217000", "155513.220000", "155513.223000", "155513.227000", "155513.230000", "155513.233000", "155513.236000", "155513.239000", "155513.242000", "155513.245000", "155513.248000", "155513.251000", "155513.255000", "155513.258000", "155553.141000", "155553.144000", "155553.148000", "155553.151000", "155553.154000", "155553.157000", "155553.160000", "155553.163000", "155553.166000", "155553.169000", "155553.172000", "155553.175000", "155553.178000", "155553.181000", "155553.185000", "155553.188000", "155553.191000", "155553.194000", "155553.197000", "155553.200000", "155553.203000", "155553.206000", "155553.209000", "155553.217000", "155553.220000", "155553.223000", "155553.226000", "155633.142000", "155633.145000", "155633.148000", "155633.151000", "155633.154000", "155633.158000", "155633.161000", "155633.164000", "155633.167000", "155633.170000", "155633.173000", "155633.176000", "155633.179000", "155633.182000", "155633.185000", "155633.189000", "155633.192000", "155633.195000", "155633.198000", "155633.201000", "155633.204000", "155633.207000", "155633.210000", "155633.213000", "155633.216000", "155633.219000", "155713.142000", "155713.145000", "155713.148000", "155713.152000", "155713.155000", "155713.158000", "155713.161000", "155713.164000", "155713.167000", "155713.170000", "155713.173000", "155713.176000", "155713.179000", "155713.183000", "155713.186000", "155713.189000", "155713.192000", "155713.195000", "155713.198000", "155713.201000", "155713.204000", "155713.207000", "155713.210000", "155713.213000", "155713.216000", "155713.219000", "155713.222000", "155753.141000", "155753.144000", "155753.148000", "155753.151000", "155753.154000", "155753.157000", "155753.160000", "155753.163000", "155753.166000", "155753.169000", "155753.172000", "155753.175000", "155753.178000", "155753.181000", "155753.185000", "155753.188000", "155753.191000", "155753.194000", "155753.197000", "155753.200000", "155753.203000", "155753.206000", "155753.209000", "155753.212000", "155753.215000", "155753.219000", "155753.222000", "155833.141000", "155833.144000", "155833.147000", "155833.151000", "155833.154000", "155833.157000", "155833.160000", "155833.163000", "155833.166000", "155833.169000", "155833.172000", "155833.176000", "155833.179000", "155833.182000", "155833.185000", "155833.188000", "155833.191000", "155833.194000", "155833.197000", "155833.201000", "155833.204000", "155833.207000", "155833.210000", "155833.213000", "155833.216000", "155833.219000", "155913.142000", "155913.145000", "155913.148000", "155913.152000", "155913.155000", "155913.158000", "155913.161000", "155913.164000", "155913.167000", "155913.170000", "155913.173000", "155913.177000", "155913.180000", "155913.183000", "155913.186000", "155913.198000", "155913.201000", "155913.204000", "155913.207000", "155913.210000", "155913.213000", "155913.216000", "155913.219000", "155913.222000", "155913.225000", "155913.228000", "155913.232000", "155953.142000", "155953.145000", "155953.149000", "155953.152000", "155953.155000", "155953.158000", "155953.161000", "155953.164000", "155953.167000", "155953.170000", "155953.174000", "155953.177000", "155953.180000", "155953.183000", "155953.186000", "155953.189000", "155953.192000", "155953.195000", "155953.198000", "155953.201000", "155953.205000", "155953.208000", "155953.211000", "155953.214000", "155953.217000", "155953.220000", "155953.224000", "155954.347000"],
      "InstanceNumber": [1, 2, 3, 4, 5, 6, 7, 8, 9, 10, 11, 12, 13, 14, 15, 16, 17, 18, 19, 20, 21, 22, 23, 24, 25, 26, 27, 28, 29, 30, 31, 32, 33, 34, 35, 36, 37, 38, 39, 40, 41, 42, 43, 44, 45, 46, 47, 48, 49, 50, 51, 52, 53, 54, 55, 56, 57, 58, 59, 60, 61, 62, 63, 64, 65, 66, 67, 68, 69, 70, 71, 72, 73, 74, 75, 76, 77, 78, 79, 80, 81, 82, 83, 84, 85, 86, 87, 88, 89, 90, 91, 92, 93, 94, 95, 96, 97, 98, 99, 100, 101, 102, 103, 104, 105, 106, 107, 108, 109, 110, 111, 112, 113, 114, 115, 116, 117, 118, 119, 120, 121, 122, 123, 124, 125, 126, 127, 128, 129, 130, 131, 132, 133, 134, 135, 136, 137, 138, 139, 140, 141, 142, 143, 144, 145, 146, 147, 148, 149, 150, 151, 152, 153, 154, 155, 156, 157, 158, 159, 160, 161, 162, 163, 164, 165, 166, 167, 168, 169, 170, 171, 172, 173, 174, 175, 176, 177, 178, 179, 180, 181, 182, 183, 184, 185, 186, 187, 188, 189, 190, 191, 192, 193, 194, 195, 196, 197, 198, 199, 200, 201, 202, 203, 204, 205, 206, 207, 208, 209, 210, 211, 212, 213, 214],
      "LargestImagePixelValue": [2942, 2813, 2865, 2808, 2817, 2773, 2754, 2792, 2788, 2703, 2786, 2724, 2720, 2744, 2741, 2725, 2784, 2750, 2732, 2760, 2702, 2831, 2721, 2736, 2760, 2755, 2739, 2768, 2750, 2754, 2743, 2763, 2730, 2753, 2732, 2737, 2749, 2731, 2770, 2772, 2735, 2763, 2750, 2758, 2756, 2743, 2751, 2759, 2749, 2770, 2770, 2736, 2702, 2688, 2702, 2664, 2689, 2684, 2713, 2681, 2683, 2689, 2673, 2690, 2669, 2657, 2722, 2689, 2691, 2686, 2674, 2726, 2695, 2679, 2771, 2729, 2727, 2748, 2713, 2677, 2714, 2721, 2699, 2682, 2710, 2788, 2776, 2757, 2737, 2785, 2800, 2789, 2813, 2851, 2828, 2795, 2793, 2848, 2820, 2812, 2803, 2807, 2803, 2803, 2847, 2806, 2851, 2803, 2878, 2834, 2812, 2800, 2875, 2816, 2805, 2828, 2819, 2795, 2791, 2840, 2816, 2825, 2817, 2820, 2831, 2802, 2814, 2828, 2808, 2797, 2823, 2788, 2799, 2824, 2795, 2773, 2801, 2815, 2779, 2822, 2820, 2806, 2810, 2840, 2803, 2782, 2799, 2768, 2759, 2767, 2800, 2781, 2785, 2792, 2759, 2800, 2753, 2770, 2796, 2796, 2769, 2765, 2809, 2743, 2766, 2763, 2827, 2784, 2806, 2888, 2863, 2826, 2811, 2790, 2769, 2774, 2766, 2747, 2752, 2769, 2747, 2764, 2794, 2781, 2782, 2777, 2772, 2777, 2761, 2791, 2758, 2749, 2738, 2769, 2770, 2761, 2738, 2726, 2731, 2720, 2747, 2745, 2755, 2845, 2782, 2778, 2791, 2806, 2750, 2761, 2813, 2777, 2779, 2731],
      "WindowCenter": [716.0, 714.0, 714.0, 713.0, 713.0, 712.0, 712.0, 713.0, 714.0, 713.0, 714.0, 713.0, 712.0, 712.0, 713.0, 714.0, 715.0, 713.0, 712.0, 712.0, 712.0, 713.0, 712.0, 712.0, 711.0, 712.0, 712.0, 712.0, 713.0, 713.0, 713.0, 714.0, 715.0, 714.0, 713.0, 714.0, 714.0, 714.0, 714.0, 714.0, 713.0, 715.0, 716.0, 716.0, 715.0, 714.0, 713.0, 713.0, 713.0, 714.0, 714.0, 714.0, 713.0, 710.0, 711.0, 710.0, 711.0, 713.0, 714.0, 714.0, 712.0, 710.0, 710.0, 711.0, 711.0, 711.0, 711.0, 711.0, 712.0, 712.0, 713.0, 713.0, 713.0, 713.0, 713.0, 713.0, 713.0, 714.0, 714.0, 714.0, 715.0, 715.0, 714.0, 709.0, 713.0, 713.0, 713.0, 712.0, 712.0, 712.0, 713.0, 713.0, 713.0, 714.0, 714.0, 713.0, 713.0, 714.0, 714.0, 713.0, 713.0, 712.0, 712.0, 712.0, 713.0, 713.0, 713.0, 714.0, 715.0, 713.0, 712.0, 711.0, 713.0, 715.0, 715.0, 714.0, 713.0, 712.0, 712.0, 713.0, 713.0, 713.0, 712.0, 712.0, 713.0, 713.0, 713.0, 713.0, 713.0, 713.0, 713.0, 712.0, 712.0, 712.0, 713.0, 713.0, 712.0, 712.0, 712.0, 712.0, 713.0, 712.0, 713.0, 713.0, 713.0, 713.0, 712.0, 712.0, 711.0, 712.0, 713.0, 713.0, 713.0, 713.0, 712.0, 713.0, 712.0, 712.0, 712.0, 712.0, 713.0, 713.0, 712.0, 711.0, 712.0, 712.0, 712.0, 713.0, 713.0, 714.0, 712.0, 711.0, 711.0, 712.0, 712.0, 712.0, 711.0, 709.0, 708.0, 708.0, 710.0, 711.0, 712.0, 712.0, 712.0, 712.0, 711.0, 712.0, 711.0, 712.0, 712.0, 711.0, 711.0, 711.0, 711.0, 712.0, 711.0, 711.0, 712.0, 711.0, 711.0, 712.0, 712.0, 713.0, 713.0, 713.0, 713.0, 712.0, 712.0, 712.0, 712.0, 711.0, 711.0, 710.0],
      "WindowWidth": [1547.0, 1541.0, 1540.0, 1539.0, 1538.0, 1535.0, 1535.0, 1538.0, 1539.0, 1538.0, 1540.0, 1537.0, 1535.0, 1535.0, 1537.0, 1539.0, 1541.0, 1537.0, 1535.0, 1533.0, 1533.0, 1536.0, 1533.0, 1534.0, 1532.0, 1533.0, 1533.0, 1535.0, 1536.0, 1536.0, 1538.0, 1539.0, 1541.0, 1539.0, 1537.0, 1538.0, 1540.0, 1540.0, 1538.0, 1538.0, 1537.0, 1541.0, 1544.0, 1544.0, 1542.0, 1540.0, 1538.0, 1538.0, 1538.0, 1540.0, 1541.0, 1539.0, 1538.0, 1529.0, 1531.0, 1529.0, 1532.0, 1536.0, 1540.0, 1539.0, 1534.0, 1529.0, 1530.0, 1532.0, 1533.0, 1532.0, 1533.0, 1532.0, 1533.0, 1535.0, 1537.0, 1537.0, 1536.0, 1537.0, 1538.0, 1537.0, 1538.0, 1539.0, 1539.0, 1540.0, 1541.0, 1541.0, 1539.0, 1528.0, 1537.0, 1536.0, 1536.0, 1534.0, 1534.0, 1534.0, 1536.0, 1536.0, 1537.0, 1540.0, 1539.0, 1537.0, 1538.0, 1539.0, 1539.0, 1537.0, 1536.0, 1535.0, 1534.0, 1535.0, 1537.0, 1537.0, 1537.0, 1538.0, 1540.0, 1536.0, 1533.0, 1532.0, 1536.0, 1541.0, 1541.0, 1539.0, 1535.0, 1534.0, 1534.0, 1535.0, 1536.0, 1536.0, 1535.0, 1535.0, 1536.0, 1537.0, 1535.0, 1535.0, 1535.0, 1536.0, 1536.0, 1534.0, 1533.0, 1534.0, 1537.0, 1536.0, 1534.0, 1533.0, 1533.0, 1535.0, 1535.0, 1534.0, 1535.0, 1536.0, 1536.0, 1535.0, 1535.0, 1533.0, 1532.0, 1533.0, 1535.0, 1536.0, 1535.0, 1535.0, 1534.0, 1536.0, 1534.0, 1533.0, 1533.0, 1534.0, 1535.0, 1535.0, 1534.0, 1532.0, 1532.0, 1534.0, 1533.0, 1535.0, 1537.0, 1539.0, 1533.0, 1532.0, 1531.0, 1534.0, 1534.0, 1533.0, 1531.0, 1526.0, 1524.0, 1524.0, 1527.0, 1531.0, 1533.0, 1533.0, 1533.0, 1533.0, 1531.0, 1532.0, 1532.0, 1533.0, 1532.0, 1532.0, 1532.0, 1531.0, 1532.0, 1532.0, 1531.0, 1532.0, 1532.0, 1531.0, 1532.0, 1533.0, 1534.0, 1536.0, 1537.0, 1537.0, 1536.0, 1534.0, 1532.0, 1533.0, 1533.0, 1530.0, 1530.0, 1529.0]
    },
    "slices": {}
  }
}