{
  "AcquisitionMatrixPE": 72,
  "AcquisitionNumber": 1,
  "AcquisitionTime": "15:43:23.737500",
  "BandwidthPerPixelPhaseEncode": 17.943,
  "BaseResolution": 96,
  "BodyPartExamined": "BRAIN",
  "CoilCombinationMethod": "Sum of Squares",
  "ConsistencyInfo": "N4_VE11C_LATEST_20160120",
  "ConversionSoftware": "dcm2niix",
  "ConversionSoftwareVersion": "v1.0.20211006",
  "DerivedVendorReportedEchoSpacing": 0.000552897,
  "DeviceSerialNumber": "166011",
  "EchoTime": 0.03,
  "EchoTrainLength": 58,
  "EffectiveEchoSpacing": 0.000580542,
  "FlipAngle": 62,
  "ImageOrientationPatientDICOM": [0.996823, 0.0489421, 0.0628313, -0.0403851, 0.990574, -0.130889],
  "ImageType": [
    "ORIGINAL",
    "PRIMARY",
    "M",
    "ND",
    "MOSAIC"
],
  "ImagingFrequency": 123.259,
  "InPlanePhaseEncodingDirectionDICOM": "COL",
  "InstitutionAddress": "West 130th Street 610,NY,NYC,US,10025",
  "InstitutionName": "MBBI",
  "MRAcquisitionType": "2D",
  "MagneticFieldStrength": 3,
  "Manufacturer": "Siemens",
  "ManufacturersModelName": "Prisma",
  "Modality": "MR",
  "MultibandAccelerationFactor": 3,
  "PartialFourier": 0.75,
  "PatientPosition": "HFS",
  "PercentPhaseFOV": 100,
  "PercentSampling": 75,
  "PhaseEncodingDirection": "j-",
  "PhaseEncodingSteps": 58,
  "PhaseOversampling": 0.05,
  "PhaseResolution": 0.75,
  "PixelBandwidth": 2265,
  "ProcedureStepDescription": "White^Word_recognition",
  "ProtocolName": "func_vwfate_run9",
  "PulseSequenceDetails": "%SiemensSeq%\\ep2d_bold",
  "ReceiveCoilActiveElements": "HC1-7",
  "ReceiveCoilName": "HeadNeck_64",
  "ReconMatrixPE": 96,
  "RefLinesPE": 40,
  "RepetitionTime": 1.5,
  "SAR": 0.0630167,
  "ScanOptions": "PFP\\FS",
  "ScanningSequence": "EP",
  "SequenceName": "*epfid2d1_72",
  "SequenceVariant": "SK\\OSP",
  "SeriesDescription": "func_vwfate_run9",
  "SeriesNumber": 11,
  "ShimSetting": [-1122, -1342, 673, 504, -190, 1, -51, 32],
  "SliceThickness": 2,
  "SliceTiming": [1.0775, 0, 0.74, 0.0675, 0.8075, 0.135, 0.875, 0.2025, 0.9425, 0.27, 1.01, 0.405, 1.145, 0.47, 1.21, 0.5375, 1.2775, 0.605, 1.345, 0.6725, 1.4125, 0.3375, 1.0775, 0, 0.74, 0.0675, 0.8075, 0.135, 0.875, 0.2025, 0.9425, 0.27, 1.01, 0.405, 1.145, 0.47, 1.21, 0.5375, 1.2775, 0.605, 1.345, 0.6725, 1.4125, 0.3375, 1.0775, 0, 0.74, 0.0675, 0.8075, 0.135, 0.875, 0.2025, 0.9425, 0.27, 1.01, 0.405, 1.145, 0.47, 1.21, 0.5375, 1.2775, 0.605, 1.345, 0.6725, 1.4125, 0.3375],
  "SoftwareVersions": "syngo MR E11",
  "SpacingBetweenSlices": 2,
  "StationName": "AWP166011",
  "TaskName": "vwfate",
  "TotalReadoutTime": 0.0551515,
  "TxRefAmp": 250.964,
  "dcmmeta_affine": [
    [-1.9936468601226807, -0.08077023178339005, 0.13729004561901093, 98.65967559814453],
    [-0.09788412600755692, 1.981148362159729, -0.2558711767196655, -66.69641876220703],
    [0.12566258013248444, 0.2617776393890381, 1.978808045387268, -77.89418029785156],
    [0.0, 0.0, 0.0, 1.0]
],
  "dcmmeta_reorient_transform": [
    [0.0, -1.0, 0.0, 95.0],
    [1.0, 0.0, 0.0, 0.0],
    [0.0, 0.0, 1.0, 0.0],
    [0.0, 0.0, 0.0, 1.0]
],
  "dcmmeta_shape": [96, 96, 66, 164],
  "dcmmeta_slice_dim": 2,
  "dcmmeta_version": 0.6,
  "global": {
    "const": {
      "AcquisitionMatrix": [96, 0, 0, 72],
      "AngioFlag": "N",
      "BitsAllocated": 16,
      "BitsStored": 12,
      "BodyPartExamined": "BRAIN",
      "Columns": 864,
      "EchoNumbers": 1,
      "EchoTime": 30.0,
      "EchoTrainLength": 58,
      "FlipAngle": 62.0,
      "HighBit": 11,
      "ImageOrientationPatient": [0.99682340614473, 0.04894206257144, 0.06283129374186, -0.0403851156916, 0.99057415661064, -0.1308888180316],
      "ImagePositionPatient": [-825.53110803469, -919.8611238622, -0.7571254602143],
      "ImageType": [
        "ORIGINAL",
        "PRIMARY",
        "M",
        "ND",
        "MOSAIC"
],
      "ImagedNucleus": "1H",
      "ImagingFrequency": 123.259466,
      "InPlanePhaseEncodingDirection": "COL",
      "MRAcquisitionType": "2D",
      "MagneticFieldStrength": 3.0,
      "Manufacturer": "SIEMENS",
      "ManufacturerModelName": "Prisma",
      "Modality": "MR",
      "NumberOfAverages": 1.0,
      "NumberOfPhaseEncodingSteps": 58,
      "PercentPhaseFieldOfView": 100.0,
      "PercentSampling": 75.0,
      "PerformedProcedureStepStartTime": "145909.525000",
      "PhotometricInterpretation": "MONOCHROME2",
      "PixelBandwidth": 2265.0,
      "PixelRepresentation": 0,
      "PixelSpacing": [2.0, 2.0],
      "ProtocolName": "func_vwfate_run9",
      "RepetitionTime": 1500.0,
      "Rows": 864,
      "SAR": 0.06301668418083,
      "SamplesPerPixel": 1,
      "ScanOptions": [
        "PFP",
        "FS"
],
      "ScanningSequence": "EP",
      "SequenceName": "*epfid2d1_72",
      "SequenceVariant": [
        "SK",
        "OSP"
],
      "SeriesDescription": "func_vwfate_run9",
      "SeriesNumber": 11,
      "SeriesTime": "154333.218000",
      "SliceLocation": -61.763473906594,
      "SliceThickness": 2.0,
      "SmallestImagePixelValue": 0,
      "SoftwareVersions": "syngo MR E11",
      "SpacingBetweenSlices": 1.9999999956375,
      "SpecificCharacterSet": "ISO_IR 100",
      "StudyID": "2",
      "StudyTime": "145909.474000",
      "TransmitCoilName": "Body",
      "VariableFlipAngleFlag": "N",
      "WindowCenterWidthExplanation": "Algo1",
      "dBdt": 0.0},
    "slices": {}
  },
  "time": {
    "samples": {
      "AcquisitionNumber": [1, 2, 3, 4, 5, 6, 7, 8, 9, 10, 11, 12, 13, 14, 15, 16, 17, 18, 19, 20, 21, 22, 23, 24, 25, 26, 27, 28, 29, 30, 31, 32, 33, 34, 35, 36, 37, 38, 39, 40, 41, 42, 43, 44, 45, 46, 47, 48, 49, 50, 51, 52, 53, 54, 55, 56, 57, 58, 59, 60, 61, 62, 63, 64, 65, 66, 67, 68, 69, 70, 71, 72, 73, 74, 75, 76, 77, 78, 79, 80, 81, 82, 83, 84, 85, 86, 87, 88, 89, 90, 91, 92, 93, 94, 95, 96, 97, 98, 99, 100, 101, 102, 103, 104, 105, 106, 107, 108, 109, 110, 111, 112, 113, 114, 115, 116, 117, 118, 119, 120, 121, 122, 123, 124, 125, 126, 127, 128, 129, 130, 131, 132, 133, 134, 135, 136, 137, 138, 139, 140, 141, 142, 143, 144, 145, 146, 147, 148, 149, 150, 151, 152, 153, 154, 155, 156, 157, 158, 159, 160, 161, 162, 163, 164],
      "AcquisitionTime": ["154323.737500", "154325.237500", "154326.737500", "154328.237500", "154329.737500", "154331.237500", "154332.737500", "154334.237500", "154335.737500", "154337.237500", "154338.737500", "154340.237500", "154341.737500", "154343.237500", "154344.737500", "154346.237500", "154347.737500", "154349.237500", "154350.737500", "154352.237500", "154353.737500", "154355.237500", "154356.737500", "154358.237500", "154359.737500", "154401.237500", "154402.737500", "154404.237500", "154405.737500", "154407.237500", "154408.737500", "154410.237500", "154411.737500", "154413.237500", "154414.737500", "154416.237500", "154417.737500", "154419.237500", "154420.737500", "154422.237500", "154423.737500", "154425.237500", "154426.737500", "154428.237500", "154429.737500", "154431.237500", "154432.737500", "154434.237500", "154435.737500", "154437.237500", "154438.737500", "154440.237500", "154441.737500", "154443.237500", "154444.737500", "154446.237500", "154447.737500", "154449.237500", "154450.737500", "154452.237500", "154453.737500", "154455.237500", "154456.737500", "154458.237500", "154459.737500", "154501.237500", "154502.737500", "154504.237500", "154505.737500", "154507.237500", "154508.737500", "154510.237500", "154511.737500", "154513.237500", "154514.737500", "154516.237500", "154517.737500", "154519.237500", "154520.737500", "154522.237500", "154523.737500", "154525.237500", "154526.737500", "154528.237500", "154529.737500", "154531.237500", "154532.737500", "154534.237500", "154535.737500", "154537.237500", "154538.737500", "154540.237500", "154541.737500", "154543.237500", "154544.737500", "154546.237500", "154547.737500", "154549.237500", "154550.737500", "154552.237500", "154553.737500", "154555.237500", "154556.737500", "154558.237500", "154559.737500", "154601.237500", "154602.737500", "154604.237500", "154605.737500", "154607.237500", "154608.737500", "154610.237500", "154611.737500", "154613.237500", "154614.737500", "154616.237500", "154617.737500", "154619.237500", "154620.737500", "154622.237500", "154623.737500", "154625.237500", "154626.737500", "154628.237500", "154629.737500", "154631.237500", "154632.737500", "154634.237500", "154635.737500", "154637.237500", "154638.737500", "154640.237500", "154641.737500", "154643.237500", "154644.737500", "154646.237500", "154647.737500", "154649.237500", "154650.737500", "154652.237500", "154653.737500", "154655.237500", "154656.737500", "154658.237500", "154659.737500", "154701.237500", "154702.737500", "154704.237500", "154705.737500", "154707.237500", "154708.737500", "154710.237500", "154711.737500", "154713.237500", "154714.737500", "154716.237500", "154717.737500", "154719.237500", "154720.737500", "154722.237500", "154723.737500", "154725.237500", "154726.737500", "154728.237500"],
      "ContentTime": ["154333.222000", "154333.233000", "154333.236000", "154333.239000", "154333.242000", "154333.245000", "154413.216000", "154413.219000", "154413.223000", "154413.227000", "154413.230000", "154413.233000", "154413.237000", "154413.240000", "154413.243000", "154413.246000", "154413.249000", "154413.252000", "154413.255000", "154413.258000", "154413.262000", "154413.265000", "154413.268000", "154413.271000", "154413.274000", "154413.277000", "154413.281000", "154413.284000", "154413.287000", "154413.290000", "154413.293000", "154413.296000", "154413.299000", "154453.217000", "154453.220000", "154453.223000", "154453.227000", "154453.230000", "154453.233000", "154453.236000", "154453.239000", "154453.242000", "154453.245000", "154453.248000", "154453.251000", "154453.254000", "154453.259000", "154453.262000", "154453.265000", "154453.268000", "154453.271000", "154453.274000", "154453.277000", "154453.288000", "154453.291000", "154453.294000", "154453.297000", "154453.300000", "154453.303000", "154533.217000", "154533.220000", "154533.223000", "154533.226000", "154533.229000", "154533.232000", "154533.235000", "154533.238000", "154533.241000", "154533.244000", "154533.247000", "154533.250000", "154533.254000", "154533.257000", "154533.260000", "154533.263000", "154533.266000", "154533.269000", "154533.272000", "154533.275000", "154533.278000", "154533.281000", "154533.284000", "154533.287000", "154533.290000", "154533.293000", "154533.296000", "154613.216000", "154613.219000", "154613.222000", "154613.225000", "154613.228000", "154613.231000", "154613.234000", "154613.238000", "154613.241000", "154613.244000", "154613.247000", "154613.250000", "154613.253000", "154613.256000", "154613.259000", "154613.262000", "154613.265000", "154613.268000", "154613.271000", "154613.274000", "154613.277000", "154613.280000", "154613.284000", "154613.287000", "154613.290000", "154613.293000", "154613.305000", "154653.216000", "154653.219000", "154653.222000", "154653.226000", "154653.229000", "154653.232000", "154653.235000", "154653.238000", "154653.241000", "154653.244000", "154653.247000", "154653.250000", "154653.254000", "154653.258000", "154653.261000", "154653.269000", "154653.272000", "154653.275000", "154653.278000", "154653.281000", "154653.284000", "154653.287000", "154653.290000", "154653.293000", "154653.296000", "154653.299000", "154729.517000", "154729.520000", "154729.524000", "154729.528000", "154729.531000", "154729.535000", "154729.539000", "154729.542000", "154729.546000", "154729.549000", "154729.553000", "154729.556000", "154729.559000", "154729.563000", "154729.566000", "154729.569000", "154729.572000", "154729.576000", "154729.579000", "154729.582000", "154729.586000", "154729.590000", "154729.593000", "154729.597000", "154729.600000"],
      "InstanceCreationTime": ["154333.222000", "154333.233000", "154333.236000", "154333.239000", "154333.242000", "154333.245000", "154413.216000", "154413.219000", "154413.223000", "154413.227000", "154413.230000", "154413.233000", "154413.237000", "154413.240000", "154413.243000", "154413.246000", "154413.249000", "154413.252000", "154413.255000", "154413.258000", "154413.262000", "154413.265000", "154413.268000", "154413.271000", "154413.274000", "154413.277000", "154413.281000", "154413.284000", "154413.287000", "154413.290000", "154413.293000", "154413.296000", "154413.299000", "154453.217000", "154453.220000", "154453.223000", "154453.227000", "154453.230000", "154453.233000", "154453.236000", "154453.239000", "154453.242000", "154453.245000", "154453.248000", "154453.251000", "154453.254000", "154453.259000", "154453.262000", "154453.265000", "154453.268000", "154453.271000", "154453.274000", "154453.277000", "154453.288000", "154453.291000", "154453.294000", "154453.297000", "154453.300000", "154453.303000", "154533.217000", "154533.220000", "154533.223000", "154533.226000", "154533.229000", "154533.232000", "154533.235000", "154533.238000", "154533.241000", "154533.244000", "154533.247000", "154533.250000", "154533.254000", "154533.257000", "154533.260000", "154533.263000", "154533.266000", "154533.269000", "154533.272000", "154533.275000", "154533.278000", "154533.281000", "154533.284000", "154533.287000", "154533.290000", "154533.293000", "154533.296000", "154613.216000", "154613.219000", "154613.222000", "154613.225000", "154613.228000", "154613.231000", "154613.234000", "154613.238000", "154613.241000", "154613.244000", "154613.247000", "154613.250000", "154613.253000", "154613.256000", "154613.259000", "154613.262000", "154613.265000", "154613.268000", "154613.271000", "154613.274000", "154613.277000", "154613.280000", "154613.284000", "154613.287000", "154613.290000", "154613.293000", "154613.305000", "154653.216000", "154653.219000", "154653.222000", "154653.226000", "154653.229000", "154653.232000", "154653.235000", "154653.238000", "154653.241000", "154653.244000", "154653.247000", "154653.250000", "154653.254000", "154653.258000", "154653.261000", "154653.269000", "154653.272000", "154653.275000", "154653.278000", "154653.281000", "154653.284000", "154653.287000", "154653.290000", "154653.293000", "154653.296000", "154653.299000", "154729.517000", "154729.520000", "154729.524000", "154729.528000", "154729.531000", "154729.535000", "154729.539000", "154729.542000", "154729.546000", "154729.549000", "154729.553000", "154729.556000", "154729.559000", "154729.563000", "154729.566000", "154729.569000", "154729.572000", "154729.576000", "154729.579000", "154729.582000", "154729.586000", "154729.590000", "154729.593000", "154729.597000", "154729.600000"],
      "InstanceNumber": [1, 2, 3, 4, 5, 6, 7, 8, 9, 10, 11, 12, 13, 14, 15, 16, 17, 18, 19, 20, 21, 22, 23, 24, 25, 26, 27, 28, 29, 30, 31, 32, 33, 34, 35, 36, 37, 38, 39, 40, 41, 42, 43, 44, 45, 46, 47, 48, 49, 50, 51, 52, 53, 54, 55, 56, 57, 58, 59, 60, 61, 62, 63, 64, 65, 66, 67, 68, 69, 70, 71, 72, 73, 74, 75, 76, 77, 78, 79, 80, 81, 82, 83, 84, 85, 86, 87, 88, 89, 90, 91, 92, 93, 94, 95, 96, 97, 98, 99, 100, 101, 102, 103, 104, 105, 106, 107, 108, 109, 110, 111, 112, 113, 114, 115, 116, 117, 118, 119, 120, 121, 122, 123, 124, 125, 126, 127, 128, 129, 130, 131, 132, 133, 134, 135, 136, 137, 138, 139, 140, 141, 142, 143, 144, 145, 146, 147, 148, 149, 150, 151, 152, 153, 154, 155, 156, 157, 158, 159, 160, 161, 162, 163, 164],
      "LargestImagePixelValue": [2997, 2897, 2851, 2873, 2854, 2822, 2813, 2824, 2837, 2805, 2831, 2807, 2810, 2849, 2807, 2836, 2796, 2852, 2818, 2880, 2843, 2819, 2829, 2804, 2816, 2812, 2774, 2786, 2805, 2771, 2799, 2770, 2767, 2789, 2789, 2780, 2779, 2762, 2800, 2758, 2764, 2792, 2774, 2789, 2764, 2771, 2777, 2781, 2771, 2767, 2873, 2868, 2780, 2774, 2797, 2776, 2781, 2779, 2785, 2807, 2756, 2786, 2763, 2784, 2766, 2762, 2749, 2744, 2723, 2724, 2686, 2820, 2769, 2725, 2728, 2734, 2684, 2714, 2729, 2742, 2736, 2787, 2707, 2694, 2693, 2703, 2730, 2663, 2658, 2711, 2789, 2724, 2701, 2687, 2700, 2693, 2740, 2736, 2699, 2640, 2663, 2657, 2735, 2681, 2737, 2666, 2675, 2726, 2647, 2684, 2712, 2630, 2673, 2664, 2641, 2621, 2707, 2671, 2677, 2720, 2685, 2709, 2704, 2736, 2733, 2668, 2718, 2698, 2666, 2702, 2652, 2682, 2687, 2675, 2673, 2691, 2664, 2712, 2707, 2662, 2653, 2672, 2688, 2696, 2686, 2662, 2723, 2655, 2699, 2651, 2675, 2754, 2715, 2906, 2862, 2855, 2846, 2860, 2830, 2818, 2799, 2831, 2859, 2826],
      "WindowCenter": [720.0, 720.0, 719.0, 719.0, 718.0, 716.0, 717.0, 717.0, 718.0, 718.0, 717.0, 717.0, 717.0, 717.0, 718.0, 718.0, 717.0, 716.0, 716.0, 717.0, 717.0, 717.0, 717.0, 717.0, 716.0, 716.0, 716.0, 716.0, 717.0, 717.0, 717.0, 717.0, 716.0, 716.0, 716.0, 717.0, 717.0, 716.0, 716.0, 717.0, 717.0, 717.0, 717.0, 717.0, 717.0, 718.0, 717.0, 717.0, 716.0, 716.0, 717.0, 717.0, 718.0, 716.0, 715.0, 715.0, 716.0, 716.0, 715.0, 715.0, 715.0, 714.0, 715.0, 715.0, 716.0, 717.0, 716.0, 716.0, 716.0, 715.0, 715.0, 714.0, 715.0, 714.0, 715.0, 715.0, 715.0, 715.0, 714.0, 714.0, 715.0, 715.0, 714.0, 714.0, 715.0, 715.0, 716.0, 715.0, 714.0, 714.0, 715.0, 715.0, 715.0, 714.0, 713.0, 714.0, 714.0, 714.0, 713.0, 713.0, 713.0, 714.0, 716.0, 716.0, 716.0, 714.0, 713.0, 712.0, 712.0, 714.0, 715.0, 714.0, 714.0, 714.0, 713.0, 714.0, 715.0, 715.0, 714.0, 714.0, 715.0, 715.0, 715.0, 714.0, 714.0, 713.0, 713.0, 714.0, 714.0, 714.0, 713.0, 714.0, 713.0, 714.0, 714.0, 713.0, 713.0, 713.0, 714.0, 714.0, 713.0, 714.0, 714.0, 715.0, 714.0, 713.0, 713.0, 713.0, 713.0, 714.0, 714.0, 713.0, 711.0, 711.0, 712.0, 713.0, 713.0, 712.0, 711.0, 712.0, 712.0, 713.0, 713.0, 712.0],
      "WindowWidth": [1559.0, 1556.0, 1555.0, 1553.0, 1550.0, 1547.0, 1549.0, 1548.0, 1550.0, 1551.0, 1549.0, 1548.0, 1549.0, 1548.0, 1552.0, 1552.0, 1548.0, 1547.0, 1546.0, 1548.0, 1549.0, 1548.0, 1548.0, 1548.0, 1546.0, 1546.0, 1546.0, 1547.0, 1548.0, 1547.0, 1548.0, 1547.0, 1545.0, 1546.0, 1547.0, 1548.0, 1547.0, 1546.0, 1547.0, 1547.0, 1548.0, 1548.0, 1547.0, 1547.0, 1549.0, 1551.0, 1549.0, 1547.0, 1545.0, 1545.0, 1547.0, 1548.0, 1550.0, 1544.0, 1543.0, 1543.0, 1545.0, 1545.0, 1544.0, 1544.0, 1542.0, 1542.0, 1542.0, 1543.0, 1546.0, 1547.0, 1547.0, 1547.0, 1545.0, 1543.0, 1542.0, 1542.0, 1543.0, 1542.0, 1542.0, 1543.0, 1543.0, 1542.0, 1541.0, 1541.0, 1542.0, 1543.0, 1540.0, 1539.0, 1544.0, 1544.0, 1545.0, 1542.0, 1541.0, 1540.0, 1542.0, 1544.0, 1543.0, 1540.0, 1539.0, 1539.0, 1541.0, 1539.0, 1539.0, 1538.0, 1538.0, 1539.0, 1545.0, 1546.0, 1546.0, 1541.0, 1537.0, 1536.0, 1537.0, 1540.0, 1542.0, 1540.0, 1539.0, 1540.0, 1539.0, 1542.0, 1542.0, 1542.0, 1541.0, 1540.0, 1542.0, 1543.0, 1541.0, 1541.0, 1539.0, 1537.0, 1539.0, 1540.0, 1540.0, 1539.0, 1538.0, 1539.0, 1538.0, 1540.0, 1540.0, 1539.0, 1538.0, 1539.0, 1540.0, 1541.0, 1539.0, 1539.0, 1540.0, 1542.0, 1542.0, 1539.0, 1537.0, 1537.0, 1538.0, 1540.0, 1540.0, 1536.0, 1531.0, 1533.0, 1535.0, 1537.0, 1537.0, 1535.0, 1533.0, 1534.0, 1535.0, 1536.0, 1536.0, 1535.0]
    },
    "slices": {}
  }
}