{
  "AcquisitionMatrixPE": 72,
  "AcquisitionNumber": 1,
  "AcquisitionTime": "18:31:43.242500",
  "BandwidthPerPixelPhaseEncode": 17.943,
  "BaseResolution": 96,
  "BodyPartExamined": "BRAIN",
  "CoilCombinationMethod": "Sum of Squares",
  "ConsistencyInfo": "N4_VE11C_LATEST_20160120",
  "ConversionSoftware": "dcm2niix",
  "ConversionSoftwareVersion": "v1.0.20211006",
  "DerivedVendorReportedEchoSpacing": 0.000552897,
  "DeviceSerialNumber": "166011",
  "EchoTime": 0.03,
  "EchoTrainLength": 58,
  "EffectiveEchoSpacing": 0.000580542,
  "FlipAngle": 62,
  "ImageOrientationPatientDICOM": [0.999871, -0.0097751, 0.0127186, 0.0118672, 0.98423, -0.176495],
  "ImageType": [
    "ORIGINAL",
    "PRIMARY",
    "M",
    "ND",
    "MOSAIC"
],
  "ImagingFrequency": 123.26,
  "InPlanePhaseEncodingDirectionDICOM": "COL",
  "InstitutionAddress": "West 130th Street 610,NY,NYC,US,10025",
  "InstitutionName": "MBBI",
  "MRAcquisitionType": "2D",
  "MagneticFieldStrength": 3,
  "Manufacturer": "Siemens",
  "ManufacturersModelName": "Prisma",
  "Modality": "MR",
  "MultibandAccelerationFactor": 3,
  "PartialFourier": 0.75,
  "PatientPosition": "HFS",
  "PercentPhaseFOV": 100,
  "PercentSampling": 75,
  "PhaseEncodingDirection": "j-",
  "PhaseEncodingSteps": 58,
  "PhaseOversampling": 0.05,
  "PhaseResolution": 0.75,
  "PixelBandwidth": 2265,
  "ProcedureStepDescription": "White^Word_recognition",
  "ProtocolName": "func_vwfate_run10",
  "PulseSequenceDetails": "%SiemensSeq%\\ep2d_bold",
  "ReceiveCoilActiveElements": "HC1-7",
  "ReceiveCoilName": "HeadNeck_64",
  "ReconMatrixPE": 96,
  "RefLinesPE": 40,
  "RepetitionTime": 1.5,
  "SAR": 0.0540222,
  "ScanOptions": "PFP\\FS",
  "ScanningSequence": "EP",
  "SequenceName": "*epfid2d1_72",
  "SequenceVariant": "SK\\OSP",
  "SeriesDescription": "func_vwfate_run10",
  "SeriesNumber": 12,
  "ShimSetting": [-1134, -1360, 663, 584, -28, -3, 53, 14],
  "SliceThickness": 2,
  "SliceTiming": [1.075, 0, 0.74, 0.0675, 0.8075, 0.135, 0.875, 0.2025, 0.9425, 0.2675, 1.0075, 0.4025, 1.1425, 0.47, 1.21, 0.5375, 1.2775, 0.605, 1.345, 0.6725, 1.4125, 0.335, 1.075, 0, 0.74, 0.0675, 0.8075, 0.135, 0.875, 0.2025, 0.9425, 0.2675, 1.0075, 0.4025, 1.1425, 0.47, 1.21, 0.5375, 1.2775, 0.605, 1.345, 0.6725, 1.4125, 0.335, 1.075, 0, 0.74, 0.0675, 0.8075, 0.135, 0.875, 0.2025, 0.9425, 0.2675, 1.0075, 0.4025, 1.1425, 0.47, 1.21, 0.5375, 1.2775, 0.605, 1.345, 0.6725, 1.4125, 0.335],
  "SoftwareVersions": "syngo MR E11",
  "SpacingBetweenSlices": 2,
  "StationName": "AWP166011",
  "TaskName": "vwfate",
  "TotalReadoutTime": 0.0551515,
  "TxRefAmp": 231.124,
  "dcmmeta_affine": [
    [-1.9997426271438599, 0.023734482005238533, 0.02158551849424839, 95.99500274658203],
    [0.019550200551748276, 1.968459963798523, -0.35324645042419434, -64.4208984375],
    [0.02543717622756958, 0.3529900014400482, 1.968438744544983, -94.11052703857422],
    [0.0, 0.0, 0.0, 1.0]
],
  "dcmmeta_reorient_transform": [
    [0.0, -1.0, 0.0, 95.0],
    [1.0, 0.0, 0.0, 0.0],
    [0.0, 0.0, 1.0, 0.0],
    [0.0, 0.0, 0.0, 1.0]
],
  "dcmmeta_shape": [96, 96, 66, 164],
  "dcmmeta_slice_dim": 2,
  "dcmmeta_version": 0.6,
  "global": {
    "const": {
      "AcquisitionMatrix": [96, 0, 0, 72],
      "AngioFlag": "N",
      "BitsAllocated": 16,
      "BitsStored": 12,
      "BodyPartExamined": "BRAIN",
      "Columns": 864,
      "EchoNumbers": 1,
      "EchoTime": 30.0,
      "EchoTrainLength": 58,
      "FlipAngle": 62.0,
      "HighBit": 11,
      "ImageOrientationPatient": [0.99987133419213, -0.0097751002274, 0.01271858783043, 0.01186724085821, 0.98422999623304, -0.1764949945736],
      "ImagePositionPatient": [-875.26500036163, -870.96416160337, 65.203804195586],
      "ImageType": [
        "ORIGINAL",
        "PRIMARY",
        "M",
        "ND",
        "MOSAIC"
],
      "ImagedNucleus": "1H",
      "ImagingFrequency": 123.259558,
      "InPlanePhaseEncodingDirection": "COL",
      "MRAcquisitionType": "2D",
      "MagneticFieldStrength": 3.0,
      "Manufacturer": "SIEMENS",
      "ManufacturerModelName": "Prisma",
      "Modality": "MR",
      "NumberOfAverages": 1.0,
      "NumberOfPhaseEncodingSteps": 58,
      "PercentPhaseFieldOfView": 100.0,
      "PercentSampling": 75.0,
      "PerformedProcedureStepStartTime": "174347.314000",
      "PhotometricInterpretation": "MONOCHROME2",
      "PixelBandwidth": 2265.0,
      "PixelRepresentation": 0,
      "PixelSpacing": [2.0, 2.0],
      "ProtocolName": "func_vwfate_run10",
      "RepetitionTime": 1500.0,
      "Rows": 864,
      "SAR": 0.05402224896936,
      "SamplesPerPixel": 1,
      "ScanOptions": [
        "PFP",
        "FS"
],
      "ScanningSequence": "EP",
      "SequenceName": "*epfid2d1_72",
      "SequenceVariant": [
        "SK",
        "OSP"
],
      "SeriesDescription": "func_vwfate_run10",
      "SeriesNumber": 12,
      "SeriesTime": "183203.286000",
      "SliceLocation": -80.211123762971,
      "SliceThickness": 2.0,
      "SmallestImagePixelValue": 0,
      "SoftwareVersions": "syngo MR E11",
      "SpacingBetweenSlices": 2.000000051101,
      "SpecificCharacterSet": "ISO_IR 100",
      "StudyID": "1",
      "StudyTime": "174347.248000",
      "TransmitCoilName": "Body",
      "VariableFlipAngleFlag": "N",
      "WindowCenterWidthExplanation": "Algo1",
      "dBdt": 0.0},
    "slices": {}
  },
  "time": {
    "samples": {
      "AcquisitionNumber": [1, 2, 3, 4, 5, 6, 7, 8, 9, 10, 11, 12, 13, 14, 15, 16, 17, 18, 19, 20, 21, 22, 23, 24, 25, 26, 27, 28, 29, 30, 31, 32, 33, 34, 35, 36, 37, 38, 39, 40, 41, 42, 43, 44, 45, 46, 47, 48, 49, 50, 51, 52, 53, 54, 55, 56, 57, 58, 59, 60, 61, 62, 63, 64, 65, 66, 67, 68, 69, 70, 71, 72, 73, 74, 75, 76, 77, 78, 79, 80, 81, 82, 83, 84, 85, 86, 87, 88, 89, 90, 91, 92, 93, 94, 95, 96, 97, 98, 99, 100, 101, 102, 103, 104, 105, 106, 107, 108, 109, 110, 111, 112, 113, 114, 115, 116, 117, 118, 119, 120, 121, 122, 123, 124, 125, 126, 127, 128, 129, 130, 131, 132, 133, 134, 135, 136, 137, 138, 139, 140, 141, 142, 143, 144, 145, 146, 147, 148, 149, 150, 151, 152, 153, 154, 155, 156, 157, 158, 159, 160, 161, 162, 163, 164],
      "AcquisitionTime": ["183143.242500", "183144.742500", "183146.242500", "183147.742500", "183149.242500", "183150.742500", "183152.242500", "183153.742500", "183155.242500", "183156.742500", "183158.242500", "183159.742500", "183201.242500", "183202.742500", "183204.242500", "183205.742500", "183207.242500", "183208.742500", "183210.242500", "183211.742500", "183213.242500", "183214.742500", "183216.242500", "183217.742500", "183219.242500", "183220.742500", "183222.242500", "183223.742500", "183225.242500", "183226.742500", "183228.242500", "183229.742500", "183231.242500", "183232.742500", "183234.242500", "183235.742500", "183237.242500", "183238.742500", "183240.242500", "183241.742500", "183243.242500", "183244.742500", "183246.242500", "183247.742500", "183249.242500", "183250.742500", "183252.242500", "183253.742500", "183255.242500", "183256.742500", "183258.242500", "183259.742500", "183301.242500", "183302.742500", "183304.242500", "183305.742500", "183307.242500", "183308.742500", "183310.242500", "183311.742500", "183313.242500", "183314.742500", "183316.242500", "183317.742500", "183319.242500", "183320.742500", "183322.242500", "183323.742500", "183325.242500", "183326.742500", "183328.242500", "183329.742500", "183331.242500", "183332.742500", "183334.242500", "183335.742500", "183337.242500", "183338.742500", "183340.242500", "183341.742500", "183343.242500", "183344.742500", "183346.242500", "183347.742500", "183349.242500", "183350.742500", "183352.242500", "183353.742500", "183355.242500", "183356.742500", "183358.242500", "183359.742500", "183401.242500", "183402.742500", "183404.242500", "183405.742500", "183407.242500", "183408.742500", "183410.242500", "183411.742500", "183413.242500", "183414.742500", "183416.242500", "183417.742500", "183419.242500", "183420.742500", "183422.242500", "183423.742500", "183425.242500", "183426.742500", "183428.242500", "183429.742500", "183431.242500", "183432.742500", "183434.242500", "183435.742500", "183437.242500", "183438.742500", "183440.242500", "183441.742500", "183443.242500", "183444.742500", "183446.242500", "183447.742500", "183449.242500", "183450.742500", "183452.242500", "183453.742500", "183455.242500", "183456.742500", "183458.242500", "183459.742500", "183501.242500", "183502.742500", "183504.242500", "183505.742500", "183507.242500", "183508.742500", "183510.242500", "183511.742500", "183513.242500", "183514.742500", "183516.242500", "183517.742500", "183519.242500", "183520.742500", "183522.242500", "183523.742500", "183525.242500", "183526.742500", "183528.242500", "183529.742500", "183531.242500", "183532.742500", "183534.242500", "183535.742500", "183537.242500", "183538.742500", "183540.242500", "183541.742500", "183543.242500", "183544.742500", "183546.242500", "183547.742500"],
      "ContentTime": ["183203.290000", "183203.297000", "183203.300000", "183203.303000", "183203.306000", "183203.309000", "183203.323000", "183203.326000", "183203.329000", "183203.332000", "183203.335000", "183203.338000", "183203.341000", "183243.285000", "183243.288000", "183243.291000", "183243.294000", "183243.297000", "183243.300000", "183243.303000", "183243.306000", "183243.309000", "183243.312000", "183243.315000", "183243.318000", "183243.321000", "183243.325000", "183243.328000", "183243.331000", "183243.334000", "183243.337000", "183243.340000", "183243.343000", "183243.346000", "183243.349000", "183243.352000", "183243.355000", "183243.358000", "183243.361000", "183243.364000", "183323.286000", "183323.289000", "183323.292000", "183323.295000", "183323.298000", "183323.311000", "183323.314000", "183323.317000", "183323.320000", "183323.323000", "183323.326000", "183323.329000", "183323.332000", "183323.335000", "183323.338000", "183323.341000", "183323.344000", "183323.347000", "183323.350000", "183323.353000", "183323.356000", "183323.359000", "183323.362000", "183323.365000", "183323.368000", "183323.371000", "183403.286000", "183403.289000", "183403.292000", "183403.295000", "183403.298000", "183403.301000", "183403.304000", "183403.307000", "183403.310000", "183403.313000", "183403.316000", "183403.319000", "183403.322000", "183403.325000", "183403.328000", "183403.331000", "183403.334000", "183403.337000", "183403.340000", "183403.343000", "183403.346000", "183403.349000", "183403.352000", "183403.355000", "183403.358000", "183403.361000", "183403.364000", "183443.285000", "183443.288000", "183443.291000", "183443.294000", "183443.297000", "183443.300000", "183443.303000", "183443.306000", "183443.309000", "183443.312000", "183443.315000", "183443.318000", "183443.321000", "183443.324000", "183443.327000", "183443.330000", "183443.333000", "183443.336000", "183443.339000", "183443.342000", "183443.345000", "183443.348000", "183443.351000", "183443.354000", "183443.361000", "183443.364000", "183443.367000", "183523.285000", "183523.288000", "183523.291000", "183523.294000", "183523.297000", "183523.300000", "183523.303000", "183523.306000", "183523.309000", "183523.312000", "183523.315000", "183523.318000", "183523.321000", "183523.324000", "183523.327000", "183523.330000", "183523.333000", "183523.336000", "183523.339000", "183523.342000", "183523.345000", "183523.348000", "183523.351000", "183523.354000", "183523.357000", "183523.360000", "183548.966000", "183548.970000", "183548.973000", "183548.994000", "183548.997000", "183549.002000", "183549.005000", "183549.008000", "183549.012000", "183549.015000", "183549.018000", "183549.021000", "183549.032000", "183549.036000", "183549.039000", "183549.042000", "183549.045000", "183549.049000"],
      "InstanceCreationTime": ["183203.290000", "183203.297000", "183203.300000", "183203.303000", "183203.306000", "183203.309000", "183203.323000", "183203.326000", "183203.329000", "183203.332000", "183203.335000", "183203.338000", "183203.341000", "183243.285000", "183243.288000", "183243.291000", "183243.294000", "183243.297000", "183243.300000", "183243.303000", "183243.306000", "183243.309000", "183243.312000", "183243.315000", "183243.318000", "183243.321000", "183243.325000", "183243.328000", "183243.331000", "183243.334000", "183243.337000", "183243.340000", "183243.343000", "183243.346000", "183243.349000", "183243.352000", "183243.355000", "183243.358000", "183243.361000", "183243.364000", "183323.286000", "183323.289000", "183323.292000", "183323.295000", "183323.298000", "183323.311000", "183323.314000", "183323.317000", "183323.320000", "183323.323000", "183323.326000", "183323.329000", "183323.332000", "183323.335000", "183323.338000", "183323.341000", "183323.344000", "183323.347000", "183323.350000", "183323.353000", "183323.356000", "183323.359000", "183323.362000", "183323.365000", "183323.368000", "183323.371000", "183403.286000", "183403.289000", "183403.292000", "183403.295000", "183403.298000", "183403.301000", "183403.304000", "183403.307000", "183403.310000", "183403.313000", "183403.316000", "183403.319000", "183403.322000", "183403.325000", "183403.328000", "183403.331000", "183403.334000", "183403.337000", "183403.340000", "183403.343000", "183403.346000", "183403.349000", "183403.352000", "183403.355000", "183403.358000", "183403.361000", "183403.364000", "183443.285000", "183443.288000", "183443.291000", "183443.294000", "183443.297000", "183443.300000", "183443.303000", "183443.306000", "183443.309000", "183443.312000", "183443.315000", "183443.318000", "183443.321000", "183443.324000", "183443.327000", "183443.330000", "183443.333000", "183443.336000", "183443.339000", "183443.342000", "183443.345000", "183443.348000", "183443.351000", "183443.354000", "183443.361000", "183443.364000", "183443.367000", "183523.285000", "183523.288000", "183523.291000", "183523.294000", "183523.297000", "183523.300000", "183523.303000", "183523.306000", "183523.309000", "183523.312000", "183523.315000", "183523.318000", "183523.321000", "183523.324000", "183523.327000", "183523.330000", "183523.333000", "183523.336000", "183523.339000", "183523.342000", "183523.345000", "183523.348000", "183523.351000", "183523.354000", "183523.357000", "183523.360000", "183548.966000", "183548.970000", "183548.973000", "183548.994000", "183548.997000", "183549.002000", "183549.005000", "183549.008000", "183549.012000", "183549.015000", "183549.018000", "183549.021000", "183549.032000", "183549.036000", "183549.039000", "183549.042000", "183549.045000", "183549.049000"],
      "InstanceNumber": [1, 2, 3, 4, 5, 6, 7, 8, 9, 10, 11, 12, 13, 14, 15, 16, 17, 18, 19, 20, 21, 22, 23, 24, 25, 26, 27, 28, 29, 30, 31, 32, 33, 34, 35, 36, 37, 38, 39, 40, 41, 42, 43, 44, 45, 46, 47, 48, 49, 50, 51, 52, 53, 54, 55, 56, 57, 58, 59, 60, 61, 62, 63, 64, 65, 66, 67, 68, 69, 70, 71, 72, 73, 74, 75, 76, 77, 78, 79, 80, 81, 82, 83, 84, 85, 86, 87, 88, 89, 90, 91, 92, 93, 94, 95, 96, 97, 98, 99, 100, 101, 102, 103, 104, 105, 106, 107, 108, 109, 110, 111, 112, 113, 114, 115, 116, 117, 118, 119, 120, 121, 122, 123, 124, 125, 126, 127, 128, 129, 130, 131, 132, 133, 134, 135, 136, 137, 138, 139, 140, 141, 142, 143, 144, 145, 146, 147, 148, 149, 150, 151, 152, 153, 154, 155, 156, 157, 158, 159, 160, 161, 162, 163, 164],
      "LargestImagePixelValue": [2530, 2447, 2396, 2372, 2387, 2342, 2389, 2365, 2382, 2379, 2371, 2369, 2354, 2346, 2378, 2376, 2356, 2351, 2346, 2361, 2368, 2358, 2372, 2362, 2402, 2366, 2388, 2366, 2391, 2374, 2386, 2375, 2364, 2384, 2393, 2387, 2354, 2369, 2366, 2378, 2368, 2381, 2386, 2376, 2334, 2363, 2325, 2352, 2314, 2347, 2306, 2361, 2290, 2343, 2321, 2347, 2309, 2415, 2355, 2315, 2258, 2360, 2275, 2308, 2298, 2330, 2324, 2295, 2308, 2337, 2345, 2330, 2298, 2325, 2342, 2300, 2305, 2307, 2349, 2305, 2304, 2297, 2328, 2305, 2318, 2315, 2320, 2331, 2314, 2318, 2279, 2310, 2282, 2283, 2284, 2290, 2295, 2265, 2257, 2261, 2267, 2255, 2288, 2244, 2289, 2237, 2256, 2195, 2248, 2237, 2225, 2185, 2192, 2203, 2224, 2214, 2232, 2213, 2198, 2221, 2184, 2222, 2299, 2295, 2193, 2130, 2187, 2196, 2284, 2282, 2252, 2227, 2168, 2147, 2157, 2194, 2236, 2253, 2245, 2241, 2251, 2250, 2383, 2331, 2144, 2200, 2190, 2174, 2196, 2181, 2207, 2184, 2214, 2151, 2191, 2235, 2236, 2240, 2228, 2225, 2263, 2274, 2300, 2255],
      "WindowCenter": [669.0, 667.0, 666.0, 666.0, 665.0, 665.0, 665.0, 665.0, 666.0, 666.0, 666.0, 666.0, 665.0, 665.0, 665.0, 666.0, 665.0, 665.0, 665.0, 665.0, 665.0, 665.0, 667.0, 667.0, 668.0, 667.0, 667.0, 666.0, 666.0, 666.0, 666.0, 666.0, 666.0, 666.0, 666.0, 667.0, 667.0, 667.0, 667.0, 667.0, 667.0, 667.0, 667.0, 667.0, 667.0, 667.0, 666.0, 666.0, 666.0, 665.0, 666.0, 666.0, 665.0, 665.0, 665.0, 664.0, 664.0, 665.0, 667.0, 665.0, 662.0, 665.0, 665.0, 664.0, 664.0, 664.0, 664.0, 664.0, 663.0, 663.0, 664.0, 663.0, 663.0, 662.0, 663.0, 662.0, 665.0, 664.0, 664.0, 663.0, 663.0, 663.0, 663.0, 663.0, 663.0, 662.0, 661.0, 661.0, 661.0, 662.0, 662.0, 663.0, 662.0, 662.0, 662.0, 663.0, 664.0, 663.0, 663.0, 662.0, 663.0, 664.0, 665.0, 664.0, 663.0, 662.0, 661.0, 660.0, 660.0, 661.0, 661.0, 662.0, 661.0, 660.0, 661.0, 660.0, 660.0, 660.0, 661.0, 661.0, 660.0, 660.0, 661.0, 665.0, 662.0, 658.0, 660.0, 661.0, 660.0, 661.0, 658.0, 655.0, 653.0, 653.0, 655.0, 656.0, 657.0, 657.0, 657.0, 657.0, 657.0, 659.0, 661.0, 662.0, 659.0, 662.0, 660.0, 660.0, 660.0, 660.0, 661.0, 660.0, 660.0, 660.0, 660.0, 661.0, 661.0, 661.0, 662.0, 662.0, 662.0, 663.0, 663.0, 663.0],
      "WindowWidth": [1431.0, 1424.0, 1421.0, 1420.0, 1418.0, 1418.0, 1419.0, 1419.0, 1420.0, 1421.0, 1422.0, 1421.0, 1419.0, 1419.0, 1420.0, 1421.0, 1420.0, 1420.0, 1420.0, 1419.0, 1420.0, 1419.0, 1424.0, 1424.0, 1426.0, 1424.0, 1424.0, 1422.0, 1421.0, 1422.0, 1420.0, 1422.0, 1422.0, 1423.0, 1422.0, 1423.0, 1423.0, 1424.0, 1425.0, 1424.0, 1424.0, 1423.0, 1423.0, 1423.0, 1424.0, 1423.0, 1422.0, 1420.0, 1421.0, 1420.0, 1420.0, 1420.0, 1420.0, 1419.0, 1418.0, 1417.0, 1417.0, 1420.0, 1423.0, 1418.0, 1412.0, 1420.0, 1420.0, 1417.0, 1417.0, 1416.0, 1415.0, 1416.0, 1415.0, 1414.0, 1415.0, 1414.0, 1413.0, 1412.0, 1414.0, 1412.0, 1418.0, 1417.0, 1415.0, 1414.0, 1413.0, 1413.0, 1413.0, 1413.0, 1412.0, 1411.0, 1410.0, 1409.0, 1410.0, 1411.0, 1412.0, 1414.0, 1412.0, 1412.0, 1412.0, 1414.0, 1415.0, 1414.0, 1413.0, 1412.0, 1413.0, 1417.0, 1418.0, 1416.0, 1414.0, 1411.0, 1408.0, 1406.0, 1407.0, 1408.0, 1409.0, 1411.0, 1410.0, 1408.0, 1408.0, 1407.0, 1408.0, 1407.0, 1408.0, 1408.0, 1407.0, 1407.0, 1409.0, 1418.0, 1412.0, 1401.0, 1407.0, 1409.0, 1407.0, 1408.0, 1401.0, 1394.0, 1391.0, 1390.0, 1394.0, 1398.0, 1398.0, 1399.0, 1399.0, 1399.0, 1400.0, 1403.0, 1409.0, 1410.0, 1405.0, 1411.0, 1406.0, 1407.0, 1407.0, 1406.0, 1408.0, 1407.0, 1406.0, 1406.0, 1407.0, 1409.0, 1410.0, 1410.0, 1412.0, 1412.0, 1412.0, 1413.0, 1414.0, 1414.0]
    },
    "slices": {}
  }
}