{
  "AcquisitionMatrixPE": 72,
  "AcquisitionNumber": 1,
  "AcquisitionTime": "18:13:12.162500",
  "BandwidthPerPixelPhaseEncode": 17.943,
  "BaseResolution": 96,
  "BodyPartExamined": "BRAIN",
  "CoilCombinationMethod": "Sum of Squares",
  "ConsistencyInfo": "N4_VE11C_LATEST_20160120",
  "ConversionSoftware": "dcm2niix",
  "ConversionSoftwareVersion": "v1.0.20211006",
  "DerivedVendorReportedEchoSpacing": 0.000552897,
  "DeviceSerialNumber": "166011",
  "EchoTime": 0.03,
  "EchoTrainLength": 58,
  "EffectiveEchoSpacing": 0.000580542,
  "FlipAngle": 62,
  "ImageOrientationPatientDICOM": [0.999871, -0.0097751, 0.0127186, 0.0118672, 0.98423, -0.176495],
  "ImageType": [
    "ORIGINAL",
    "PRIMARY",
    "M",
    "ND",
    "MOSAIC"
],
  "ImagingFrequency": 123.26,
  "InPlanePhaseEncodingDirectionDICOM": "COL",
  "InstitutionAddress": "West 130th Street 610,NY,NYC,US,10025",
  "InstitutionName": "MBBI",
  "MRAcquisitionType": "2D",
  "MagneticFieldStrength": 3,
  "Manufacturer": "Siemens",
  "ManufacturersModelName": "Prisma",
  "Modality": "MR",
  "MultibandAccelerationFactor": 3,
  "PartialFourier": 0.75,
  "PatientPosition": "HFS",
  "PercentPhaseFOV": 100,
  "PercentSampling": 75,
  "PhaseEncodingDirection": "j-",
  "PhaseEncodingSteps": 58,
  "PhaseOversampling": 0.05,
  "PhaseResolution": 0.75,
  "PixelBandwidth": 2265,
  "ProcedureStepDescription": "White^Word_recognition",
  "ProtocolName": "func_vwfate_run8",
  "PulseSequenceDetails": "%SiemensSeq%\\ep2d_bold",
  "ReceiveCoilActiveElements": "HC1-7",
  "ReceiveCoilName": "HeadNeck_64",
  "ReconMatrixPE": 96,
  "RefLinesPE": 40,
  "RepetitionTime": 1.5,
  "SAR": 0.0540222,
  "ScanOptions": "PFP\\FS",
  "ScanningSequence": "EP",
  "SequenceName": "*epfid2d1_72",
  "SequenceVariant": "SK\\OSP",
  "SeriesDescription": "func_vwfate_run8",
  "SeriesNumber": 9,
  "ShimSetting": [-1134, -1360, 663, 584, -28, -3, 53, 14],
  "SliceThickness": 2,
  "SliceTiming": [1.0775, 0, 0.74, 0.0675, 0.8075, 0.135, 0.875, 0.2025, 0.9425, 0.27, 1.01, 0.405, 1.145, 0.47, 1.21, 0.5375, 1.2775, 0.605, 1.345, 0.6725, 1.4125, 0.3375, 1.0775, 0, 0.74, 0.0675, 0.8075, 0.135, 0.875, 0.2025, 0.9425, 0.27, 1.01, 0.405, 1.145, 0.47, 1.21, 0.5375, 1.2775, 0.605, 1.345, 0.6725, 1.4125, 0.3375, 1.0775, 0, 0.74, 0.0675, 0.8075, 0.135, 0.875, 0.2025, 0.9425, 0.27, 1.01, 0.405, 1.145, 0.47, 1.21, 0.5375, 1.2775, 0.605, 1.345, 0.6725, 1.4125, 0.3375],
  "SoftwareVersions": "syngo MR E11",
  "SpacingBetweenSlices": 2,
  "StationName": "AWP166011",
  "TaskName": "vwfate",
  "TotalReadoutTime": 0.0551515,
  "TxRefAmp": 231.124,
  "dcmmeta_affine": [
    [-1.9997426271438599, 0.023734482005238533, 0.02158551849424839, 95.99500274658203],
    [0.019550200551748276, 1.968459963798523, -0.35324645042419434, -64.4208984375],
    [0.02543717622756958, 0.3529900014400482, 1.968438744544983, -94.11052703857422],
    [0.0, 0.0, 0.0, 1.0]
],
  "dcmmeta_reorient_transform": [
    [0.0, -1.0, 0.0, 95.0],
    [1.0, 0.0, 0.0, 0.0],
    [0.0, 0.0, 1.0, 0.0],
    [0.0, 0.0, 0.0, 1.0]
],
  "dcmmeta_shape": [96, 96, 66, 164],
  "dcmmeta_slice_dim": 2,
  "dcmmeta_version": 0.6,
  "global": {
    "const": {
      "AcquisitionMatrix": [96, 0, 0, 72],
      "AngioFlag": "N",
      "BitsAllocated": 16,
      "BitsStored": 12,
      "BodyPartExamined": "BRAIN",
      "Columns": 864,
      "EchoNumbers": 1,
      "EchoTime": 30.0,
      "EchoTrainLength": 58,
      "FlipAngle": 62.0,
      "HighBit": 11,
      "ImageOrientationPatient": [0.99987133419213, -0.0097751002274, 0.01271858783043, 0.01186724085821, 0.98422999623304, -0.1764949945736],
      "ImagePositionPatient": [-875.26500036163, -870.96416160337, 65.203804195586],
      "ImageType": [
        "ORIGINAL",
        "PRIMARY",
        "M",
        "ND",
        "MOSAIC"
],
      "ImagedNucleus": "1H",
      "ImagingFrequency": 123.259545,
      "InPlanePhaseEncodingDirection": "COL",
      "MRAcquisitionType": "2D",
      "MagneticFieldStrength": 3.0,
      "Manufacturer": "SIEMENS",
      "ManufacturerModelName": "Prisma",
      "Modality": "MR",
      "NumberOfAverages": 1.0,
      "NumberOfPhaseEncodingSteps": 58,
      "PercentPhaseFieldOfView": 100.0,
      "PercentSampling": 75.0,
      "PerformedProcedureStepStartTime": "174347.314000",
      "PhotometricInterpretation": "MONOCHROME2",
      "PixelBandwidth": 2265.0,
      "PixelRepresentation": 0,
      "PixelSpacing": [2.0, 2.0],
      "ProtocolName": "func_vwfate_run8",
      "RepetitionTime": 1500.0,
      "Rows": 864,
      "SAR": 0.05402224896936,
      "SamplesPerPixel": 1,
      "ScanOptions": [
        "PFP",
        "FS"
],
      "ScanningSequence": "EP",
      "SequenceName": "*epfid2d1_72",
      "SequenceVariant": [
        "SK",
        "OSP"
],
      "SeriesDescription": "func_vwfate_run8",
      "SeriesNumber": 9,
      "SeriesTime": "181323.287000",
      "SliceLocation": -80.211123762971,
      "SliceThickness": 2.0,
      "SmallestImagePixelValue": 0,
      "SoftwareVersions": "syngo MR E11",
      "SpacingBetweenSlices": 2.000000051101,
      "SpecificCharacterSet": "ISO_IR 100",
      "StudyID": "1",
      "StudyTime": "174347.248000",
      "TransmitCoilName": "Body",
      "VariableFlipAngleFlag": "N",
      "WindowCenterWidthExplanation": "Algo1",
      "dBdt": 0.0},
    "slices": {}
  },
  "time": {
    "samples": {
      "AcquisitionNumber": [1, 2, 3, 4, 5, 6, 7, 8, 9, 10, 11, 12, 13, 14, 15, 16, 17, 18, 19, 20, 21, 22, 23, 24, 25, 26, 27, 28, 29, 30, 31, 32, 33, 34, 35, 36, 37, 38, 39, 40, 41, 42, 43, 44, 45, 46, 47, 48, 49, 50, 51, 52, 53, 54, 55, 56, 57, 58, 59, 60, 61, 62, 63, 64, 65, 66, 67, 68, 69, 70, 71, 72, 73, 74, 75, 76, 77, 78, 79, 80, 81, 82, 83, 84, 85, 86, 87, 88, 89, 90, 91, 92, 93, 94, 95, 96, 97, 98, 99, 100, 101, 102, 103, 104, 105, 106, 107, 108, 109, 110, 111, 112, 113, 114, 115, 116, 117, 118, 119, 120, 121, 122, 123, 124, 125, 126, 127, 128, 129, 130, 131, 132, 133, 134, 135, 136, 137, 138, 139, 140, 141, 142, 143, 144, 145, 146, 147, 148, 149, 150, 151, 152, 153, 154, 155, 156, 157, 158, 159, 160, 161, 162, 163, 164],
      "AcquisitionTime": ["181312.162500", "181313.662500", "181315.162500", "181316.662500", "181318.162500", "181319.662500", "181321.162500", "181322.662500", "181324.162500", "181325.662500", "181327.162500", "181328.662500", "181330.162500", "181331.662500", "181333.162500", "181334.662500", "181336.162500", "181337.662500", "181339.162500", "181340.662500", "181342.162500", "181343.662500", "181345.162500", "181346.662500", "181348.162500", "181349.662500", "181351.162500", "181352.662500", "181354.162500", "181355.662500", "181357.162500", "181358.662500", "181400.162500", "181401.662500", "181403.162500", "181404.662500", "181406.162500", "181407.662500", "181409.162500", "181410.662500", "181412.162500", "181413.662500", "181415.162500", "181416.662500", "181418.162500", "181419.662500", "181421.162500", "181422.662500", "181424.162500", "181425.662500", "181427.162500", "181428.662500", "181430.162500", "181431.662500", "181433.162500", "181434.662500", "181436.162500", "181437.662500", "181439.162500", "181440.662500", "181442.162500", "181443.662500", "181445.162500", "181446.662500", "181448.162500", "181449.662500", "181451.162500", "181452.662500", "181454.162500", "181455.662500", "181457.162500", "181458.662500", "181500.162500", "181501.662500", "181503.162500", "181504.662500", "181506.162500", "181507.662500", "181509.162500", "181510.662500", "181512.162500", "181513.662500", "181515.162500", "181516.662500", "181518.162500", "181519.662500", "181521.162500", "181522.662500", "181524.162500", "181525.662500", "181527.162500", "181528.662500", "181530.162500", "181531.662500", "181533.162500", "181534.662500", "181536.162500", "181537.662500", "181539.162500", "181540.662500", "181542.162500", "181543.662500", "181545.162500", "181546.662500", "181548.162500", "181549.662500", "181551.162500", "181552.662500", "181554.162500", "181555.662500", "181557.162500", "181558.662500", "181600.162500", "181601.662500", "181603.162500", "181604.662500", "181606.162500", "181607.662500", "181609.162500", "181610.662500", "181612.162500", "181613.662500", "181615.162500", "181616.662500", "181618.162500", "181619.662500", "181621.162500", "181622.662500", "181624.162500", "181625.662500", "181627.162500", "181628.662500", "181630.162500", "181631.662500", "181633.162500", "181634.662500", "181636.162500", "181637.662500", "181639.162500", "181640.662500", "181642.162500", "181643.662500", "181645.162500", "181646.662500", "181648.162500", "181649.662500", "181651.162500", "181652.662500", "181654.162500", "181655.662500", "181657.162500", "181658.662500", "181700.162500", "181701.662500", "181703.162500", "181704.662500", "181706.162500", "181707.662500", "181709.162500", "181710.662500", "181712.162500", "181713.662500", "181715.162500", "181716.662500"],
      "ContentTime": ["181323.291000", "181323.295000", "181323.298000", "181323.301000", "181323.304000", "181323.307000", "181323.310000", "181403.285000", "181403.290000", "181403.293000", "181403.296000", "181403.299000", "181403.313000", "181403.316000", "181403.324000", "181403.328000", "181403.331000", "181403.334000", "181403.337000", "181403.340000", "181403.343000", "181403.346000", "181403.349000", "181403.352000", "181403.355000", "181403.358000", "181403.361000", "181403.376000", "181403.379000", "181403.382000", "181403.385000", "181403.388000", "181403.391000", "181403.394000", "181443.285000", "181443.288000", "181443.291000", "181443.294000", "181443.297000", "181443.300000", "181443.303000", "181443.306000", "181443.309000", "181443.312000", "181443.315000", "181443.318000", "181443.321000", "181443.324000", "181443.327000", "181443.330000", "181443.333000", "181443.336000", "181443.339000", "181443.353000", "181443.356000", "181443.359000", "181443.368000", "181443.371000", "181443.374000", "181443.377000", "181523.286000", "181523.289000", "181523.292000", "181523.295000", "181523.298000", "181523.301000", "181523.304000", "181523.307000", "181523.310000", "181523.313000", "181523.316000", "181523.319000", "181523.322000", "181523.325000", "181523.328000", "181523.331000", "181523.334000", "181523.337000", "181523.340000", "181523.343000", "181523.346000", "181523.349000", "181523.352000", "181523.355000", "181523.358000", "181523.361000", "181523.364000", "181603.285000", "181603.288000", "181603.291000", "181603.294000", "181603.297000", "181603.300000", "181603.303000", "181603.306000", "181603.309000", "181603.312000", "181603.315000", "181603.318000", "181603.321000", "181603.325000", "181603.328000", "181603.331000", "181603.334000", "181603.337000", "181603.340000", "181603.343000", "181603.346000", "181603.353000", "181603.356000", "181603.359000", "181603.362000", "181603.366000", "181603.369000", "181643.285000", "181643.288000", "181643.291000", "181643.294000", "181643.297000", "181643.300000", "181643.303000", "181643.306000", "181643.309000", "181643.312000", "181643.316000", "181643.319000", "181643.322000", "181643.325000", "181643.328000", "181643.331000", "181643.340000", "181643.343000", "181643.346000", "181643.349000", "181643.352000", "181643.355000", "181643.358000", "181643.361000", "181643.364000", "181643.367000", "181718.162000", "181718.166000", "181718.169000", "181718.172000", "181718.175000", "181718.178000", "181718.182000", "181718.185000", "181718.188000", "181718.191000", "181718.194000", "181718.198000", "181718.202000", "181718.205000", "181718.208000", "181718.211000", "181718.214000", "181718.217000", "181718.220000", "181718.223000", "181718.226000", "181718.229000", "181718.233000", "181718.236000"],
      "InstanceCreationTime": ["181323.291000", "181323.295000", "181323.298000", "181323.301000", "181323.304000", "181323.307000", "181323.310000", "181403.285000", "181403.290000", "181403.293000", "181403.296000", "181403.299000", "181403.313000", "181403.316000", "181403.324000", "181403.328000", "181403.331000", "181403.334000", "181403.337000", "181403.340000", "181403.343000", "181403.346000", "181403.349000", "181403.352000", "181403.355000", "181403.358000", "181403.361000", "181403.376000", "181403.379000", "181403.382000", "181403.385000", "181403.388000", "181403.391000", "181403.394000", "181443.285000", "181443.288000", "181443.291000", "181443.294000", "181443.297000", "181443.300000", "181443.303000", "181443.306000", "181443.309000", "181443.312000", "181443.315000", "181443.318000", "181443.321000", "181443.324000", "181443.327000", "181443.330000", "181443.333000", "181443.336000", "181443.339000", "181443.353000", "181443.356000", "181443.359000", "181443.368000", "181443.371000", "181443.374000", "181443.377000", "181523.286000", "181523.289000", "181523.292000", "181523.295000", "181523.298000", "181523.301000", "181523.304000", "181523.307000", "181523.310000", "181523.313000", "181523.316000", "181523.319000", "181523.322000", "181523.325000", "181523.328000", "181523.331000", "181523.334000", "181523.337000", "181523.340000", "181523.343000", "181523.346000", "181523.349000", "181523.352000", "181523.355000", "181523.358000", "181523.361000", "181523.364000", "181603.285000", "181603.288000", "181603.291000", "181603.294000", "181603.297000", "181603.300000", "181603.303000", "181603.306000", "181603.309000", "181603.312000", "181603.315000", "181603.318000", "181603.321000", "181603.325000", "181603.328000", "181603.331000", "181603.334000", "181603.337000", "181603.340000", "181603.343000", "181603.346000", "181603.353000", "181603.356000", "181603.359000", "181603.362000", "181603.366000", "181603.369000", "181643.285000", "181643.288000", "181643.291000", "181643.294000", "181643.297000", "181643.300000", "181643.303000", "181643.306000", "181643.309000", "181643.312000", "181643.316000", "181643.319000", "181643.322000", "181643.325000", "181643.328000", "181643.331000", "181643.340000", "181643.343000", "181643.346000", "181643.349000", "181643.352000", "181643.355000", "181643.358000", "181643.361000", "181643.364000", "181643.367000", "181718.162000", "181718.166000", "181718.169000", "181718.172000", "181718.175000", "181718.178000", "181718.182000", "181718.185000", "181718.188000", "181718.191000", "181718.194000", "181718.198000", "181718.202000", "181718.205000", "181718.208000", "181718.211000", "181718.214000", "181718.217000", "181718.220000", "181718.223000", "181718.226000", "181718.229000", "181718.233000", "181718.236000"],
      "InstanceNumber": [1, 2, 3, 4, 5, 6, 7, 8, 9, 10, 11, 12, 13, 14, 15, 16, 17, 18, 19, 20, 21, 22, 23, 24, 25, 26, 27, 28, 29, 30, 31, 32, 33, 34, 35, 36, 37, 38, 39, 40, 41, 42, 43, 44, 45, 46, 47, 48, 49, 50, 51, 52, 53, 54, 55, 56, 57, 58, 59, 60, 61, 62, 63, 64, 65, 66, 67, 68, 69, 70, 71, 72, 73, 74, 75, 76, 77, 78, 79, 80, 81, 82, 83, 84, 85, 86, 87, 88, 89, 90, 91, 92, 93, 94, 95, 96, 97, 98, 99, 100, 101, 102, 103, 104, 105, 106, 107, 108, 109, 110, 111, 112, 113, 114, 115, 116, 117, 118, 119, 120, 121, 122, 123, 124, 125, 126, 127, 128, 129, 130, 131, 132, 133, 134, 135, 136, 137, 138, 139, 140, 141, 142, 143, 144, 145, 146, 147, 148, 149, 150, 151, 152, 153, 154, 155, 156, 157, 158, 159, 160, 161, 162, 163, 164],
      "LargestImagePixelValue": [2434, 2393, 2431, 2408, 2421, 2409, 2417, 2423, 2416, 2400, 2403, 2409, 2427, 2440, 2439, 2433, 2438, 2451, 2456, 2444, 2404, 2425, 2444, 2428, 2442, 2439, 2448, 2435, 2424, 2431, 2428, 2466, 2414, 2440, 2420, 2427, 2363, 2420, 2365, 2419, 2368, 2360, 2322, 2332, 2346, 2346, 2305, 2289, 2315, 2285, 2336, 2331, 2332, 2329, 2317, 2349, 2336, 2326, 2352, 2316, 2327, 2403, 2406, 2350, 2364, 2353, 2353, 2359, 2348, 2351, 2365, 2365, 2381, 2327, 2327, 2317, 2296, 2303, 2318, 2332, 2347, 2257, 2364, 2414, 2347, 2376, 2354, 2305, 2304, 2193, 2376, 2334, 2325, 2494, 2457, 2382, 2401, 2404, 2324, 2344, 2334, 2340, 2321, 2369, 2337, 2358, 2344, 2358, 2360, 2336, 2370, 2366, 2366, 2371, 2387, 2364, 2374, 2395, 2343, 2356, 2355, 2335, 2325, 2346, 2369, 2343, 2371, 2351, 2373, 2349, 2342, 2340, 2322, 2323, 2269, 2370, 2309, 2390, 2321, 2358, 2319, 2354, 2309, 2290, 2312, 2335, 2308, 2305, 2293, 2243, 2280, 2335, 2298, 2385, 2346, 2329, 2407, 2372, 2292, 2267, 2287, 2425, 2361, 2351],
      "WindowCenter": [673.0, 670.0, 669.0, 668.0, 668.0, 668.0, 669.0, 669.0, 669.0, 668.0, 669.0, 668.0, 668.0, 667.0, 667.0, 668.0, 667.0, 668.0, 668.0, 668.0, 668.0, 669.0, 669.0, 669.0, 669.0, 668.0, 668.0, 668.0, 668.0, 668.0, 668.0, 669.0, 669.0, 669.0, 669.0, 668.0, 668.0, 668.0, 669.0, 669.0, 669.0, 669.0, 669.0, 669.0, 672.0, 668.0, 669.0, 669.0, 668.0, 668.0, 667.0, 666.0, 666.0, 666.0, 666.0, 667.0, 667.0, 667.0, 667.0, 667.0, 668.0, 669.0, 669.0, 669.0, 668.0, 668.0, 667.0, 667.0, 668.0, 668.0, 668.0, 668.0, 669.0, 668.0, 669.0, 669.0, 669.0, 669.0, 669.0, 668.0, 668.0, 664.0, 667.0, 670.0, 668.0, 668.0, 667.0, 667.0, 667.0, 663.0, 669.0, 670.0, 659.0, 672.0, 669.0, 668.0, 669.0, 668.0, 667.0, 668.0, 668.0, 668.0, 668.0, 668.0, 668.0, 667.0, 667.0, 668.0, 668.0, 668.0, 668.0, 668.0, 669.0, 669.0, 669.0, 669.0, 669.0, 669.0, 669.0, 669.0, 669.0, 668.0, 668.0, 667.0, 667.0, 667.0, 667.0, 668.0, 668.0, 668.0, 667.0, 667.0, 666.0, 666.0, 666.0, 667.0, 666.0, 667.0, 666.0, 666.0, 665.0, 666.0, 665.0, 665.0, 664.0, 665.0, 665.0, 665.0, 667.0, 667.0, 667.0, 668.0, 667.0, 666.0, 671.0, 671.0, 671.0, 669.0, 667.0, 665.0, 665.0, 665.0, 665.0, 666.0],
      "WindowWidth": [1439.0, 1431.0, 1430.0, 1427.0, 1427.0, 1427.0, 1428.0, 1428.0, 1428.0, 1427.0, 1428.0, 1426.0, 1426.0, 1425.0, 1424.0, 1425.0, 1425.0, 1425.0, 1426.0, 1427.0, 1428.0, 1429.0, 1428.0, 1429.0, 1428.0, 1427.0, 1426.0, 1425.0, 1426.0, 1426.0, 1426.0, 1428.0, 1429.0, 1430.0, 1429.0, 1428.0, 1426.0, 1426.0, 1428.0, 1430.0, 1430.0, 1430.0, 1430.0, 1430.0, 1436.0, 1427.0, 1429.0, 1429.0, 1428.0, 1426.0, 1425.0, 1422.0, 1422.0, 1422.0, 1422.0, 1423.0, 1424.0, 1424.0, 1423.0, 1425.0, 1426.0, 1429.0, 1429.0, 1429.0, 1426.0, 1425.0, 1425.0, 1424.0, 1425.0, 1426.0, 1426.0, 1428.0, 1429.0, 1426.0, 1428.0, 1429.0, 1429.0, 1428.0, 1428.0, 1426.0, 1426.0, 1417.0, 1425.0, 1430.0, 1426.0, 1425.0, 1423.0, 1424.0, 1423.0, 1415.0, 1430.0, 1432.0, 1404.0, 1436.0, 1429.0, 1426.0, 1428.0, 1427.0, 1425.0, 1425.0, 1425.0, 1427.0, 1427.0, 1426.0, 1425.0, 1425.0, 1424.0, 1426.0, 1426.0, 1426.0, 1427.0, 1427.0, 1428.0, 1429.0, 1429.0, 1429.0, 1429.0, 1429.0, 1429.0, 1430.0, 1429.0, 1427.0, 1425.0, 1423.0, 1424.0, 1424.0, 1425.0, 1426.0, 1426.0, 1425.0, 1425.0, 1423.0, 1422.0, 1422.0, 1422.0, 1424.0, 1422.0, 1423.0, 1422.0, 1422.0, 1420.0, 1420.0, 1418.0, 1418.0, 1418.0, 1419.0, 1418.0, 1420.0, 1423.0, 1424.0, 1425.0, 1426.0, 1423.0, 1421.0, 1434.0, 1434.0, 1433.0, 1429.0, 1425.0, 1420.0, 1418.0, 1419.0, 1420.0, 1420.0]
    },
    "slices": {}
  }
}