{
  "AcquisitionMatrixPE": 72,
  "AcquisitionNumber": 1,
  "AcquisitionTime": "18:07:35.082500",
  "BandwidthPerPixelPhaseEncode": 17.943,
  "BaseResolution": 96,
  "BodyPartExamined": "BRAIN",
  "CoilCombinationMethod": "Sum of Squares",
  "ConsistencyInfo": "N4_VE11C_LATEST_20160120",
  "ConversionSoftware": "dcm2niix",
  "ConversionSoftwareVersion": "v1.0.20211006",
  "DerivedVendorReportedEchoSpacing": 0.000552897,
  "DeviceSerialNumber": "166011",
  "EchoTime": 0.03,
  "EchoTrainLength": 58,
  "EffectiveEchoSpacing": 0.000580542,
  "FlipAngle": 62,
  "ImageOrientationPatientDICOM": [0.999871, -0.0097751, 0.0127186, 0.0118672, 0.98423, -0.176495],
  "ImageType": [
    "ORIGINAL",
    "PRIMARY",
    "M",
    "ND",
    "MOSAIC"
],
  "ImagingFrequency": 123.26,
  "InPlanePhaseEncodingDirectionDICOM": "COL",
  "InstitutionAddress": "West 130th Street 610,NY,NYC,US,10025",
  "InstitutionName": "MBBI",
  "MRAcquisitionType": "2D",
  "MagneticFieldStrength": 3,
  "Manufacturer": "Siemens",
  "ManufacturersModelName": "Prisma",
  "Modality": "MR",
  "MultibandAccelerationFactor": 3,
  "PartialFourier": 0.75,
  "PatientPosition": "HFS",
  "PercentPhaseFOV": 100,
  "PercentSampling": 75,
  "PhaseEncodingDirection": "j-",
  "PhaseEncodingSteps": 58,
  "PhaseOversampling": 0.05,
  "PhaseResolution": 0.75,
  "PixelBandwidth": 2265,
  "ProcedureStepDescription": "White^Word_recognition",
  "ProtocolName": "func_vwfate_run7",
  "PulseSequenceDetails": "%SiemensSeq%\\ep2d_bold",
  "ReceiveCoilActiveElements": "HC1-7",
  "ReceiveCoilName": "HeadNeck_64",
  "ReconMatrixPE": 96,
  "RefLinesPE": 40,
  "RepetitionTime": 1.5,
  "SAR": 0.0540222,
  "ScanOptions": "PFP\\FS",
  "ScanningSequence": "EP",
  "SequenceName": "*epfid2d1_72",
  "SequenceVariant": "SK\\OSP",
  "SeriesDescription": "func_vwfate_run7",
  "SeriesNumber": 8,
  "ShimSetting": [-1134, -1360, 663, 584, -28, -3, 53, 14],
  "SliceThickness": 2,
  "SliceTiming": [1.075, 0, 0.74, 0.065, 0.805, 0.1325, 0.8725, 0.2, 0.94, 0.2675, 1.0075, 0.4025, 1.1425, 0.47, 1.21, 0.5375, 1.2775, 0.605, 1.345, 0.6725, 1.4125, 0.335, 1.075, 0, 0.74, 0.065, 0.805, 0.1325, 0.8725, 0.2, 0.94, 0.2675, 1.0075, 0.4025, 1.1425, 0.47, 1.21, 0.5375, 1.2775, 0.605, 1.345, 0.6725, 1.4125, 0.335, 1.075, 0, 0.74, 0.065, 0.805, 0.1325, 0.8725, 0.2, 0.94, 0.2675, 1.0075, 0.4025, 1.1425, 0.47, 1.21, 0.5375, 1.2775, 0.605, 1.345, 0.6725, 1.4125, 0.335],
  "SoftwareVersions": "syngo MR E11",
  "SpacingBetweenSlices": 2,
  "StationName": "AWP166011",
  "TaskName": "vwfate",
  "TotalReadoutTime": 0.0551515,
  "TxRefAmp": 231.124,
  "dcmmeta_affine": [
    [-1.9997426271438599, 0.023734482005238533, 0.02158551849424839, 95.99500274658203],
    [0.019550200551748276, 1.968459963798523, -0.35324645042419434, -64.4208984375],
    [0.02543717622756958, 0.3529900014400482, 1.968438744544983, -94.11052703857422],
    [0.0, 0.0, 0.0, 1.0]
],
  "dcmmeta_reorient_transform": [
    [0.0, -1.0, 0.0, 95.0],
    [1.0, 0.0, 0.0, 0.0],
    [0.0, 0.0, 1.0, 0.0],
    [0.0, 0.0, 0.0, 1.0]
],
  "dcmmeta_shape": [96, 96, 66, 164],
  "dcmmeta_slice_dim": 2,
  "dcmmeta_version": 0.6,
  "global": {
    "const": {
      "AcquisitionMatrix": [96, 0, 0, 72],
      "AngioFlag": "N",
      "BitsAllocated": 16,
      "BitsStored": 12,
      "BodyPartExamined": "BRAIN",
      "Columns": 864,
      "EchoNumbers": 1,
      "EchoTime": 30.0,
      "EchoTrainLength": 58,
      "FlipAngle": 62.0,
      "HighBit": 11,
      "ImageOrientationPatient": [0.99987133419213, -0.0097751002274, 0.01271858783043, 0.01186724085821, 0.98422999623304, -0.1764949945736],
      "ImagePositionPatient": [-875.26500036163, -870.96416160337, 65.203804195586],
      "ImageType": [
        "ORIGINAL",
        "PRIMARY",
        "M",
        "ND",
        "MOSAIC"
],
      "ImagedNucleus": "1H",
      "ImagingFrequency": 123.259539,
      "InPlanePhaseEncodingDirection": "COL",
      "MRAcquisitionType": "2D",
      "MagneticFieldStrength": 3.0,
      "Manufacturer": "SIEMENS",
      "ManufacturerModelName": "Prisma",
      "Modality": "MR",
      "NumberOfAverages": 1.0,
      "NumberOfPhaseEncodingSteps": 58,
      "PercentPhaseFieldOfView": 100.0,
      "PercentSampling": 75.0,
      "PerformedProcedureStepStartTime": "174347.314000",
      "PhotometricInterpretation": "MONOCHROME2",
      "PixelBandwidth": 2265.0,
      "PixelRepresentation": 0,
      "PixelSpacing": [2.0, 2.0],
      "ProtocolName": "func_vwfate_run7",
      "RepetitionTime": 1500.0,
      "Rows": 864,
      "SAR": 0.05402224896936,
      "SamplesPerPixel": 1,
      "ScanOptions": [
        "PFP",
        "FS"
],
      "ScanningSequence": "EP",
      "SequenceName": "*epfid2d1_72",
      "SequenceVariant": [
        "SK",
        "OSP"
],
      "SeriesDescription": "func_vwfate_run7",
      "SeriesNumber": 8,
      "SeriesTime": "180816.431000",
      "SliceLocation": -80.211123762971,
      "SliceThickness": 2.0,
      "SmallestImagePixelValue": 0,
      "SoftwareVersions": "syngo MR E11",
      "SpacingBetweenSlices": 2.000000051101,
      "SpecificCharacterSet": "ISO_IR 100",
      "StudyID": "1",
      "StudyTime": "174347.248000",
      "TransmitCoilName": "Body",
      "VariableFlipAngleFlag": "N",
      "WindowCenterWidthExplanation": "Algo1",
      "dBdt": 0.0},
    "slices": {}
  },
  "time": {
    "samples": {
      "AcquisitionNumber": [1, 2, 3, 4, 5, 6, 7, 8, 9, 10, 11, 12, 13, 14, 15, 16, 17, 18, 19, 20, 21, 22, 23, 24, 25, 26, 27, 28, 29, 30, 31, 32, 33, 34, 35, 36, 37, 38, 39, 40, 41, 42, 43, 44, 45, 46, 47, 48, 49, 50, 51, 52, 53, 54, 55, 56, 57, 58, 59, 60, 61, 62, 63, 64, 65, 66, 67, 68, 69, 70, 71, 72, 73, 74, 75, 76, 77, 78, 79, 80, 81, 82, 83, 84, 85, 86, 87, 88, 89, 90, 91, 92, 93, 94, 95, 96, 97, 98, 99, 100, 101, 102, 103, 104, 105, 106, 107, 108, 109, 110, 111, 112, 113, 114, 115, 116, 117, 118, 119, 120, 121, 122, 123, 124, 125, 126, 127, 128, 129, 130, 131, 132, 133, 134, 135, 136, 137, 138, 139, 140, 141, 142, 143, 144, 145, 146, 147, 148, 149, 150, 151, 152, 153, 154, 155, 156, 157, 158, 159, 160, 161, 162, 163, 164],
      "AcquisitionTime": ["180735.082500", "180736.582500", "180738.082500", "180739.582500", "180741.082500", "180742.582500", "180744.082500", "180745.582500", "180747.082500", "180748.582500", "180750.082500", "180751.582500", "180753.082500", "180754.582500", "180756.082500", "180757.582500", "180759.082500", "180800.582500", "180802.082500", "180803.582500", "180805.082500", "180806.582500", "180808.082500", "180809.582500", "180811.082500", "180812.582500", "180814.082500", "180815.582500", "180817.082500", "180818.582500", "180820.082500", "180821.582500", "180823.082500", "180824.582500", "180826.082500", "180827.582500", "180829.082500", "180830.582500", "180832.082500", "180833.582500", "180835.082500", "180836.582500", "180838.082500", "180839.582500", "180841.082500", "180842.582500", "180844.082500", "180845.582500", "180847.082500", "180848.582500", "180850.082500", "180851.582500", "180853.082500", "180854.582500", "180856.082500", "180857.582500", "180859.082500", "180900.582500", "180902.082500", "180903.582500", "180905.082500", "180906.582500", "180908.082500", "180909.582500", "180911.082500", "180912.582500", "180914.082500", "180915.582500", "180917.082500", "180918.582500", "180920.082500", "180921.582500", "180923.082500", "180924.582500", "180926.082500", "180927.582500", "180929.082500", "180930.582500", "180932.082500", "180933.582500", "180935.082500", "180936.582500", "180938.082500", "180939.582500", "180941.082500", "180942.582500", "180944.082500", "180945.582500", "180947.082500", "180948.582500", "180950.082500", "180951.582500", "180953.082500", "180954.582500", "180956.082500", "180957.582500", "180959.082500", "181000.582500", "181002.082500", "181003.582500", "181005.082500", "181006.582500", "181008.082500", "181009.582500", "181011.082500", "181012.582500", "181014.082500", "181015.582500", "181017.082500", "181018.582500", "181020.082500", "181021.582500", "181023.082500", "181024.582500", "181026.082500", "181027.582500", "181029.082500", "181030.582500", "181032.082500", "181033.582500", "181035.082500", "181036.582500", "181038.082500", "181039.582500", "181041.082500", "181042.582500", "181044.082500", "181045.582500", "181047.082500", "181048.582500", "181050.082500", "181051.582500", "181053.082500", "181054.582500", "181056.082500", "181057.582500", "181059.082500", "181100.582500", "181102.082500", "181103.582500", "181105.082500", "181106.582500", "181108.082500", "181109.582500", "181111.082500", "181112.582500", "181114.082500", "181115.582500", "181117.082500", "181118.582500", "181120.082500", "181121.582500", "181123.082500", "181124.582500", "181126.082500", "181127.582500", "181129.082500", "181130.582500", "181132.082500", "181133.582500", "181135.082500", "181136.582500", "181138.082500", "181139.582500"],
      "ContentTime": ["180816.435000", "180816.442000", "180816.445000", "180816.449000", "180816.453000", "180816.456000", "180816.459000", "180816.466000", "180816.469000", "180816.472000", "180816.475000", "180816.479000", "180816.482000", "180816.485000", "180816.488000", "180816.491000", "180816.494000", "180816.497000", "180816.500000", "180816.503000", "180816.506000", "180816.509000", "180816.512000", "180816.515000", "180816.518000", "180816.521000", "180816.524000", "180856.430000", "180856.436000", "180856.439000", "180856.442000", "180856.445000", "180856.448000", "180856.451000", "180856.454000", "180856.457000", "180856.460000", "180856.463000", "180856.466000", "180856.469000", "180856.472000", "180856.475000", "180856.478000", "180856.481000", "180856.488000", "180856.491000", "180856.494000", "180856.497000", "180856.500000", "180856.503000", "180856.506000", "180856.509000", "180856.512000", "180856.515000", "180936.430000", "180936.433000", "180936.436000", "180936.439000", "180936.442000", "180936.445000", "180936.465000", "180936.468000", "180936.471000", "180936.474000", "180936.477000", "180936.480000", "180936.483000", "180936.486000", "180936.489000", "180936.492000", "180936.495000", "180936.498000", "180936.501000", "180936.504000", "180936.507000", "180936.510000", "180936.513000", "180936.516000", "180936.519000", "180936.522000", "181016.430000", "181016.433000", "181016.436000", "181016.439000", "181016.442000", "181016.446000", "181016.449000", "181016.452000", "181016.455000", "181016.458000", "181016.461000", "181016.464000", "181016.467000", "181016.470000", "181016.473000", "181016.476000", "181016.479000", "181016.482000", "181016.485000", "181016.488000", "181016.491000", "181016.494000", "181016.497000", "181016.500000", "181016.503000", "181016.506000", "181016.509000", "181056.430000", "181056.433000", "181056.437000", "181056.440000", "181056.443000", "181056.446000", "181056.449000", "181056.452000", "181056.455000", "181056.458000", "181056.461000", "181056.464000", "181056.467000", "181056.470000", "181056.473000", "181056.476000", "181056.479000", "181056.482000", "181056.485000", "181056.488000", "181056.495000", "181056.498000", "181056.501000", "181056.504000", "181056.507000", "181056.510000", "181056.514000", "181136.430000", "181136.433000", "181136.436000", "181136.439000", "181136.442000", "181136.446000", "181136.449000", "181136.452000", "181136.455000", "181136.458000", "181136.461000", "181136.464000", "181136.467000", "181136.470000", "181136.473000", "181136.476000", "181136.479000", "181136.482000", "181136.485000", "181136.488000", "181136.491000", "181136.494000", "181136.497000", "181136.500000", "181136.503000", "181136.506000", "181141.181000", "181141.185000", "181141.188000", "181141.191000"],
      "InstanceCreationTime": ["180816.435000", "180816.442000", "180816.445000", "180816.449000", "180816.453000", "180816.456000", "180816.459000", "180816.466000", "180816.469000", "180816.472000", "180816.475000", "180816.479000", "180816.482000", "180816.485000", "180816.488000", "180816.491000", "180816.494000", "180816.497000", "180816.500000", "180816.503000", "180816.506000", "180816.509000", "180816.512000", "180816.515000", "180816.518000", "180816.521000", "180816.524000", "180856.430000", "180856.436000", "180856.439000", "180856.442000", "180856.445000", "180856.448000", "180856.451000", "180856.454000", "180856.457000", "180856.460000", "180856.463000", "180856.466000", "180856.469000", "180856.472000", "180856.475000", "180856.478000", "180856.481000", "180856.488000", "180856.491000", "180856.494000", "180856.497000", "180856.500000", "180856.503000", "180856.506000", "180856.509000", "180856.512000", "180856.515000", "180936.430000", "180936.433000", "180936.436000", "180936.439000", "180936.442000", "180936.445000", "180936.465000", "180936.468000", "180936.471000", "180936.474000", "180936.477000", "180936.480000", "180936.483000", "180936.486000", "180936.489000", "180936.492000", "180936.495000", "180936.498000", "180936.501000", "180936.504000", "180936.507000", "180936.510000", "180936.513000", "180936.516000", "180936.519000", "180936.522000", "181016.430000", "181016.433000", "181016.436000", "181016.439000", "181016.442000", "181016.446000", "181016.449000", "181016.452000", "181016.455000", "181016.458000", "181016.461000", "181016.464000", "181016.467000", "181016.470000", "181016.473000", "181016.476000", "181016.479000", "181016.482000", "181016.485000", "181016.488000", "181016.491000", "181016.494000", "181016.497000", "181016.500000", "181016.503000", "181016.506000", "181016.509000", "181056.430000", "181056.433000", "181056.437000", "181056.440000", "181056.443000", "181056.446000", "181056.449000", "181056.452000", "181056.455000", "181056.458000", "181056.461000", "181056.464000", "181056.467000", "181056.470000", "181056.473000", "181056.476000", "181056.479000", "181056.482000", "181056.485000", "181056.488000", "181056.495000", "181056.498000", "181056.501000", "181056.504000", "181056.507000", "181056.510000", "181056.514000", "181136.430000", "181136.433000", "181136.436000", "181136.439000", "181136.442000", "181136.446000", "181136.449000", "181136.452000", "181136.455000", "181136.458000", "181136.461000", "181136.464000", "181136.467000", "181136.470000", "181136.473000", "181136.476000", "181136.479000", "181136.482000", "181136.485000", "181136.488000", "181136.491000", "181136.494000", "181136.497000", "181136.500000", "181136.503000", "181136.506000", "181141.181000", "181141.185000", "181141.188000", "181141.191000"],
      "InstanceNumber": [1, 2, 3, 4, 5, 6, 7, 8, 9, 10, 11, 12, 13, 14, 15, 16, 17, 18, 19, 20, 21, 22, 23, 24, 25, 26, 27, 28, 29, 30, 31, 32, 33, 34, 35, 36, 37, 38, 39, 40, 41, 42, 43, 44, 45, 46, 47, 48, 49, 50, 51, 52, 53, 54, 55, 56, 57, 58, 59, 60, 61, 62, 63, 64, 65, 66, 67, 68, 69, 70, 71, 72, 73, 74, 75, 76, 77, 78, 79, 80, 81, 82, 83, 84, 85, 86, 87, 88, 89, 90, 91, 92, 93, 94, 95, 96, 97, 98, 99, 100, 101, 102, 103, 104, 105, 106, 107, 108, 109, 110, 111, 112, 113, 114, 115, 116, 117, 118, 119, 120, 121, 122, 123, 124, 125, 126, 127, 128, 129, 130, 131, 132, 133, 134, 135, 136, 137, 138, 139, 140, 141, 142, 143, 144, 145, 146, 147, 148, 149, 150, 151, 152, 153, 154, 155, 156, 157, 158, 159, 160, 161, 162, 163, 164],
      "LargestImagePixelValue": [2679, 2646, 2556, 2578, 2562, 2604, 2618, 2594, 2601, 2573, 2574, 2593, 2581, 2554, 2548, 2556, 2553, 2561, 2556, 2539, 2568, 2536, 2527, 2510, 2537, 2476, 2512, 2501, 2512, 2461, 2477, 2477, 2454, 2455, 2447, 2465, 2443, 2456, 2449, 2493, 2475, 2471, 2482, 2492, 2485, 2498, 2476, 2466, 2499, 2484, 2470, 2479, 2485, 2505, 2484, 2505, 2475, 2487, 2501, 2492, 2501, 2497, 2515, 2486, 2493, 2474, 2502, 2462, 2505, 2495, 2519, 2488, 2493, 2465, 2518, 2490, 2495, 2516, 2479, 2488, 2469, 2491, 2473, 2477, 2476, 2470, 2491, 2464, 2479, 2486, 2488, 2488, 2473, 2483, 2468, 2500, 2461, 2495, 2441, 2477, 2476, 2482, 2480, 2469, 2334, 2675, 2597, 2514, 2473, 2378, 2395, 2401, 2440, 2419, 2423, 2461, 2434, 2445, 2439, 2452, 2412, 2421, 2425, 2431, 2409, 2384, 2386, 2404, 2403, 2374, 2404, 2397, 2414, 2414, 2394, 2396, 2401, 2392, 2371, 2397, 2383, 2420, 2376, 2412, 2405, 2387, 2404, 2421, 2381, 2405, 2391, 2404, 2412, 2412, 2399, 2402, 2415, 2394, 2405, 2400, 2381, 2366, 2391, 2382],
      "WindowCenter": [680.0, 679.0, 678.0, 678.0, 678.0, 678.0, 678.0, 677.0, 677.0, 676.0, 676.0, 675.0, 675.0, 675.0, 675.0, 675.0, 675.0, 674.0, 674.0, 674.0, 674.0, 674.0, 674.0, 674.0, 675.0, 675.0, 675.0, 675.0, 676.0, 675.0, 675.0, 675.0, 675.0, 675.0, 675.0, 675.0, 676.0, 676.0, 676.0, 677.0, 676.0, 676.0, 676.0, 676.0, 675.0, 676.0, 675.0, 676.0, 675.0, 675.0, 675.0, 675.0, 676.0, 676.0, 677.0, 676.0, 676.0, 675.0, 675.0, 676.0, 675.0, 676.0, 676.0, 676.0, 676.0, 676.0, 675.0, 675.0, 675.0, 675.0, 675.0, 675.0, 675.0, 674.0, 675.0, 675.0, 676.0, 676.0, 677.0, 676.0, 676.0, 676.0, 675.0, 676.0, 676.0, 676.0, 676.0, 675.0, 675.0, 675.0, 676.0, 677.0, 677.0, 677.0, 676.0, 675.0, 675.0, 675.0, 675.0, 675.0, 676.0, 676.0, 676.0, 676.0, 666.0, 673.0, 674.0, 674.0, 674.0, 672.0, 671.0, 669.0, 668.0, 667.0, 667.0, 667.0, 667.0, 667.0, 668.0, 669.0, 670.0, 671.0, 671.0, 671.0, 671.0, 671.0, 672.0, 673.0, 674.0, 673.0, 673.0, 673.0, 673.0, 673.0, 673.0, 673.0, 673.0, 672.0, 672.0, 672.0, 672.0, 672.0, 672.0, 673.0, 673.0, 673.0, 673.0, 674.0, 674.0, 673.0, 673.0, 674.0, 674.0, 674.0, 674.0, 673.0, 673.0, 673.0, 672.0, 672.0, 672.0, 671.0, 672.0, 671.0],
      "WindowWidth": [1458.0, 1455.0, 1452.0, 1453.0, 1452.0, 1452.0, 1451.0, 1450.0, 1448.0, 1447.0, 1446.0, 1445.0, 1445.0, 1445.0, 1445.0, 1446.0, 1444.0, 1443.0, 1442.0, 1442.0, 1442.0, 1442.0, 1442.0, 1443.0, 1444.0, 1444.0, 1446.0, 1445.0, 1447.0, 1445.0, 1445.0, 1445.0, 1444.0, 1444.0, 1445.0, 1446.0, 1448.0, 1448.0, 1448.0, 1449.0, 1448.0, 1448.0, 1448.0, 1447.0, 1446.0, 1447.0, 1446.0, 1446.0, 1446.0, 1445.0, 1446.0, 1444.0, 1447.0, 1448.0, 1449.0, 1448.0, 1447.0, 1445.0, 1445.0, 1447.0, 1446.0, 1447.0, 1448.0, 1447.0, 1448.0, 1446.0, 1445.0, 1445.0, 1445.0, 1445.0, 1445.0, 1444.0, 1445.0, 1443.0, 1445.0, 1445.0, 1447.0, 1447.0, 1448.0, 1448.0, 1447.0, 1446.0, 1445.0, 1446.0, 1446.0, 1447.0, 1446.0, 1444.0, 1444.0, 1444.0, 1446.0, 1449.0, 1450.0, 1449.0, 1447.0, 1445.0, 1444.0, 1446.0, 1445.0, 1445.0, 1447.0, 1447.0, 1447.0, 1448.0, 1421.0, 1439.0, 1442.0, 1440.0, 1442.0, 1437.0, 1433.0, 1430.0, 1426.0, 1424.0, 1423.0, 1424.0, 1424.0, 1425.0, 1426.0, 1430.0, 1432.0, 1433.0, 1434.0, 1434.0, 1434.0, 1435.0, 1436.0, 1438.0, 1441.0, 1438.0, 1438.0, 1439.0, 1438.0, 1439.0, 1439.0, 1438.0, 1438.0, 1437.0, 1436.0, 1436.0, 1436.0, 1437.0, 1437.0, 1438.0, 1440.0, 1440.0, 1440.0, 1441.0, 1441.0, 1440.0, 1440.0, 1441.0, 1442.0, 1441.0, 1441.0, 1440.0, 1440.0, 1439.0, 1438.0, 1436.0, 1436.0, 1435.0, 1436.0, 1435.0]
    },
    "slices": {}
  }
}