{
  "AcquisitionMatrixPE": 72,
  "AcquisitionNumber": 1,
  "AcquisitionTime": "18:44:5.847500",
  "BandwidthPerPixelPhaseEncode": 17.943,
  "BaseResolution": 96,
  "BodyPartExamined": "BRAIN",
  "CoilCombinationMethod": "Sum of Squares",
  "ConsistencyInfo": "N4_VE11C_LATEST_20160120",
  "ConversionSoftware": "dcm2niix",
  "ConversionSoftwareVersion": "v1.0.20211006",
  "DerivedVendorReportedEchoSpacing": 0.000552897,
  "DeviceSerialNumber": "166011",
  "EchoTime": 0.03,
  "EchoTrainLength": 58,
  "EffectiveEchoSpacing": 0.000580542,
  "FlipAngle": 62,
  "ImageOrientationPatientDICOM": [0.999871, -0.0097751, 0.0127186, 0.0118672, 0.98423, -0.176495],
  "ImageType": [
    "ORIGINAL",
    "PRIMARY",
    "M",
    "ND",
    "MOSAIC"
],
  "ImagingFrequency": 123.26,
  "InPlanePhaseEncodingDirectionDICOM": "COL",
  "InstitutionAddress": "West 130th Street 610,NY,NYC,US,10025",
  "InstitutionName": "MBBI",
  "MRAcquisitionType": "2D",
  "MagneticFieldStrength": 3,
  "Manufacturer": "Siemens",
  "ManufacturersModelName": "Prisma",
  "Modality": "MR",
  "MultibandAccelerationFactor": 3,
  "PartialFourier": 0.75,
  "PatientPosition": "HFS",
  "PercentPhaseFOV": 100,
  "PercentSampling": 75,
  "PhaseEncodingDirection": "j-",
  "PhaseEncodingSteps": 58,
  "PhaseOversampling": 0.05,
  "PhaseResolution": 0.75,
  "PixelBandwidth": 2265,
  "ProcedureStepDescription": "White^Word_recognition",
  "ProtocolName": "func_vwfate_run11",
  "PulseSequenceDetails": "%SiemensSeq%\\ep2d_bold",
  "ReceiveCoilActiveElements": "HC1-7",
  "ReceiveCoilName": "HeadNeck_64",
  "ReconMatrixPE": 96,
  "RefLinesPE": 40,
  "RepetitionTime": 1.5,
  "SAR": 0.0540222,
  "ScanOptions": "PFP\\FS",
  "ScanningSequence": "EP",
  "SequenceName": "*epfid2d1_72",
  "SequenceVariant": "SK\\OSP",
  "SeriesDescription": "func_vwfate_run11",
  "SeriesNumber": 14,
  "ShimSetting": [-1134, -1360, 663, 584, -28, -3, 53, 14],
  "SliceThickness": 2,
  "SliceTiming": [1.0775, 0, 0.74, 0.0675, 0.8075, 0.135, 0.875, 0.2025, 0.9425, 0.27, 1.01, 0.405, 1.145, 0.4725, 1.2125, 0.54, 1.28, 0.6075, 1.3475, 0.6725, 1.4125, 0.3375, 1.0775, 0, 0.74, 0.0675, 0.8075, 0.135, 0.875, 0.2025, 0.9425, 0.27, 1.01, 0.405, 1.145, 0.4725, 1.2125, 0.54, 1.28, 0.6075, 1.3475, 0.6725, 1.4125, 0.3375, 1.0775, 0, 0.74, 0.0675, 0.8075, 0.135, 0.875, 0.2025, 0.9425, 0.27, 1.01, 0.405, 1.145, 0.4725, 1.2125, 0.54, 1.28, 0.6075, 1.3475, 0.6725, 1.4125, 0.3375],
  "SoftwareVersions": "syngo MR E11",
  "SpacingBetweenSlices": 2,
  "StationName": "AWP166011",
  "TaskName": "vwfate",
  "TotalReadoutTime": 0.0551515,
  "TxRefAmp": 231.124,
  "dcmmeta_affine": [
    [-1.9997426271438599, 0.023734482005238533, 0.02158551849424839, 95.99500274658203],
    [0.019550200551748276, 1.968459963798523, -0.35324645042419434, -64.4208984375],
    [0.02543717622756958, 0.3529900014400482, 1.968438744544983, -94.11052703857422],
    [0.0, 0.0, 0.0, 1.0]
],
  "dcmmeta_reorient_transform": [
    [0.0, -1.0, 0.0, 95.0],
    [1.0, 0.0, 0.0, 0.0],
    [0.0, 0.0, 1.0, 0.0],
    [0.0, 0.0, 0.0, 1.0]
],
  "dcmmeta_shape": [96, 96, 66, 164],
  "dcmmeta_slice_dim": 2,
  "dcmmeta_version": 0.6,
  "global": {
    "const": {
      "AcquisitionMatrix": [96, 0, 0, 72],
      "AngioFlag": "N",
      "BitsAllocated": 16,
      "BitsStored": 12,
      "BodyPartExamined": "BRAIN",
      "Columns": 864,
      "EchoNumbers": 1,
      "EchoTime": 30.0,
      "EchoTrainLength": 58,
      "FlipAngle": 62.0,
      "HighBit": 11,
      "ImageOrientationPatient": [0.99987133419213, -0.0097751002274, 0.01271858783043, 0.01186724085821, 0.98422999623304, -0.1764949945736],
      "ImagePositionPatient": [-875.26500036163, -870.96416160337, 65.203804195586],
      "ImageType": [
        "ORIGINAL",
        "PRIMARY",
        "M",
        "ND",
        "MOSAIC"
],
      "ImagedNucleus": "1H",
      "ImagingFrequency": 123.259564,
      "InPlanePhaseEncodingDirection": "COL",
      "MRAcquisitionType": "2D",
      "MagneticFieldStrength": 3.0,
      "Manufacturer": "SIEMENS",
      "ManufacturerModelName": "Prisma",
      "Modality": "MR",
      "NumberOfAverages": 1.0,
      "NumberOfPhaseEncodingSteps": 58,
      "PercentPhaseFieldOfView": 100.0,
      "PercentSampling": 75.0,
      "PerformedProcedureStepStartTime": "174347.314000",
      "PhotometricInterpretation": "MONOCHROME2",
      "PixelBandwidth": 2265.0,
      "PixelRepresentation": 0,
      "PixelSpacing": [2.0, 2.0],
      "ProtocolName": "func_vwfate_run11",
      "RepetitionTime": 1500.0,
      "Rows": 864,
      "SAR": 0.05402224896936,
      "SamplesPerPixel": 1,
      "ScanOptions": [
        "PFP",
        "FS"
],
      "ScanningSequence": "EP",
      "SequenceName": "*epfid2d1_72",
      "SequenceVariant": [
        "SK",
        "OSP"
],
      "SeriesDescription": "func_vwfate_run11",
      "SeriesNumber": 14,
      "SeriesTime": "184436.446000",
      "SliceLocation": -80.211123762971,
      "SliceThickness": 2.0,
      "SmallestImagePixelValue": 0,
      "SoftwareVersions": "syngo MR E11",
      "SpacingBetweenSlices": 2.000000051101,
      "SpecificCharacterSet": "ISO_IR 100",
      "StudyID": "1",
      "StudyTime": "174347.248000",
      "TransmitCoilName": "Body",
      "VariableFlipAngleFlag": "N",
      "WindowCenterWidthExplanation": "Algo1",
      "dBdt": 0.0},
    "slices": {}
  },
  "time": {
    "samples": {
      "AcquisitionNumber": [1, 2, 3, 4, 5, 6, 7, 8, 9, 10, 11, 12, 13, 14, 15, 16, 17, 18, 19, 20, 21, 22, 23, 24, 25, 26, 27, 28, 29, 30, 31, 32, 33, 34, 35, 36, 37, 38, 39, 40, 41, 42, 43, 44, 45, 46, 47, 48, 49, 50, 51, 52, 53, 54, 55, 56, 57, 58, 59, 60, 61, 62, 63, 64, 65, 66, 67, 68, 69, 70, 71, 72, 73, 74, 75, 76, 77, 78, 79, 80, 81, 82, 83, 84, 85, 86, 87, 88, 89, 90, 91, 92, 93, 94, 95, 96, 97, 98, 99, 100, 101, 102, 103, 104, 105, 106, 107, 108, 109, 110, 111, 112, 113, 114, 115, 116, 117, 118, 119, 120, 121, 122, 123, 124, 125, 126, 127, 128, 129, 130, 131, 132, 133, 134, 135, 136, 137, 138, 139, 140, 141, 142, 143, 144, 145, 146, 147, 148, 149, 150, 151, 152, 153, 154, 155, 156, 157, 158, 159, 160, 161, 162, 163, 164],
      "AcquisitionTime": ["184405.847500", "184407.347500", "184408.847500", "184410.347500", "184411.847500", "184413.347500", "184414.847500", "184416.347500", "184417.847500", "184419.347500", "184420.847500", "184422.347500", "184423.847500", "184425.347500", "184426.847500", "184428.347500", "184429.847500", "184431.347500", "184432.847500", "184434.347500", "184435.847500", "184437.347500", "184438.847500", "184440.347500", "184441.847500", "184443.347500", "184444.847500", "184446.347500", "184447.847500", "184449.347500", "184450.847500", "184452.347500", "184453.847500", "184455.347500", "184456.847500", "184458.347500", "184459.847500", "184501.347500", "184502.847500", "184504.347500", "184505.847500", "184507.347500", "184508.847500", "184510.347500", "184511.847500", "184513.347500", "184514.847500", "184516.347500", "184517.847500", "184519.347500", "184520.847500", "184522.347500", "184523.847500", "184525.347500", "184526.847500", "184528.347500", "184529.847500", "184531.347500", "184532.847500", "184534.347500", "184535.847500", "184537.347500", "184538.847500", "184540.347500", "184541.847500", "184543.347500", "184544.847500", "184546.347500", "184547.847500", "184549.347500", "184550.847500", "184552.347500", "184553.847500", "184555.347500", "184556.847500", "184558.347500", "184559.847500", "184601.347500", "184602.847500", "184604.347500", "184605.847500", "184607.347500", "184608.847500", "184610.347500", "184611.847500", "184613.347500", "184614.847500", "184616.347500", "184617.847500", "184619.347500", "184620.847500", "184622.347500", "184623.847500", "184625.347500", "184626.847500", "184628.347500", "184629.847500", "184631.347500", "184632.847500", "184634.347500", "184635.847500", "184637.347500", "184638.847500", "184640.347500", "184641.847500", "184643.347500", "184644.847500", "184646.347500", "184647.847500", "184649.347500", "184650.847500", "184652.347500", "184653.847500", "184655.347500", "184656.847500", "184658.347500", "184659.847500", "184701.347500", "184702.847500", "184704.347500", "184705.847500", "184707.347500", "184708.847500", "184710.347500", "184711.847500", "184713.347500", "184714.847500", "184716.347500", "184717.847500", "184719.347500", "184720.847500", "184722.347500", "184723.847500", "184725.347500", "184726.847500", "184728.347500", "184729.847500", "184731.347500", "184732.847500", "184734.347500", "184735.847500", "184737.347500", "184738.847500", "184740.347500", "184741.847500", "184743.347500", "184744.847500", "184746.347500", "184747.847500", "184749.347500", "184750.847500", "184752.347500", "184753.847500", "184755.347500", "184756.847500", "184758.347500", "184759.847500", "184801.347500", "184802.847500", "184804.347500", "184805.847500", "184807.347500", "184808.847500", "184810.347500"],
      "ContentTime": ["184436.450000", "184436.454000", "184436.465000", "184436.468000", "184436.471000", "184436.474000", "184436.477000", "184436.480000", "184436.483000", "184436.486000", "184436.489000", "184436.492000", "184436.495000", "184436.498000", "184436.501000", "184436.504000", "184436.507000", "184436.510000", "184436.513000", "184436.516000", "184516.430000", "184516.433000", "184516.436000", "184516.439000", "184516.447000", "184516.450000", "184516.453000", "184516.456000", "184516.459000", "184516.462000", "184516.465000", "184516.468000", "184516.471000", "184516.474000", "184516.477000", "184516.480000", "184516.483000", "184516.486000", "184516.489000", "184516.492000", "184516.495000", "184516.498000", "184516.501000", "184516.504000", "184516.507000", "184516.510000", "184516.513000", "184556.430000", "184556.438000", "184556.441000", "184556.444000", "184556.447000", "184556.450000", "184556.453000", "184556.456000", "184556.459000", "184556.462000", "184556.465000", "184556.468000", "184556.471000", "184556.474000", "184556.477000", "184556.480000", "184556.483000", "184556.486000", "184556.489000", "184556.492000", "184556.495000", "184556.498000", "184556.501000", "184556.504000", "184556.507000", "184556.516000", "184636.430000", "184636.433000", "184636.436000", "184636.439000", "184636.442000", "184636.445000", "184636.448000", "184636.451000", "184636.454000", "184636.457000", "184636.460000", "184636.463000", "184636.466000", "184636.469000", "184636.472000", "184636.475000", "184636.478000", "184636.481000", "184636.484000", "184636.487000", "184636.490000", "184636.493000", "184636.496000", "184636.499000", "184636.502000", "184636.505000", "184636.508000", "184716.430000", "184716.433000", "184716.436000", "184716.439000", "184716.442000", "184716.445000", "184716.448000", "184716.451000", "184716.454000", "184716.457000", "184716.460000", "184716.463000", "184716.467000", "184716.469000", "184716.472000", "184716.476000", "184716.479000", "184716.482000", "184716.485000", "184716.487000", "184716.490000", "184716.493000", "184716.496000", "184716.499000", "184716.503000", "184716.506000", "184716.509000", "184756.429000", "184756.432000", "184756.435000", "184756.438000", "184756.441000", "184756.444000", "184756.447000", "184756.450000", "184756.453000", "184756.456000", "184756.460000", "184756.463000", "184756.466000", "184756.469000", "184756.472000", "184756.475000", "184756.478000", "184756.481000", "184756.484000", "184756.487000", "184756.490000", "184756.493000", "184756.496000", "184756.499000", "184756.502000", "184756.505000", "184811.604000", "184811.607000", "184811.611000", "184811.614000", "184811.617000", "184811.620000", "184811.623000", "184811.626000", "184811.629000", "184811.633000", "184811.636000"],
      "InstanceCreationTime": ["184436.450000", "184436.454000", "184436.465000", "184436.468000", "184436.471000", "184436.474000", "184436.477000", "184436.480000", "184436.483000", "184436.486000", "184436.489000", "184436.492000", "184436.495000", "184436.498000", "184436.501000", "184436.504000", "184436.507000", "184436.510000", "184436.513000", "184436.516000", "184516.430000", "184516.433000", "184516.436000", "184516.439000", "184516.447000", "184516.450000", "184516.453000", "184516.456000", "184516.459000", "184516.462000", "184516.465000", "184516.468000", "184516.471000", "184516.474000", "184516.477000", "184516.480000", "184516.483000", "184516.486000", "184516.489000", "184516.492000", "184516.495000", "184516.498000", "184516.501000", "184516.504000", "184516.507000", "184516.510000", "184516.513000", "184556.430000", "184556.438000", "184556.441000", "184556.444000", "184556.447000", "184556.450000", "184556.453000", "184556.456000", "184556.459000", "184556.462000", "184556.465000", "184556.468000", "184556.471000", "184556.474000", "184556.477000", "184556.480000", "184556.483000", "184556.486000", "184556.489000", "184556.492000", "184556.495000", "184556.498000", "184556.501000", "184556.504000", "184556.507000", "184556.516000", "184636.430000", "184636.433000", "184636.436000", "184636.439000", "184636.442000", "184636.445000", "184636.448000", "184636.451000", "184636.454000", "184636.457000", "184636.460000", "184636.463000", "184636.466000", "184636.469000", "184636.472000", "184636.475000", "184636.478000", "184636.481000", "184636.484000", "184636.487000", "184636.490000", "184636.493000", "184636.496000", "184636.499000", "184636.502000", "184636.505000", "184636.508000", "184716.430000", "184716.433000", "184716.436000", "184716.439000", "184716.442000", "184716.445000", "184716.448000", "184716.451000", "184716.454000", "184716.457000", "184716.460000", "184716.463000", "184716.467000", "184716.469000", "184716.472000", "184716.476000", "184716.479000", "184716.482000", "184716.485000", "184716.487000", "184716.490000", "184716.493000", "184716.496000", "184716.499000", "184716.503000", "184716.506000", "184716.509000", "184756.429000", "184756.432000", "184756.435000", "184756.438000", "184756.441000", "184756.444000", "184756.447000", "184756.450000", "184756.453000", "184756.456000", "184756.460000", "184756.463000", "184756.466000", "184756.469000", "184756.472000", "184756.475000", "184756.478000", "184756.481000", "184756.484000", "184756.487000", "184756.490000", "184756.493000", "184756.496000", "184756.499000", "184756.502000", "184756.505000", "184811.604000", "184811.607000", "184811.611000", "184811.614000", "184811.617000", "184811.620000", "184811.623000", "184811.626000", "184811.629000", "184811.633000", "184811.636000"],
      "InstanceNumber": [1, 2, 3, 4, 5, 6, 7, 8, 9, 10, 11, 12, 13, 14, 15, 16, 17, 18, 19, 20, 21, 22, 23, 24, 25, 26, 27, 28, 29, 30, 31, 32, 33, 34, 35, 36, 37, 38, 39, 40, 41, 42, 43, 44, 45, 46, 47, 48, 49, 50, 51, 52, 53, 54, 55, 56, 57, 58, 59, 60, 61, 62, 63, 64, 65, 66, 67, 68, 69, 70, 71, 72, 73, 74, 75, 76, 77, 78, 79, 80, 81, 82, 83, 84, 85, 86, 87, 88, 89, 90, 91, 92, 93, 94, 95, 96, 97, 98, 99, 100, 101, 102, 103, 104, 105, 106, 107, 108, 109, 110, 111, 112, 113, 114, 115, 116, 117, 118, 119, 120, 121, 122, 123, 124, 125, 126, 127, 128, 129, 130, 131, 132, 133, 134, 135, 136, 137, 138, 139, 140, 141, 142, 143, 144, 145, 146, 147, 148, 149, 150, 151, 152, 153, 154, 155, 156, 157, 158, 159, 160, 161, 162, 163, 164],
      "LargestImagePixelValue": [2484, 2389, 2408, 2419, 2406, 2397, 2387, 2372, 2389, 2392, 2391, 2398, 2407, 2399, 2432, 2410, 2409, 2425, 2425, 2416, 2400, 2331, 2312, 2419, 2364, 2392, 2443, 2453, 2383, 2414, 2401, 2368, 2384, 2352, 2399, 2386, 2391, 2369, 2372, 2391, 2405, 2373, 2377, 2328, 2385, 2341, 2364, 2337, 2340, 2332, 2316, 2304, 2336, 2309, 2303, 2269, 2304, 2428, 2188, 2440, 2323, 2356, 2334, 2317, 2322, 2363, 2348, 2364, 2363, 2353, 2398, 2332, 2449, 2368, 2226, 2367, 2342, 2358, 2436, 2398, 2387, 2384, 2369, 2372, 2365, 2358, 2274, 2398, 2323, 2336, 2356, 2337, 2313, 2328, 2632, 2427, 2250, 2340, 2300, 2314, 2319, 2312, 2310, 2317, 2347, 2350, 2310, 2314, 2326, 2321, 2246, 2257, 2263, 2310, 2345, 2348, 2367, 2345, 2369, 2367, 2332, 2313, 2350, 2311, 2288, 2306, 2253, 2498, 2390, 2284, 2299, 2268, 2308, 2315, 2270, 2349, 2327, 2288, 2303, 2337, 2354, 2377, 2351, 2360, 2332, 2244, 2494, 2562, 2640, 2508, 2268, 2302, 2339, 2436, 2416, 2398, 2368, 2382, 2339, 2334, 2322, 2289, 2289, 2358],
      "WindowCenter": [672.0, 669.0, 668.0, 668.0, 667.0, 667.0, 667.0, 667.0, 667.0, 667.0, 667.0, 667.0, 667.0, 667.0, 667.0, 666.0, 666.0, 667.0, 667.0, 668.0, 668.0, 666.0, 669.0, 668.0, 671.0, 671.0, 671.0, 671.0, 671.0, 669.0, 668.0, 668.0, 669.0, 668.0, 668.0, 667.0, 667.0, 667.0, 667.0, 668.0, 668.0, 668.0, 667.0, 667.0, 667.0, 668.0, 668.0, 668.0, 668.0, 667.0, 667.0, 667.0, 668.0, 669.0, 668.0, 667.0, 667.0, 668.0, 658.0, 671.0, 671.0, 670.0, 667.0, 664.0, 664.0, 665.0, 665.0, 665.0, 665.0, 665.0, 666.0, 665.0, 667.0, 668.0, 663.0, 667.0, 668.0, 668.0, 669.0, 669.0, 669.0, 669.0, 669.0, 669.0, 668.0, 668.0, 667.0, 668.0, 666.0, 666.0, 667.0, 666.0, 666.0, 656.0, 672.0, 670.0, 668.0, 668.0, 667.0, 667.0, 666.0, 666.0, 664.0, 664.0, 664.0, 665.0, 665.0, 666.0, 666.0, 666.0, 666.0, 666.0, 667.0, 666.0, 664.0, 671.0, 670.0, 670.0, 669.0, 668.0, 667.0, 667.0, 667.0, 668.0, 668.0, 668.0, 656.0, 671.0, 668.0, 667.0, 669.0, 669.0, 670.0, 669.0, 668.0, 660.0, 671.0, 668.0, 667.0, 667.0, 667.0, 667.0, 666.0, 667.0, 667.0, 660.0, 659.0, 674.0, 673.0, 670.0, 668.0, 668.0, 667.0, 671.0, 669.0, 670.0, 669.0, 669.0, 669.0, 668.0, 668.0, 668.0, 669.0, 670.0],
      "WindowWidth": [1438.0, 1431.0, 1427.0, 1427.0, 1425.0, 1425.0, 1423.0, 1423.0, 1423.0, 1424.0, 1424.0, 1425.0, 1425.0, 1423.0, 1424.0, 1422.0, 1422.0, 1423.0, 1425.0, 1425.0, 1425.0, 1423.0, 1430.0, 1427.0, 1434.0, 1434.0, 1434.0, 1434.0, 1433.0, 1428.0, 1426.0, 1427.0, 1428.0, 1426.0, 1425.0, 1424.0, 1423.0, 1424.0, 1425.0, 1427.0, 1427.0, 1427.0, 1425.0, 1423.0, 1425.0, 1426.0, 1426.0, 1426.0, 1426.0, 1425.0, 1424.0, 1425.0, 1427.0, 1428.0, 1427.0, 1426.0, 1425.0, 1425.0, 1402.0, 1435.0, 1435.0, 1430.0, 1424.0, 1418.0, 1418.0, 1418.0, 1418.0, 1419.0, 1418.0, 1418.0, 1421.0, 1420.0, 1424.0, 1426.0, 1414.0, 1423.0, 1428.0, 1427.0, 1428.0, 1429.0, 1429.0, 1429.0, 1428.0, 1428.0, 1427.0, 1427.0, 1425.0, 1426.0, 1422.0, 1423.0, 1423.0, 1423.0, 1423.0, 1397.0, 1438.0, 1431.0, 1427.0, 1427.0, 1425.0, 1425.0, 1422.0, 1420.0, 1418.0, 1418.0, 1418.0, 1419.0, 1419.0, 1423.0, 1422.0, 1422.0, 1422.0, 1422.0, 1423.0, 1422.0, 1418.0, 1435.0, 1433.0, 1431.0, 1429.0, 1426.0, 1426.0, 1425.0, 1426.0, 1426.0, 1427.0, 1428.0, 1399.0, 1435.0, 1426.0, 1424.0, 1428.0, 1430.0, 1431.0, 1429.0, 1426.0, 1407.0, 1434.0, 1426.0, 1423.0, 1424.0, 1423.0, 1423.0, 1421.0, 1423.0, 1425.0, 1407.0, 1404.0, 1443.0, 1438.0, 1432.0, 1426.0, 1426.0, 1425.0, 1434.0, 1429.0, 1433.0, 1430.0, 1430.0, 1429.0, 1427.0, 1427.0, 1427.0, 1429.0, 1432.0]
    },
    "slices": {}
  }
}