{
  "AcquisitionMatrixPE": 72,
  "AcquisitionNumber": 1,
  "AcquisitionTime": "18:49:20.682500",
  "BandwidthPerPixelPhaseEncode": 17.943,
  "BaseResolution": 96,
  "BodyPartExamined": "BRAIN",
  "CoilCombinationMethod": "Sum of Squares",
  "ConsistencyInfo": "N4_VE11C_LATEST_20160120",
  "ConversionSoftware": "dcm2niix",
  "ConversionSoftwareVersion": "v1.0.20211006",
  "DerivedVendorReportedEchoSpacing": 0.000552897,
  "DeviceSerialNumber": "166011",
  "EchoTime": 0.03,
  "EchoTrainLength": 58,
  "EffectiveEchoSpacing": 0.000580542,
  "FlipAngle": 62,
  "ImageOrientationPatientDICOM": [0.999871, -0.0097751, 0.0127186, 0.0118672, 0.98423, -0.176495],
  "ImageType": [
    "ORIGINAL",
    "PRIMARY",
    "M",
    "ND",
    "MOSAIC"
],
  "ImagingFrequency": 123.26,
  "InPlanePhaseEncodingDirectionDICOM": "COL",
  "InstitutionAddress": "West 130th Street 610,NY,NYC,US,10025",
  "InstitutionName": "MBBI",
  "MRAcquisitionType": "2D",
  "MagneticFieldStrength": 3,
  "Manufacturer": "Siemens",
  "ManufacturersModelName": "Prisma",
  "Modality": "MR",
  "MultibandAccelerationFactor": 3,
  "PartialFourier": 0.75,
  "PatientPosition": "HFS",
  "PercentPhaseFOV": 100,
  "PercentSampling": 75,
  "PhaseEncodingDirection": "j-",
  "PhaseEncodingSteps": 58,
  "PhaseOversampling": 0.05,
  "PhaseResolution": 0.75,
  "PixelBandwidth": 2265,
  "ProcedureStepDescription": "White^Word_recognition",
  "ProtocolName": "func_vwfate_run12",
  "PulseSequenceDetails": "%SiemensSeq%\\ep2d_bold",
  "ReceiveCoilActiveElements": "HC1-7",
  "ReceiveCoilName": "HeadNeck_64",
  "ReconMatrixPE": 96,
  "RefLinesPE": 40,
  "RepetitionTime": 1.5,
  "SAR": 0.0540222,
  "ScanOptions": "PFP\\FS",
  "ScanningSequence": "EP",
  "SequenceName": "*epfid2d1_72",
  "SequenceVariant": "SK\\OSP",
  "SeriesDescription": "func_vwfate_run12",
  "SeriesNumber": 15,
  "ShimSetting": [-1134, -1360, 663, 584, -28, -3, 53, 14],
  "SliceThickness": 2,
  "SliceTiming": [1.0775, 0, 0.74, 0.0675, 0.8075, 0.135, 0.875, 0.2025, 0.9425, 0.27, 1.01, 0.405, 1.145, 0.4725, 1.2125, 0.54, 1.28, 0.6075, 1.3475, 0.6725, 1.4125, 0.3375, 1.0775, 0, 0.74, 0.0675, 0.8075, 0.135, 0.875, 0.2025, 0.9425, 0.27, 1.01, 0.405, 1.145, 0.4725, 1.2125, 0.54, 1.28, 0.6075, 1.3475, 0.6725, 1.4125, 0.3375, 1.0775, 0, 0.74, 0.0675, 0.8075, 0.135, 0.875, 0.2025, 0.9425, 0.27, 1.01, 0.405, 1.145, 0.4725, 1.2125, 0.54, 1.28, 0.6075, 1.3475, 0.6725, 1.4125, 0.3375],
  "SoftwareVersions": "syngo MR E11",
  "SpacingBetweenSlices": 2,
  "StationName": "AWP166011",
  "TaskName": "vwfate",
  "TotalReadoutTime": 0.0551515,
  "TxRefAmp": 231.124,
  "dcmmeta_affine": [
    [-1.9997426271438599, 0.023734482005238533, 0.02158551849424839, 95.99500274658203],
    [0.019550200551748276, 1.968459963798523, -0.35324645042419434, -64.4208984375],
    [0.02543717622756958, 0.3529900014400482, 1.968438744544983, -94.11052703857422],
    [0.0, 0.0, 0.0, 1.0]
],
  "dcmmeta_reorient_transform": [
    [0.0, -1.0, 0.0, 95.0],
    [1.0, 0.0, 0.0, 0.0],
    [0.0, 0.0, 1.0, 0.0],
    [0.0, 0.0, 0.0, 1.0]
],
  "dcmmeta_shape": [96, 96, 66, 164],
  "dcmmeta_slice_dim": 2,
  "dcmmeta_version": 0.6,
  "global": {
    "const": {
      "AcquisitionMatrix": [96, 0, 0, 72],
      "AngioFlag": "N",
      "BitsAllocated": 16,
      "BitsStored": 12,
      "BodyPartExamined": "BRAIN",
      "Columns": 864,
      "EchoNumbers": 1,
      "EchoTime": 30.0,
      "EchoTrainLength": 58,
      "FlipAngle": 62.0,
      "HighBit": 11,
      "ImageOrientationPatient": [0.99987133419213, -0.0097751002274, 0.01271858783043, 0.01186724085821, 0.98422999623304, -0.1764949945736],
      "ImagePositionPatient": [-875.26500036163, -870.96416160337, 65.203804195586],
      "ImageType": [
        "ORIGINAL",
        "PRIMARY",
        "M",
        "ND",
        "MOSAIC"
],
      "ImagedNucleus": "1H",
      "ImagingFrequency": 123.259558,
      "InPlanePhaseEncodingDirection": "COL",
      "MRAcquisitionType": "2D",
      "MagneticFieldStrength": 3.0,
      "Manufacturer": "SIEMENS",
      "ManufacturerModelName": "Prisma",
      "Modality": "MR",
      "NumberOfAverages": 1.0,
      "NumberOfPhaseEncodingSteps": 58,
      "PercentPhaseFieldOfView": 100.0,
      "PercentSampling": 75.0,
      "PerformedProcedureStepStartTime": "174347.314000",
      "PhotometricInterpretation": "MONOCHROME2",
      "PixelBandwidth": 2265.0,
      "PixelRepresentation": 0,
      "PixelSpacing": [2.0, 2.0],
      "ProtocolName": "func_vwfate_run12",
      "RepetitionTime": 1500.0,
      "Rows": 864,
      "SAR": 0.05402224896936,
      "SamplesPerPixel": 1,
      "ScanOptions": [
        "PFP",
        "FS"
],
      "ScanningSequence": "EP",
      "SequenceName": "*epfid2d1_72",
      "SequenceVariant": [
        "SK",
        "OSP"
],
      "SeriesDescription": "func_vwfate_run12",
      "SeriesNumber": 15,
      "SeriesTime": "185003.287000",
      "SliceLocation": -80.211123762971,
      "SliceThickness": 2.0,
      "SmallestImagePixelValue": 0,
      "SoftwareVersions": "syngo MR E11",
      "SpacingBetweenSlices": 2.000000051101,
      "SpecificCharacterSet": "ISO_IR 100",
      "StudyID": "1",
      "StudyTime": "174347.248000",
      "TransmitCoilName": "Body",
      "VariableFlipAngleFlag": "N",
      "WindowCenterWidthExplanation": "Algo1",
      "dBdt": 0.0},
    "slices": {}
  },
  "time": {
    "samples": {
      "AcquisitionNumber": [1, 2, 3, 4, 5, 6, 7, 8, 9, 10, 11, 12, 13, 14, 15, 16, 17, 18, 19, 20, 21, 22, 23, 24, 25, 26, 27, 28, 29, 30, 31, 32, 33, 34, 35, 36, 37, 38, 39, 40, 41, 42, 43, 44, 45, 46, 47, 48, 49, 50, 51, 52, 53, 54, 55, 56, 57, 58, 59, 60, 61, 62, 63, 64, 65, 66, 67, 68, 69, 70, 71, 72, 73, 74, 75, 76, 77, 78, 79, 80, 81, 82, 83, 84, 85, 86, 87, 88, 89, 90, 91, 92, 93, 94, 95, 96, 97, 98, 99, 100, 101, 102, 103, 104, 105, 106, 107, 108, 109, 110, 111, 112, 113, 114, 115, 116, 117, 118, 119, 120, 121, 122, 123, 124, 125, 126, 127, 128, 129, 130, 131, 132, 133, 134, 135, 136, 137, 138, 139, 140, 141, 142, 143, 144, 145, 146, 147, 148, 149, 150, 151, 152, 153, 154, 155, 156, 157, 158, 159, 160, 161, 162, 163, 164],
      "AcquisitionTime": ["184920.682500", "184922.182500", "184923.682500", "184925.182500", "184926.682500", "184928.182500", "184929.682500", "184931.182500", "184932.682500", "184934.182500", "184935.682500", "184937.182500", "184938.682500", "184940.182500", "184941.682500", "184943.182500", "184944.682500", "184946.182500", "184947.682500", "184949.182500", "184950.682500", "184952.182500", "184953.682500", "184955.182500", "184956.682500", "184958.182500", "184959.682500", "185001.182500", "185002.682500", "185004.182500", "185005.682500", "185007.182500", "185008.682500", "185010.182500", "185011.682500", "185013.182500", "185014.682500", "185016.182500", "185017.682500", "185019.182500", "185020.682500", "185022.182500", "185023.682500", "185025.182500", "185026.682500", "185028.182500", "185029.682500", "185031.182500", "185032.682500", "185034.182500", "185035.682500", "185037.182500", "185038.682500", "185040.182500", "185041.682500", "185043.182500", "185044.682500", "185046.182500", "185047.682500", "185049.182500", "185050.682500", "185052.182500", "185053.682500", "185055.182500", "185056.682500", "185058.182500", "185059.682500", "185101.182500", "185102.682500", "185104.182500", "185105.682500", "185107.182500", "185108.682500", "185110.182500", "185111.682500", "185113.182500", "185114.682500", "185116.182500", "185117.682500", "185119.182500", "185120.682500", "185122.182500", "185123.682500", "185125.182500", "185126.682500", "185128.182500", "185129.682500", "185131.182500", "185132.682500", "185134.182500", "185135.682500", "185137.182500", "185138.682500", "185140.182500", "185141.682500", "185143.182500", "185144.682500", "185146.182500", "185147.682500", "185149.182500", "185150.682500", "185152.182500", "185153.682500", "185155.182500", "185156.682500", "185158.182500", "185159.682500", "185201.182500", "185202.682500", "185204.182500", "185205.682500", "185207.182500", "185208.682500", "185210.182500", "185211.682500", "185213.182500", "185214.682500", "185216.182500", "185217.682500", "185219.182500", "185220.682500", "185222.182500", "185223.682500", "185225.182500", "185226.682500", "185228.182500", "185229.682500", "185231.182500", "185232.682500", "185234.182500", "185235.682500", "185237.182500", "185238.682500", "185240.182500", "185241.682500", "185243.182500", "185244.682500", "185246.182500", "185247.682500", "185249.182500", "185250.682500", "185252.182500", "185253.682500", "185255.182500", "185256.682500", "185258.182500", "185259.682500", "185301.182500", "185302.682500", "185304.182500", "185305.682500", "185307.182500", "185308.682500", "185310.182500", "185311.682500", "185313.182500", "185314.682500", "185316.182500", "185317.682500", "185319.182500", "185320.682500", "185322.182500", "185323.682500", "185325.182500"],
      "ContentTime": ["185003.291000", "185003.295000", "185003.301000", "185003.304000", "185003.307000", "185003.310000", "185003.318000", "185003.321000", "185003.324000", "185003.327000", "185003.330000", "185003.334000", "185003.337000", "185003.340000", "185003.343000", "185003.346000", "185003.349000", "185003.353000", "185003.357000", "185003.360000", "185003.363000", "185003.366000", "185003.369000", "185003.372000", "185003.375000", "185003.378000", "185003.381000", "185003.384000", "185043.285000", "185043.288000", "185043.291000", "185043.294000", "185043.297000", "185043.300000", "185043.303000", "185043.306000", "185043.309000", "185043.312000", "185043.315000", "185043.318000", "185043.321000", "185043.324000", "185043.327000", "185043.330000", "185043.333000", "185043.336000", "185043.339000", "185043.342000", "185043.345000", "185043.359000", "185043.362000", "185043.365000", "185043.368000", "185043.371000", "185043.374000", "185123.285000", "185123.288000", "185123.291000", "185123.294000", "185123.297000", "185123.300000", "185123.303000", "185123.306000", "185123.309000", "185123.312000", "185123.315000", "185123.318000", "185123.321000", "185123.324000", "185123.327000", "185123.330000", "185123.333000", "185123.336000", "185123.339000", "185123.342000", "185123.345000", "185123.348000", "185123.351000", "185123.354000", "185123.357000", "185123.360000", "185123.364000", "185143.285000", "185143.288000", "185143.291000", "185143.294000", "185143.297000", "185143.300000", "185143.303000", "185143.306000", "185143.309000", "185143.312000", "185143.315000", "185143.318000", "185143.321000", "185223.286000", "185223.289000", "185223.292000", "185223.295000", "185223.298000", "185223.301000", "185223.304000", "185223.307000", "185223.310000", "185223.313000", "185223.316000", "185223.319000", "185223.322000", "185223.325000", "185223.328000", "185223.331000", "185223.334000", "185223.337000", "185223.340000", "185223.343000", "185223.346000", "185223.349000", "185223.352000", "185223.355000", "185223.358000", "185223.361000", "185223.364000", "185303.285000", "185303.288000", "185303.312000", "185303.315000", "185303.318000", "185303.321000", "185303.324000", "185303.327000", "185303.330000", "185303.333000", "185303.336000", "185303.339000", "185303.342000", "185303.345000", "185303.348000", "185303.352000", "185303.355000", "185303.358000", "185303.361000", "185303.364000", "185303.367000", "185303.370000", "185303.373000", "185303.376000", "185303.379000", "185303.383000", "185326.122000", "185326.125000", "185326.128000", "185326.131000", "185326.134000", "185326.137000", "185326.140000", "185326.143000", "185326.146000", "185326.149000", "185326.152000", "185326.155000", "185326.158000", "185326.161000", "185326.164000", "185326.167000"],
      "InstanceCreationTime": ["185003.291000", "185003.295000", "185003.301000", "185003.304000", "185003.307000", "185003.310000", "185003.318000", "185003.321000", "185003.324000", "185003.327000", "185003.330000", "185003.334000", "185003.337000", "185003.340000", "185003.343000", "185003.346000", "185003.349000", "185003.353000", "185003.357000", "185003.360000", "185003.363000", "185003.366000", "185003.369000", "185003.372000", "185003.375000", "185003.378000", "185003.381000", "185003.384000", "185043.285000", "185043.288000", "185043.291000", "185043.294000", "185043.297000", "185043.300000", "185043.303000", "185043.306000", "185043.309000", "185043.312000", "185043.315000", "185043.318000", "185043.321000", "185043.324000", "185043.327000", "185043.330000", "185043.333000", "185043.336000", "185043.339000", "185043.342000", "185043.345000", "185043.359000", "185043.362000", "185043.365000", "185043.368000", "185043.371000", "185043.374000", "185123.285000", "185123.288000", "185123.291000", "185123.294000", "185123.297000", "185123.300000", "185123.303000", "185123.306000", "185123.309000", "185123.312000", "185123.315000", "185123.318000", "185123.321000", "185123.324000", "185123.327000", "185123.330000", "185123.333000", "185123.336000", "185123.339000", "185123.342000", "185123.345000", "185123.348000", "185123.351000", "185123.354000", "185123.357000", "185123.360000", "185123.364000", "185143.285000", "185143.288000", "185143.291000", "185143.294000", "185143.297000", "185143.300000", "185143.303000", "185143.306000", "185143.309000", "185143.312000", "185143.315000", "185143.318000", "185143.321000", "185223.286000", "185223.289000", "185223.292000", "185223.295000", "185223.298000", "185223.301000", "185223.304000", "185223.307000", "185223.310000", "185223.313000", "185223.316000", "185223.319000", "185223.322000", "185223.325000", "185223.328000", "185223.331000", "185223.334000", "185223.337000", "185223.340000", "185223.343000", "185223.346000", "185223.349000", "185223.352000", "185223.355000", "185223.358000", "185223.361000", "185223.364000", "185303.285000", "185303.288000", "185303.312000", "185303.315000", "185303.318000", "185303.321000", "185303.324000", "185303.327000", "185303.330000", "185303.333000", "185303.336000", "185303.339000", "185303.342000", "185303.345000", "185303.348000", "185303.352000", "185303.355000", "185303.358000", "185303.361000", "185303.364000", "185303.367000", "185303.370000", "185303.373000", "185303.376000", "185303.379000", "185303.383000", "185326.122000", "185326.125000", "185326.128000", "185326.131000", "185326.134000", "185326.137000", "185326.140000", "185326.143000", "185326.146000", "185326.149000", "185326.152000", "185326.155000", "185326.158000", "185326.161000", "185326.164000", "185326.167000"],
      "InstanceNumber": [1, 2, 3, 4, 5, 6, 7, 8, 9, 10, 11, 12, 13, 14, 15, 16, 17, 18, 19, 20, 21, 22, 23, 24, 25, 26, 27, 28, 29, 30, 31, 32, 33, 34, 35, 36, 37, 38, 39, 40, 41, 42, 43, 44, 45, 46, 47, 48, 49, 50, 51, 52, 53, 54, 55, 56, 57, 58, 59, 60, 61, 62, 63, 64, 65, 66, 67, 68, 69, 70, 71, 72, 73, 74, 75, 76, 77, 78, 79, 80, 81, 82, 83, 84, 85, 86, 87, 88, 89, 90, 91, 92, 93, 94, 95, 96, 97, 98, 99, 100, 101, 102, 103, 104, 105, 106, 107, 108, 109, 110, 111, 112, 113, 114, 115, 116, 117, 118, 119, 120, 121, 122, 123, 124, 125, 126, 127, 128, 129, 130, 131, 132, 133, 134, 135, 136, 137, 138, 139, 140, 141, 142, 143, 144, 145, 146, 147, 148, 149, 150, 151, 152, 153, 154, 155, 156, 157, 158, 159, 160, 161, 162, 163, 164],
      "LargestImagePixelValue": [2488, 2412, 2359, 2338, 2332, 2327, 2334, 2329, 2330, 2355, 2323, 2341, 2359, 2344, 2333, 2327, 2315, 2435, 2348, 2304, 2314, 2360, 2367, 2393, 2614, 2438, 2383, 2334, 2351, 2359, 2338, 2339, 2345, 2364, 2363, 2345, 2351, 2332, 2323, 2310, 2344, 2331, 2321, 2336, 2357, 2352, 2339, 2339, 2310, 2328, 2317, 2331, 2301, 2310, 2312, 2306, 2295, 2321, 2315, 2327, 2290, 2343, 2283, 2305, 2304, 2248, 2305, 2549, 2470, 2422, 2372, 2360, 2365, 2394, 2370, 2331, 2383, 2405, 2376, 2581, 2535, 2534, 2423, 2407, 2384, 2352, 2472, 2399, 2384, 2395, 2356, 2371, 2360, 2376, 2395, 2355, 2412, 2357, 2370, 2372, 2356, 2331, 2355, 2360, 2378, 2492, 2528, 2329, 2604, 2514, 2527, 2505, 2485, 2503, 2487, 2413, 2429, 2495, 2471, 2464, 2448, 2431, 2411, 2358, 2519, 2487, 2458, 2487, 2468, 2456, 2458, 2478, 2503, 2469, 2478, 2475, 2449, 2470, 2450, 2457, 2447, 2431, 2413, 2389, 2436, 2404, 2403, 2376, 2409, 2372, 2331, 2523, 2385, 2325, 2336, 2328, 2353, 2338, 2325, 2334, 2337, 2366, 2386, 2397],
      "WindowCenter": [673.0, 671.0, 671.0, 670.0, 670.0, 670.0, 670.0, 671.0, 672.0, 672.0, 672.0, 671.0, 671.0, 670.0, 670.0, 670.0, 670.0, 672.0, 672.0, 671.0, 671.0, 672.0, 672.0, 672.0, 670.0, 671.0, 671.0, 671.0, 670.0, 669.0, 669.0, 670.0, 669.0, 669.0, 669.0, 668.0, 669.0, 669.0, 669.0, 669.0, 669.0, 670.0, 670.0, 670.0, 670.0, 669.0, 669.0, 670.0, 669.0, 670.0, 670.0, 670.0, 670.0, 671.0, 670.0, 671.0, 670.0, 670.0, 670.0, 670.0, 669.0, 671.0, 671.0, 671.0, 670.0, 664.0, 655.0, 677.0, 675.0, 675.0, 673.0, 673.0, 672.0, 672.0, 671.0, 670.0, 671.0, 671.0, 668.0, 674.0, 674.0, 674.0, 674.0, 672.0, 669.0, 666.0, 667.0, 667.0, 667.0, 668.0, 668.0, 668.0, 669.0, 670.0, 670.0, 670.0, 671.0, 671.0, 672.0, 672.0, 672.0, 671.0, 672.0, 672.0, 673.0, 668.0, 681.0, 677.0, 674.0, 670.0, 677.0, 676.0, 675.0, 675.0, 674.0, 673.0, 676.0, 674.0, 677.0, 677.0, 677.0, 677.0, 676.0, 667.0, 680.0, 678.0, 678.0, 678.0, 678.0, 678.0, 677.0, 678.0, 678.0, 678.0, 678.0, 678.0, 678.0, 678.0, 677.0, 677.0, 678.0, 674.0, 679.0, 679.0, 679.0, 678.0, 678.0, 676.0, 676.0, 676.0, 668.0, 677.0, 673.0, 672.0, 672.0, 672.0, 671.0, 671.0, 670.0, 670.0, 669.0, 669.0, 672.0, 671.0],
      "WindowWidth": [1441.0, 1435.0, 1433.0, 1433.0, 1432.0, 1433.0, 1433.0, 1434.0, 1436.0, 1437.0, 1437.0, 1435.0, 1434.0, 1432.0, 1432.0, 1433.0, 1432.0, 1436.0, 1436.0, 1435.0, 1435.0, 1436.0, 1436.0, 1436.0, 1432.0, 1434.0, 1434.0, 1433.0, 1432.0, 1430.0, 1429.0, 1431.0, 1430.0, 1430.0, 1429.0, 1428.0, 1430.0, 1430.0, 1430.0, 1429.0, 1430.0, 1431.0, 1431.0, 1432.0, 1432.0, 1430.0, 1430.0, 1431.0, 1430.0, 1431.0, 1431.0, 1432.0, 1432.0, 1433.0, 1432.0, 1433.0, 1432.0, 1432.0, 1432.0, 1432.0, 1430.0, 1433.0, 1434.0, 1434.0, 1432.0, 1416.0, 1394.0, 1449.0, 1445.0, 1444.0, 1440.0, 1439.0, 1436.0, 1436.0, 1434.0, 1433.0, 1434.0, 1434.0, 1426.0, 1441.0, 1442.0, 1441.0, 1441.0, 1437.0, 1429.0, 1421.0, 1423.0, 1424.0, 1425.0, 1426.0, 1427.0, 1428.0, 1429.0, 1431.0, 1431.0, 1431.0, 1434.0, 1434.0, 1438.0, 1437.0, 1437.0, 1435.0, 1436.0, 1436.0, 1439.0, 1427.0, 1461.0, 1449.0, 1442.0, 1431.0, 1451.0, 1447.0, 1444.0, 1445.0, 1442.0, 1439.0, 1447.0, 1441.0, 1449.0, 1450.0, 1449.0, 1449.0, 1447.0, 1424.0, 1457.0, 1452.0, 1452.0, 1452.0, 1451.0, 1451.0, 1450.0, 1451.0, 1452.0, 1451.0, 1451.0, 1452.0, 1451.0, 1451.0, 1450.0, 1450.0, 1451.0, 1442.0, 1455.0, 1454.0, 1455.0, 1452.0, 1451.0, 1447.0, 1448.0, 1446.0, 1427.0, 1448.0, 1439.0, 1437.0, 1436.0, 1435.0, 1435.0, 1434.0, 1432.0, 1432.0, 1428.0, 1428.0, 1436.0, 1434.0]
    },
    "slices": {}
  }
}