{
  "AcquisitionMatrixPE": 70,
  "AcquisitionNumber": 1,
  "AcquisitionTime": "17:54:28.505000",
  "BaseResolution": 70,
  "BodyPartExamined": "BRAIN",
  "CoilCombinationMethod": "Sum of Squares",
  "ConsistencyInfo": "N4_VE11C_LATEST_20160120",
  "ConversionSoftware": "dcm2niix",
  "ConversionSoftwareVersion": "v1.0.20211006",
  "DeviceSerialNumber": "166011",
  "EchoNumber": 2,
  "EchoTime": 0.00738,
  "EchoTime1": 0.00492,
  "EchoTime2": 0.00738,
  "FlipAngle": 60,
  "ImageOrientationPatientDICOM": [
    0.996415,
    -0.0016708,
    -0.0845883,
    0.02035,
    0.975186,
    0.220452
  ],
  "ImageType": [
    "ORIGINAL",
    "PRIMARY",
    "P",
    "ND",
    "PHASE"
  ],
  "ImagingFrequency": 123.259,
  "InPlanePhaseEncodingDirectionDICOM": "ROW",
  "InstitutionAddress": "West 130th Street 610,NY,NYC,US,10025",
  "InstitutionName": "MBBI",
  "IntendedFor": [
    "ses-1/func/sub-143_ses-1_task-catLoc_run-01_bold.nii.gz",
    "ses-1/func/sub-143_ses-1_task-catLoc_run-02_bold.nii.gz",
    "ses-1/func/sub-143_ses-1_task-vwfate_run-01_bold.nii.gz",
    "ses-1/func/sub-143_ses-1_task-vwfate_run-02_bold.nii.gz",
    "ses-1/func/sub-143_ses-1_task-vwfate_run-03_bold.nii.gz",
    "ses-1/func/sub-143_ses-1_task-vwfate_run-04_bold.nii.gz",
    "ses-1/func/sub-143_ses-1_task-vwfate_run-05_bold.nii.gz",
    "ses-1/func/sub-143_ses-1_task-vwfate_run-06_bold.nii.gz"
  ],
  "MRAcquisitionType": "2D",
  "MagneticFieldStrength": 3,
  "Manufacturer": "Siemens",
  "ManufacturersModelName": "Prisma",
  "MatrixCoilMode": "SENSE",
  "Modality": "MR",
  "MultibandAccelerationFactor": 2,
  "PartialFourier": 1,
  "PatientPosition": "HFS",
  "PercentPhaseFOV": 100,
  "PercentSampling": 100,
  "PhaseEncodingDirection": "i",
  "PhaseEncodingSteps": 70,
  "PhaseResolution": 1,
  "PixelBandwidth": 595,
  "ProcedureStepDescription": "White^Word_recognition",
  "ProtocolName": "fmap_gre_field_mapping",
  "PulseSequenceDetails": "%SiemensSeq%\\gre_field_mapping",
  "ReceiveCoilActiveElements": "HC1-7",
  "ReceiveCoilName": "HeadNeck_64",
  "ReconMatrixPE": 70,
  "RepetitionTime": 0.52,
  "SAR": 0.0913078,
  "ScanningSequence": "GR",
  "SequenceName": "*fm2d2r",
  "SequenceVariant": "SP",
  "SeriesDescription": "fmap_gre_field_mapping",
  "SeriesNumber": 21,
  "ShimSetting": [
    -1159,
    -1358,
    623,
    786,
    -108,
    -186,
    97,
    7
  ],
  "SliceThickness": 3,
  "SliceTiming": [
    0.25,
    0,
    0.26562,
    0,
    0.28125,
    0.01562,
    0.29688,
    0.03125,
    0.3125,
    0.04688,
    0.3125,
    0.0625,
    0.32812,
    0.0625,
    0.34375,
    0.07812,
    0.35938,
    0.09375,
    0.375,
    0.10938,
    0.375,
    0.125,
    0.39062,
    0.125,
    0.40625,
    0.14062,
    0.42188,
    0.15625,
    0.4375,
    0.17188,
    0.4375,
    0.1875,
    0.45312,
    0.1875,
    0.46875,
    0.20312,
    0.48438,
    0.21875,
    0.48438,
    0.23438,
    0.5,
    0.25
  ],
  "SoftwareVersions": "syngo MR E11",
  "SpacingBetweenSlices": 3,
  "StationName": "AWP166011",
  "TxRefAmp": 233.011,
  "dcmmeta_affine": [
    [
      -2.989243745803833,
      0.061049897223711014,
      -0.24636316299438477,
      105.85706329345703
    ],
    [
      0.005012386944144964,
      2.9255566596984863,
      0.6641502380371094,
      -87.14043426513672
    ],
    [
      -0.2537650167942047,
      -0.6613559126853943,
      2.9151687622070312,
      -47.968971252441406
    ],
    [
      0.0,
      0.0,
      0.0,
      1.0
    ]
  ],
  "dcmmeta_reorient_transform": [
    [
      0.0,
      -1.0,
      0.0,
      69.0
    ],
    [
      1.0,
      0.0,
      0.0,
      0.0
    ],
    [
      0.0,
      0.0,
      -1.0,
      41.0
    ],
    [
      0.0,
      0.0,
      0.0,
      1.0
    ]
  ],
  "dcmmeta_shape": [
    70,
    70,
    42
  ],
  "dcmmeta_slice_dim": 2,
  "dcmmeta_version": 0.6,
  "global": {
    "const": {
      "AcquisitionMatrix": [
        0,
        70,
        70,
        0
      ],
      "AcquisitionNumber": 1,
      "AngioFlag": "N",
      "BitsAllocated": 16,
      "BitsStored": 12,
      "BodyPartExamined": "BRAIN",
      "Columns": 70,
      "EchoNumbers": 2,
      "EchoTime": 7.38,
      "EchoTrainLength": 0,
      "FlipAngle": 60.0,
      "HighBit": 11,
      "ImageOrientationPatient": [
        0.99641458272443,
        -0.001670795677,
        -0.0845883430262,
        0.0203499652616,
        0.97518552610118,
        0.2204519643746
      ],
      "ImageType": [
        "ORIGINAL",
        "PRIMARY",
        "P",
        "ND"
      ],
      "ImagedNucleus": "1H",
      "ImagingFrequency": 123.259339,
      "InPlanePhaseEncodingDirection": "ROW",
      "MRAcquisitionType": "2D",
      "MagneticFieldStrength": 3.0,
      "Manufacturer": "SIEMENS",
      "ManufacturerModelName": "Prisma",
      "Modality": "MR",
      "NumberOfAverages": 1.0,
      "NumberOfPhaseEncodingSteps": 70,
      "PercentPhaseFieldOfView": 100.0,
      "PercentSampling": 100.0,
      "PerformedProcedureStepStartTime": "163130.571000",
      "PhotometricInterpretation": "MONOCHROME2",
      "PixelBandwidth": 595.0,
      "PixelRepresentation": 0,
      "PixelSpacing": [
        3.0,
        3.0
      ],
      "ProtocolName": "fmap_gre_field_mapping",
      "RepetitionTime": 520.0,
      "RescaleIntercept": -4096.0,
      "RescaleSlope": 2.0,
      "RescaleType": "US",
      "Rows": 70,
      "SAR": 0.09130782306127,
      "SamplesPerPixel": 1,
      "ScanningSequence": "GR",
      "SequenceName": "*fm2d2r",
      "SequenceVariant": "SP",
      "SeriesDescription": "fmap_gre_field_mapping",
      "SeriesNumber": 21,
      "SeriesTime": "175541.425000",
      "SliceThickness": 3.0,
      "SoftwareVersions": "syngo MR E11",
      "SpacingBetweenSlices": 3.0,
      "SpecificCharacterSet": "ISO_IR 100",
      "StudyID": "1",
      "StudyTime": "163130.476000",
      "TransmitCoilName": "Body",
      "VariableFlipAngleFlag": "N",
      "WindowCenterWidthExplanation": "Algo1",
      "dBdt": 0.0
    },
    "slices": {
      "AcquisitionTime": [
        "175428.505000",
        "175428.245000",
        "175428.517500",
        "175428.257500",
        "175428.530000",
        "175428.270000",
        "175428.542500",
        "175428.282500",
        "175428.555000",
        "175428.295000",
        "175428.567500",
        "175428.307500",
        "175428.580000",
        "175428.320000",
        "175428.592500",
        "175428.332500",
        "175428.605000",
        "175428.345000",
        "175428.617500",
        "175428.357500",
        "175428.630000",
        "175428.370000",
        "175428.642500",
        "175428.382500",
        "175428.655000",
        "175428.395000",
        "175428.667500",
        "175428.407500",
        "175428.680000",
        "175428.420000",
        "175428.690000",
        "175428.432500",
        "175428.702500",
        "175428.442500",
        "175428.715000",
        "175428.455000",
        "175428.727500",
        "175428.467500",
        "175428.740000",
        "175428.480000",
        "175428.752500",
        "175428.492500"
      ],
      "ContentTime": [
        "175541.487000",
        "175541.428000",
        "175541.489000",
        "175541.430000",
        "175541.491000",
        "175541.433000",
        "175541.493000",
        "175541.435000",
        "175541.496000",
        "175541.444000",
        "175541.498000",
        "175541.446000",
        "175541.501000",
        "175541.448000",
        "175541.503000",
        "175541.450000",
        "175541.505000",
        "175541.453000",
        "175541.507000",
        "175541.455000",
        "175541.510000",
        "175541.457000",
        "175541.512000",
        "175541.465000",
        "175541.514000",
        "175541.467000",
        "175541.516000",
        "175541.469000",
        "175541.518000",
        "175541.471000",
        "175541.520000",
        "175541.474000",
        "175541.522000",
        "175541.476000",
        "175541.524000",
        "175541.478000",
        "175541.526000",
        "175541.480000",
        "175541.529000",
        "175541.482000",
        "175541.531000",
        "175541.485000"
      ],
      "CsaImage.ICE_Dims": [
        "X_2_1_1_1_1_1_22_1_1_1_1_96",
        "X_2_1_1_1_1_1_1_1_1_2_1_96",
        "X_2_1_1_1_1_1_23_1_1_3_1_96",
        "X_2_1_1_1_1_1_2_1_1_4_1_96",
        "X_2_1_1_1_1_1_24_1_1_5_1_96",
        "X_2_1_1_1_1_1_3_1_1_6_1_96",
        "X_2_1_1_1_1_1_25_1_1_7_1_96",
        "X_2_1_1_1_1_1_4_1_1_8_1_96",
        "X_2_1_1_1_1_1_26_1_1_9_1_96",
        "X_2_1_1_1_1_1_5_1_1_10_1_96",
        "X_2_1_1_1_1_1_27_1_1_11_1_96",
        "X_2_1_1_1_1_1_6_1_1_12_1_96",
        "X_2_1_1_1_1_1_28_1_1_13_1_96",
        "X_2_1_1_1_1_1_7_1_1_14_1_96",
        "X_2_1_1_1_1_1_29_1_1_15_1_96",
        "X_2_1_1_1_1_1_8_1_1_16_1_96",
        "X_2_1_1_1_1_1_30_1_1_17_1_96",
        "X_2_1_1_1_1_1_9_1_1_18_1_96",
        "X_2_1_1_1_1_1_31_1_1_19_1_96",
        "X_2_1_1_1_1_1_10_1_1_20_1_96",
        "X_2_1_1_1_1_1_32_1_1_21_1_96",
        "X_2_1_1_1_1_1_11_1_1_22_1_96",
        "X_2_1_1_1_1_1_33_1_1_23_1_96",
        "X_2_1_1_1_1_1_12_1_1_24_1_96",
        "X_2_1_1_1_1_1_34_1_1_25_1_96",
        "X_2_1_1_1_1_1_13_1_1_26_1_96",
        "X_2_1_1_1_1_1_35_1_1_27_1_96",
        "X_2_1_1_1_1_1_14_1_1_28_1_96",
        "X_2_1_1_1_1_1_36_1_1_29_1_96",
        "X_2_1_1_1_1_1_15_1_1_30_1_96",
        "X_2_1_1_1_1_1_37_1_1_31_1_96",
        "X_2_1_1_1_1_1_16_1_1_32_1_96",
        "X_2_1_1_1_1_1_38_1_1_33_1_96",
        "X_2_1_1_1_1_1_17_1_1_34_1_96",
        "X_2_1_1_1_1_1_39_1_1_35_1_96",
        "X_2_1_1_1_1_1_18_1_1_36_1_96",
        "X_2_1_1_1_1_1_40_1_1_37_1_96",
        "X_2_1_1_1_1_1_19_1_1_38_1_96",
        "X_2_1_1_1_1_1_41_1_1_39_1_96",
        "X_2_1_1_1_1_1_20_1_1_40_1_96",
        "X_2_1_1_1_1_1_42_1_1_41_1_96",
        "X_2_1_1_1_1_1_21_1_1_42_1_96"
      ],
      "CsaImage.ProtocolSliceNumber": [
        0,
        1,
        2,
        3,
        4,
        5,
        6,
        7,
        8,
        9,
        10,
        11,
        12,
        13,
        14,
        15,
        16,
        17,
        18,
        19,
        20,
        21,
        22,
        23,
        24,
        25,
        26,
        27,
        28,
        29,
        30,
        31,
        32,
        33,
        34,
        35,
        36,
        37,
        38,
        39,
        40,
        41
      ],
      "CsaImage.SlicePosition_PCS": [
        [
          -110.06950143,
          -114.72302828,
          -93.60254853
        ],
        [
          -109.82313827,
          -115.38717662,
          -90.68737977
        ],
        [
          -109.57677534,
          -116.0513259,
          -87.772211
        ],
        [
          -109.33041242,
          -116.71547423,
          -84.85704224
        ],
        [
          -109.08404925,
          -117.37962351,
          -81.94187348
        ],
        [
          -108.83768633,
          -118.04377185,
          -79.02670472
        ],
        [
          -108.5913234,
          -118.70792113,
          -76.11153595
        ],
        [
          -108.34496036,
          -119.37206946,
          -73.19636338
        ],
        [
          -108.09859732,
          -120.03621779,
          -70.28119462
        ],
        [
          -107.85223439,
          -120.70036612,
          -67.36602585
        ],
        [
          -107.60587135,
          -121.36451636,
          -64.45085709
        ],
        [
          -107.35950836,
          -122.02866469,
          -61.53568833
        ],
        [
          -107.11314535,
          -122.69281302,
          -58.62051957
        ],
        [
          -106.86678236,
          -123.35696135,
          -55.7053508
        ],
        [
          -106.62041935,
          -124.02111159,
          -52.79018204
        ],
        [
          -106.37405637,
          -124.68525992,
          -49.87500947
        ],
        [
          -106.12769332,
          -125.34940825,
          -46.9598407
        ],
        [
          -105.88133034,
          -126.01355658,
          -44.04467194
        ],
        [
          -105.63496736,
          -126.67770491,
          -41.12950318
        ],
        [
          -105.38860431,
          -127.34185515,
          -38.21433442
        ],
        [
          -105.14224139,
          -128.00600348,
          -35.29916375
        ],
        [
          -104.89587834,
          -128.67015181,
          -32.38399498
        ],
        [
          -104.64951542,
          -129.33430014,
          -29.46882622
        ],
        [
          -104.40315226,
          -129.99844847,
          -26.55365651
        ],
        [
          -104.15678933,
          -130.66259871,
          -23.63848774
        ],
        [
          -103.91042641,
          -131.32674704,
          -20.72331851
        ],
        [
          -103.66406324,
          -131.99089537,
          -17.80814927
        ],
        [
          -103.41770032,
          -132.6550437,
          -14.89297997
        ],
        [
          -103.17133739,
          -133.31919394,
          -11.97781079
        ],
        [
          -102.92497423,
          -133.98334227,
          -9.06264155
        ],
        [
          -102.67861155,
          -134.6474906,
          -6.14747231
        ],
        [
          -102.43224838,
          -135.31164084,
          -3.23230259
        ],
        [
          -102.18588522,
          -135.97578726,
          -0.31713383
        ],
        [
          -101.93952253,
          -136.6399375,
          2.59803588
        ],
        [
          -101.69315937,
          -137.30408393,
          5.51320465
        ],
        [
          -101.44679621,
          -137.96823416,
          8.42837341
        ],
        [
          -101.20043352,
          -138.6323844,
          11.34354408
        ],
        [
          -100.95407036,
          -139.29653083,
          14.25871284
        ],
        [
          -100.7077072,
          -139.96068106,
          17.1738816
        ],
        [
          -100.46134451,
          -140.62482749,
          20.08905227
        ],
        [
          -100.21498135,
          -141.28897772,
          23.00422103
        ],
        [
          -99.96861818,
          -141.95312796,
          25.9193898
        ]
      ],
      "CsaImage.TimeAfterStart": [
        0.7825,
        0.5225,
        0.795,
        0.535,
        0.8075,
        0.5475,
        0.82,
        0.56,
        0.8325,
        0.5725,
        0.845,
        0.585,
        0.8575,
        0.5975,
        0.87,
        0.61,
        0.8825,
        0.6225,
        0.895,
        0.635,
        0.9075,
        0.6475,
        0.92,
        0.66,
        0.9325,
        0.6725,
        0.945,
        0.685,
        0.9575,
        0.6975,
        0.9675,
        0.71,
        0.98,
        0.72,
        0.9925,
        0.7325,
        1.005,
        0.745,
        1.0175,
        0.7575,
        1.03,
        0.77
      ],
      "ImagePositionPatient": [
        [
          -110.06950142884,
          -114.72302828481,
          -93.602548527717
        ],
        [
          -109.82313826584,
          -115.3871766155,
          -90.68737976551
        ],
        [
          -109.57677534127,
          -116.05132589986,
          -87.772211003303
        ],
        [
          -109.33041241669,
          -116.71547423055,
          -84.857042241096
        ],
        [
          -109.0840492537,
          -117.37962351491,
          -81.941873478889
        ],
        [
          -108.83768632912,
          -118.0437718456,
          -79.026704716682
        ],
        [
          -108.59132340455,
          -118.70792112996,
          -76.111535954475
        ],
        [
          -108.34496036076,
          -119.37206946065,
          -73.196363377571
        ],
        [
          -108.09859731698,
          -120.03621779134,
          -70.281194615364
        ],
        [
          -107.8522343924,
          -120.70036612203,
          -67.366025853157
        ],
        [
          -107.60587134861,
          -121.36451636007,
          -64.45085709095
        ],
        [
          -107.35950836443,
          -122.02866469075,
          -61.535688328743
        ],
        [
          -107.11314535045,
          -122.69281302144,
          -58.620519566536
        ],
        [
          -106.86678235882,
          -123.35696135213,
          -55.705350804329
        ],
        [
          -106.62041935229,
          -124.02111159017,
          -52.790182042122
        ],
        [
          -106.37405636811,
          -124.68525992086,
          -49.875009465217
        ],
        [
          -106.12769332432,
          -125.34940825155,
          -46.95984070301
        ],
        [
          -105.88133034014,
          -126.01355658223,
          -44.044671940803
        ],
        [
          -105.63496735596,
          -126.67770491292,
          -41.129503178596
        ],
        [
          -105.38860431218,
          -127.34185515096,
          -38.214334416389
        ],
        [
          -105.1422413876,
          -128.00600348165,
          -35.299163746834
        ],
        [
          -104.89587834382,
          -128.67015181234,
          -32.383994984627
        ],
        [
          -104.64951541924,
          -129.33430014303,
          -29.46882622242
        ],
        [
          -104.40315225625,
          -129.99844847371,
          -26.553656506538
        ],
        [
          -104.15678933167,
          -130.66259871175,
          -23.638487744331
        ],
        [
          -103.91042640709,
          -131.32674704244,
          -20.723318505287
        ],
        [
          -103.6640632441,
          -131.99089537313,
          -17.808149266243
        ],
        [
          -103.41770031952,
          -132.65504370382,
          -14.892979967594
        ],
        [
          -103.17133739495,
          -133.31919394185,
          -11.977810788154
        ],
        [
          -102.92497423195,
          -133.98334227254,
          -9.0626415491103
        ],
        [
          -102.6786115458,
          -134.64749060323,
          -6.1474723100661
        ],
        [
          -102.4322483828,
          -135.31164084127,
          -3.2323025941847
        ],
        [
          -102.18588521981,
          -135.97578726461,
          -0.3171338319777
        ],
        [
          -101.93952253365,
          -136.63993750264,
          2.5980358839037
        ],
        [
          -101.69315937066,
          -137.30408392598,
          5.5132046461107
        ],
        [
          -101.44679620766,
          -137.96823416402,
          8.4283734083177
        ],
        [
          -101.2004335215,
          -138.63238440206,
          11.343544077873
        ],
        [
          -100.95407035851,
          -139.2965308254,
          14.25871284008
        ],
        [
          -100.70770719552,
          -139.96068106344,
          17.173881602287
        ],
        [
          -100.46134450936,
          -140.62482748678,
          20.089052271843
        ],
        [
          -100.21498134636,
          -141.28897772481,
          23.00422103405
        ],
        [
          -99.96861818337,
          -141.95312796285,
          25.919389796257
        ]
      ],
      "InstanceCreationTime": [
        "175541.487000",
        "175541.428000",
        "175541.489000",
        "175541.430000",
        "175541.491000",
        "175541.433000",
        "175541.493000",
        "175541.435000",
        "175541.496000",
        "175541.444000",
        "175541.498000",
        "175541.446000",
        "175541.501000",
        "175541.448000",
        "175541.503000",
        "175541.450000",
        "175541.505000",
        "175541.453000",
        "175541.507000",
        "175541.455000",
        "175541.510000",
        "175541.457000",
        "175541.512000",
        "175541.465000",
        "175541.514000",
        "175541.467000",
        "175541.516000",
        "175541.469000",
        "175541.518000",
        "175541.471000",
        "175541.520000",
        "175541.474000",
        "175541.522000",
        "175541.476000",
        "175541.524000",
        "175541.478000",
        "175541.526000",
        "175541.480000",
        "175541.529000",
        "175541.482000",
        "175541.531000",
        "175541.485000"
      ],
      "InstanceNumber": [
        1,
        2,
        3,
        4,
        5,
        6,
        7,
        8,
        9,
        10,
        11,
        12,
        13,
        14,
        15,
        16,
        17,
        18,
        19,
        20,
        21,
        22,
        23,
        24,
        25,
        26,
        27,
        28,
        29,
        30,
        31,
        32,
        33,
        34,
        35,
        36,
        37,
        38,
        39,
        40,
        41,
        42
      ],
      "LargestImagePixelValue": [
        4094,
        4094,
        4093,
        4089,
        4090,
        4093,
        4091,
        4094,
        4094,
        4095,
        4092,
        4092,
        4093,
        4091,
        4080,
        4091,
        4092,
        4067,
        4090,
        4084,
        4076,
        4067,
        4077,
        4093,
        4075,
        4085,
        4092,
        4092,
        4086,
        4095,
        4088,
        4091,
        4094,
        4094,
        4094,
        4087,
        4094,
        4092,
        4093,
        4089,
        4095,
        4095
      ],
      "SliceLocation": [
        -74.59705477189,
        -71.597055317659,
        -68.597055671881,
        -65.597056237229,
        -62.597056571871,
        -59.59705713722,
        -56.597057491441,
        -53.59705434017,
        -50.597054895729,
        -47.597055461078,
        -44.597055594382,
        -41.597056154836,
        -38.597056712842,
        -35.597057272684,
        -32.597057409048,
        -29.597054262672,
        -26.597054818231,
        -23.597055378685,
        -20.597055939138,
        -17.597056072443,
        -14.597054784377,
        -11.597055339936,
        -8.5970559052841,
        -5.5970555243461,
        -2.5970556674401,
        0.40294423056505,
        3.4029441481494,
        6.4029441040738,
        9.4029443664142,
        12.402944283999,
        15.402944162425,
        18.402944965617,
        21.402943997593,
        24.402944761627,
        27.402943793604,
        30.402943670089,
        33.40294536083,
        36.402944392806,
        39.402944269292,
        42.402945115524,
        45.402944992009,
        48.402944868494
      ],
      "SmallestImagePixelValue": [
        3,
        7,
        0,
        1,
        3,
        7,
        0,
        5,
        1,
        4,
        3,
        0,
        1,
        14,
        0,
        9,
        0,
        3,
        17,
        4,
        37,
        20,
        2,
        3,
        8,
        7,
        10,
        29,
        2,
        1,
        5,
        2,
        2,
        0,
        2,
        0,
        0,
        2,
        0,
        1,
        0,
        0
      ],
      "WindowCenter": [
        -242.0,
        -230.0,
        -256.0,
        -210.0,
        -212.0,
        -160.0,
        -168.0,
        -254.0,
        -212.0,
        -176.0,
        -92.0,
        -134.0,
        -214.0,
        -320.0,
        -322.0,
        -284.0,
        -242.0,
        -254.0,
        -242.0,
        -112.0,
        -246.0,
        -226.0,
        -232.0,
        -84.0,
        -244.0,
        -112.0,
        -140.0,
        -104.0,
        -246.0,
        -118.0,
        -136.0,
        -204.0,
        -182.0,
        -212.0,
        -194.0,
        -248.0,
        -224.0,
        -212.0,
        -186.0,
        -286.0,
        -318.0,
        -354.0
      ],
      "WindowWidth": [
        5282.0,
        5720.0,
        5772.0,
        5930.0,
        5892.0,
        5810.0,
        5634.0,
        5176.0,
        5460.0,
        5410.0,
        5552.0,
        5426.0,
        5162.0,
        4666.0,
        4670.0,
        4630.0,
        4598.0,
        4596.0,
        4580.0,
        5128.0,
        4582.0,
        4566.0,
        4578.0,
        5218.0,
        4586.0,
        5246.0,
        5224.0,
        5274.0,
        4630.0,
        5430.0,
        5562.0,
        5460.0,
        5698.0,
        5854.0,
        5946.0,
        5994.0,
        6038.0,
        6178.0,
        6176.0,
        6416.0,
        6484.0,
        6462.0
      ]
    }
  }
}