{
  "AcquisitionMatrixPE": 72,
  "AcquisitionNumber": 1,
  "AcquisitionTime": "19:33:42.685000",
  "BandwidthPerPixelPhaseEncode": 17.943,
  "BaseResolution": 96,
  "BodyPartExamined": "BRAIN",
  "CoilCombinationMethod": "Sum of Squares",
  "ConsistencyInfo": "N4_VE11C_LATEST_20160120",
  "ConversionSoftware": "dcm2niix",
  "ConversionSoftwareVersion": "v1.0.20211006",
  "DerivedVendorReportedEchoSpacing": 0.000552897,
  "DeviceSerialNumber": "166011",
  "EchoTime": 0.03,
  "EchoTrainLength": 58,
  "EffectiveEchoSpacing": 0.000580542,
  "FlipAngle": 62,
  "ImageOrientationPatientDICOM": [0.997375, -0.0158571, 0.0706545, 0.0264655, 0.98805, -0.151844],
  "ImageType": [
    "ORIGINAL",
    "PRIMARY",
    "M",
    "ND",
    "MOSAIC"
],
  "ImagingFrequency": 123.259,
  "InPlanePhaseEncodingDirectionDICOM": "COL",
  "InstitutionAddress": "West 130th Street 610,NY,NYC,US,10025",
  "InstitutionName": "MBBI",
  "MRAcquisitionType": "2D",
  "MagneticFieldStrength": 3,
  "Manufacturer": "Siemens",
  "ManufacturersModelName": "Prisma",
  "Modality": "MR",
  "MultibandAccelerationFactor": 3,
  "PartialFourier": 0.75,
  "PatientPosition": "HFS",
  "PercentPhaseFOV": 100,
  "PercentSampling": 75,
  "PhaseEncodingDirection": "j-",
  "PhaseEncodingSteps": 58,
  "PhaseOversampling": 0.05,
  "PhaseResolution": 0.75,
  "PixelBandwidth": 2265,
  "ProcedureStepDescription": "White^Word_recognition",
  "ProtocolName": "func_vwfate_run6",
  "PulseSequenceDetails": "%SiemensSeq%\\ep2d_bold",
  "ReceiveCoilActiveElements": "HC1-7",
  "ReceiveCoilName": "HeadNeck_64",
  "ReconMatrixPE": 96,
  "RefLinesPE": 40,
  "RepetitionTime": 1.5,
  "SAR": 0.0419769,
  "ScanOptions": "PFP\\FS",
  "ScanningSequence": "EP",
  "SequenceName": "*epfid2d1_72",
  "SequenceVariant": "SK\\OSP",
  "SeriesDescription": "func_vwfate_run6",
  "SeriesNumber": 15,
  "ShimSetting": [-1124, -1364, 710, 526, -49, 63, -110, -1],
  "SliceThickness": 2,
  "SliceTiming": [1.0775, 0, 0.74, 0.0675, 0.8075, 0.135, 0.875, 0.2025, 0.9425, 0.27, 1.01, 0.4025, 1.1425, 0.47, 1.21, 0.5375, 1.2775, 0.605, 1.345, 0.6725, 1.4125, 0.3375, 1.0775, 0, 0.74, 0.0675, 0.8075, 0.135, 0.875, 0.2025, 0.9425, 0.27, 1.01, 0.4025, 1.1425, 0.47, 1.21, 0.5375, 1.2775, 0.605, 1.345, 0.6725, 1.4125, 0.3375, 1.0775, 0, 0.74, 0.0675, 0.8075, 0.135, 0.875, 0.2025, 0.9425, 0.27, 1.01, 0.4025, 1.1425, 0.47, 1.21, 0.5375, 1.2775, 0.605, 1.345, 0.6725, 1.4125, 0.3375],
  "SoftwareVersions": "syngo MR E11",
  "SpacingBetweenSlices": 2,
  "StationName": "AWP166011",
  "TaskName": "vwfate",
  "TotalReadoutTime": 0.0551515,
  "TxRefAmp": 212.648,
  "dcmmeta_affine": [
    [-1.9947495460510254, 0.05293107032775879, 0.13480475544929504, 84.245849609375],
    [0.03171414136886597, 1.9761000871658325, -0.30663102865219116, -70.00260925292969],
    [0.1413090080022812, 0.3036884665489197, 1.9717518091201782, -64.2000732421875],
    [0.0, 0.0, 0.0, 1.0]
],
  "dcmmeta_reorient_transform": [
    [0.0, -1.0, 0.0, 95.0],
    [1.0, 0.0, 0.0, 0.0],
    [0.0, 0.0, 1.0, 0.0],
    [0.0, 0.0, 0.0, 1.0]
],
  "dcmmeta_shape": [96, 96, 66, 164],
  "dcmmeta_slice_dim": 2,
  "dcmmeta_version": 0.6,
  "global": {
    "const": {
      "AcquisitionMatrix": [96, 0, 0, 72],
      "AngioFlag": "N",
      "BitsAllocated": 16,
      "BitsStored": 12,
      "BodyPartExamined": "BRAIN",
      "Columns": 864,
      "EchoNumbers": 1,
      "EchoTime": 30.0,
      "EchoTrainLength": 58,
      "FlipAngle": 62.0,
      "HighBit": 11,
      "ImageOrientationPatient": [0.99737480156462, -0.0158570713286, 0.07065450086739, 0.02646553568403, 0.9880500520566, -0.1518442295641],
      "ImagePositionPatient": [-875.58367855721, -864.37111291244, 27.004039027794],
      "ImageType": [
        "ORIGINAL",
        "PRIMARY",
        "M",
        "ND",
        "MOSAIC"
],
      "ImagedNucleus": "1H",
      "ImagingFrequency": 123.259454,
      "InPlanePhaseEncodingDirection": "COL",
      "MRAcquisitionType": "2D",
      "MagneticFieldStrength": 3.0,
      "Manufacturer": "SIEMENS",
      "ManufacturerModelName": "Prisma",
      "Modality": "MR",
      "NumberOfAverages": 1.0,
      "NumberOfPhaseEncodingSteps": 58,
      "PercentPhaseFieldOfView": 100.0,
      "PercentSampling": 75.0,
      "PerformedProcedureStepStartTime": "182355.268000",
      "PhotometricInterpretation": "MONOCHROME2",
      "PixelBandwidth": 2265.0,
      "PixelRepresentation": 0,
      "PixelSpacing": [2.0, 2.0],
      "ProtocolName": "func_vwfate_run6",
      "RepetitionTime": 1500.0,
      "Rows": 864,
      "SAR": 0.04197690279037,
      "SamplesPerPixel": 1,
      "ScanOptions": [
        "PFP",
        "FS"
],
      "ScanningSequence": "EP",
      "SequenceName": "*epfid2d1_72",
      "SequenceVariant": [
        "SK",
        "OSP"
],
      "SeriesDescription": "func_vwfate_run6",
      "SeriesNumber": 15,
      "SeriesTime": "193424.882000",
      "SliceLocation": -46.882451009051,
      "SliceThickness": 2.0,
      "SmallestImagePixelValue": 0,
      "SoftwareVersions": "syngo MR E11",
      "SpacingBetweenSlices": 2.000000030563,
      "SpecificCharacterSet": "ISO_IR 100",
      "StudyID": "1",
      "StudyTime": "182355.205000",
      "TransmitCoilName": "Body",
      "VariableFlipAngleFlag": "N",
      "WindowCenterWidthExplanation": "Algo1",
      "dBdt": 0.0},
    "slices": {}
  },
  "time": {
    "samples": {
      "AcquisitionNumber": [1, 2, 3, 4, 5, 6, 7, 8, 9, 10, 11, 12, 13, 14, 15, 16, 17, 18, 19, 20, 21, 22, 23, 24, 25, 26, 27, 28, 29, 30, 31, 32, 33, 34, 35, 36, 37, 38, 39, 40, 41, 42, 43, 44, 45, 46, 47, 48, 49, 50, 51, 52, 53, 54, 55, 56, 57, 58, 59, 60, 61, 62, 63, 64, 65, 66, 67, 68, 69, 70, 71, 72, 73, 74, 75, 76, 77, 78, 79, 80, 81, 82, 83, 84, 85, 86, 87, 88, 89, 90, 91, 92, 93, 94, 95, 96, 97, 98, 99, 100, 101, 102, 103, 104, 105, 106, 107, 108, 109, 110, 111, 112, 113, 114, 115, 116, 117, 118, 119, 120, 121, 122, 123, 124, 125, 126, 127, 128, 129, 130, 131, 132, 133, 134, 135, 136, 137, 138, 139, 140, 141, 142, 143, 144, 145, 146, 147, 148, 149, 150, 151, 152, 153, 154, 155, 156, 157, 158, 159, 160, 161, 162, 163, 164],
      "AcquisitionTime": ["193342.685000", "193344.185000", "193345.685000", "193347.185000", "193348.685000", "193350.185000", "193351.685000", "193353.185000", "193354.685000", "193356.185000", "193357.685000", "193359.185000", "193400.685000", "193402.185000", "193403.685000", "193405.185000", "193406.685000", "193408.185000", "193409.685000", "193411.185000", "193412.685000", "193414.185000", "193415.685000", "193417.185000", "193418.685000", "193420.185000", "193421.685000", "193423.185000", "193424.685000", "193426.185000", "193427.685000", "193429.185000", "193430.685000", "193432.185000", "193433.685000", "193435.185000", "193436.685000", "193438.185000", "193439.685000", "193441.185000", "193442.685000", "193444.185000", "193445.685000", "193447.185000", "193448.685000", "193450.185000", "193451.685000", "193453.185000", "193454.685000", "193456.185000", "193457.685000", "193459.185000", "193500.685000", "193502.185000", "193503.685000", "193505.185000", "193506.685000", "193508.185000", "193509.685000", "193511.185000", "193512.685000", "193514.185000", "193515.685000", "193517.185000", "193518.685000", "193520.185000", "193521.685000", "193523.185000", "193524.685000", "193526.185000", "193527.685000", "193529.185000", "193530.685000", "193532.185000", "193533.685000", "193535.185000", "193536.685000", "193538.185000", "193539.685000", "193541.185000", "193542.685000", "193544.185000", "193545.685000", "193547.185000", "193548.685000", "193550.185000", "193551.685000", "193553.185000", "193554.685000", "193556.185000", "193557.685000", "193559.185000", "193600.685000", "193602.185000", "193603.685000", "193605.185000", "193606.685000", "193608.185000", "193609.685000", "193611.185000", "193612.685000", "193614.185000", "193615.685000", "193617.185000", "193618.685000", "193620.185000", "193621.685000", "193623.185000", "193624.685000", "193626.185000", "193627.685000", "193629.185000", "193630.685000", "193632.185000", "193633.685000", "193635.185000", "193636.685000", "193638.185000", "193639.685000", "193641.185000", "193642.685000", "193644.185000", "193645.685000", "193647.185000", "193648.685000", "193650.185000", "193651.685000", "193653.185000", "193654.685000", "193656.185000", "193657.685000", "193659.185000", "193700.685000", "193702.185000", "193703.685000", "193705.185000", "193706.685000", "193708.185000", "193709.685000", "193711.185000", "193712.685000", "193714.185000", "193715.685000", "193717.185000", "193718.685000", "193720.185000", "193721.685000", "193723.185000", "193724.685000", "193726.185000", "193727.685000", "193729.185000", "193730.685000", "193732.185000", "193733.685000", "193735.185000", "193736.685000", "193738.185000", "193739.685000", "193741.185000", "193742.685000", "193744.185000", "193745.685000", "193747.185000"],
      "ContentTime": ["193424.886000", "193424.890000", "193424.901000", "193424.904000", "193424.907000", "193424.920000", "193424.923000", "193424.927000", "193424.930000", "193424.933000", "193424.936000", "193424.939000", "193424.943000", "193424.946000", "193424.949000", "193424.952000", "193424.955000", "193424.958000", "193424.961000", "193424.964000", "193424.968000", "193424.971000", "193424.974000", "193424.978000", "193424.981000", "193424.984000", "193424.987000", "193424.990000", "193504.881000", "193504.884000", "193504.887000", "193504.890000", "193504.894000", "193504.897000", "193504.900000", "193504.903000", "193504.906000", "193504.909000", "193504.912000", "193504.915000", "193504.918000", "193504.921000", "193504.924000", "193504.927000", "193504.930000", "193504.933000", "193504.936000", "193504.939000", "193504.942000", "193504.945000", "193504.958000", "193504.961000", "193504.964000", "193504.967000", "193544.881000", "193544.884000", "193544.887000", "193544.890000", "193544.894000", "193544.897000", "193544.900000", "193544.903000", "193544.906000", "193544.909000", "193544.912000", "193544.915000", "193544.918000", "193544.921000", "193544.924000", "193544.927000", "193544.930000", "193544.933000", "193544.936000", "193544.939000", "193544.943000", "193544.946000", "193544.949000", "193544.952000", "193544.955000", "193544.958000", "193544.961000", "193624.881000", "193624.884000", "193624.887000", "193624.891000", "193624.894000", "193624.897000", "193624.900000", "193624.903000", "193624.906000", "193624.909000", "193624.912000", "193624.915000", "193624.918000", "193624.922000", "193624.925000", "193624.928000", "193624.931000", "193624.934000", "193624.937000", "193624.940000", "193624.943000", "193624.946000", "193624.949000", "193624.952000", "193624.955000", "193624.958000", "193624.961000", "193704.880000", "193704.883000", "193704.886000", "193704.889000", "193704.893000", "193704.896000", "193704.899000", "193704.902000", "193704.905000", "193704.908000", "193704.911000", "193704.924000", "193704.927000", "193704.930000", "193704.933000", "193704.936000", "193704.939000", "193704.942000", "193704.945000", "193704.948000", "193704.951000", "193704.954000", "193704.957000", "193704.960000", "193704.964000", "193704.967000", "193744.881000", "193744.884000", "193744.887000", "193744.891000", "193744.894000", "193744.897000", "193744.900000", "193744.903000", "193744.906000", "193744.909000", "193744.912000", "193744.915000", "193744.918000", "193744.921000", "193744.924000", "193744.927000", "193744.930000", "193744.933000", "193744.936000", "193744.939000", "193744.942000", "193744.946000", "193744.949000", "193744.952000", "193744.955000", "193744.958000", "193744.961000", "193748.505000", "193748.509000", "193748.512000"],
      "InstanceCreationTime": ["193424.886000", "193424.890000", "193424.901000", "193424.904000", "193424.907000", "193424.920000", "193424.923000", "193424.927000", "193424.930000", "193424.933000", "193424.936000", "193424.939000", "193424.943000", "193424.946000", "193424.949000", "193424.952000", "193424.955000", "193424.958000", "193424.961000", "193424.964000", "193424.968000", "193424.971000", "193424.974000", "193424.978000", "193424.981000", "193424.984000", "193424.987000", "193424.990000", "193504.881000", "193504.884000", "193504.887000", "193504.890000", "193504.894000", "193504.897000", "193504.900000", "193504.903000", "193504.906000", "193504.909000", "193504.912000", "193504.915000", "193504.918000", "193504.921000", "193504.924000", "193504.927000", "193504.930000", "193504.933000", "193504.936000", "193504.939000", "193504.942000", "193504.945000", "193504.958000", "193504.961000", "193504.964000", "193504.967000", "193544.881000", "193544.884000", "193544.887000", "193544.890000", "193544.894000", "193544.897000", "193544.900000", "193544.903000", "193544.906000", "193544.909000", "193544.912000", "193544.915000", "193544.918000", "193544.921000", "193544.924000", "193544.927000", "193544.930000", "193544.933000", "193544.936000", "193544.939000", "193544.943000", "193544.946000", "193544.949000", "193544.952000", "193544.955000", "193544.958000", "193544.961000", "193624.881000", "193624.884000", "193624.887000", "193624.891000", "193624.894000", "193624.897000", "193624.900000", "193624.903000", "193624.906000", "193624.909000", "193624.912000", "193624.915000", "193624.918000", "193624.922000", "193624.925000", "193624.928000", "193624.931000", "193624.934000", "193624.937000", "193624.940000", "193624.943000", "193624.946000", "193624.949000", "193624.952000", "193624.955000", "193624.958000", "193624.961000", "193704.880000", "193704.883000", "193704.886000", "193704.889000", "193704.893000", "193704.896000", "193704.899000", "193704.902000", "193704.905000", "193704.908000", "193704.911000", "193704.924000", "193704.927000", "193704.930000", "193704.933000", "193704.936000", "193704.939000", "193704.942000", "193704.945000", "193704.948000", "193704.951000", "193704.954000", "193704.957000", "193704.960000", "193704.964000", "193704.967000", "193744.881000", "193744.884000", "193744.887000", "193744.891000", "193744.894000", "193744.897000", "193744.900000", "193744.903000", "193744.906000", "193744.909000", "193744.912000", "193744.915000", "193744.918000", "193744.921000", "193744.924000", "193744.927000", "193744.930000", "193744.933000", "193744.936000", "193744.939000", "193744.942000", "193744.946000", "193744.949000", "193744.952000", "193744.955000", "193744.958000", "193744.961000", "193748.505000", "193748.509000", "193748.512000"],
      "InstanceNumber": [1, 2, 3, 4, 5, 6, 7, 8, 9, 10, 11, 12, 13, 14, 15, 16, 17, 18, 19, 20, 21, 22, 23, 24, 25, 26, 27, 28, 29, 30, 31, 32, 33, 34, 35, 36, 37, 38, 39, 40, 41, 42, 43, 44, 45, 46, 47, 48, 49, 50, 51, 52, 53, 54, 55, 56, 57, 58, 59, 60, 61, 62, 63, 64, 65, 66, 67, 68, 69, 70, 71, 72, 73, 74, 75, 76, 77, 78, 79, 80, 81, 82, 83, 84, 85, 86, 87, 88, 89, 90, 91, 92, 93, 94, 95, 96, 97, 98, 99, 100, 101, 102, 103, 104, 105, 106, 107, 108, 109, 110, 111, 112, 113, 114, 115, 116, 117, 118, 119, 120, 121, 122, 123, 124, 125, 126, 127, 128, 129, 130, 131, 132, 133, 134, 135, 136, 137, 138, 139, 140, 141, 142, 143, 144, 145, 146, 147, 148, 149, 150, 151, 152, 153, 154, 155, 156, 157, 158, 159, 160, 161, 162, 163, 164],
      "LargestImagePixelValue": [2351, 2300, 2287, 2336, 2332, 2297, 2299, 2316, 2333, 2287, 2305, 2277, 2269, 2277, 2299, 2257, 2290, 2171, 2220, 2259, 2241, 2250, 2264, 2247, 2284, 2267, 2277, 2249, 2290, 2254, 2257, 2318, 2323, 2319, 2319, 2299, 2324, 2297, 2276, 2294, 2286, 2277, 2294, 2297, 2317, 2325, 2318, 2290, 2309, 2332, 2315, 2285, 2302, 2284, 2246, 2285, 2237, 2269, 2273, 2319, 2318, 2268, 2319, 2274, 2248, 2227, 2268, 2212, 2201, 2200, 2201, 2227, 2237, 2212, 2248, 2236, 2242, 2289, 2276, 2303, 2271, 2293, 2302, 2349, 2323, 2310, 2265, 2270, 2252, 2281, 2228, 2262, 2212, 2272, 2340, 2383, 2336, 2333, 2333, 2332, 2320, 2351, 2277, 2247, 2239, 2228, 2245, 2247, 2233, 2234, 2231, 2227, 2256, 2227, 2250, 2248, 2244, 2247, 2264, 2241, 2259, 2228, 2253, 2234, 2234, 2253, 2252, 2252, 2254, 2278, 2260, 2243, 2245, 2243, 2232, 2229, 2225, 2243, 2212, 2196, 2211, 2231, 2234, 2208, 2220, 2238, 2198, 2437, 2406, 2416, 2407, 2393, 2358, 2359, 2294, 2298, 2350, 2269, 2249, 2239, 2255, 2252, 2266, 2264],
      "WindowCenter": [699.0, 698.0, 698.0, 698.0, 697.0, 695.0, 695.0, 696.0, 697.0, 696.0, 696.0, 696.0, 696.0, 696.0, 696.0, 695.0, 696.0, 694.0, 694.0, 695.0, 695.0, 695.0, 696.0, 696.0, 696.0, 696.0, 696.0, 695.0, 695.0, 695.0, 696.0, 698.0, 697.0, 696.0, 696.0, 696.0, 695.0, 695.0, 695.0, 695.0, 695.0, 696.0, 697.0, 697.0, 697.0, 697.0, 696.0, 697.0, 697.0, 697.0, 697.0, 698.0, 698.0, 697.0, 696.0, 696.0, 695.0, 696.0, 697.0, 698.0, 699.0, 700.0, 699.0, 697.0, 695.0, 694.0, 693.0, 691.0, 691.0, 692.0, 692.0, 693.0, 694.0, 694.0, 694.0, 695.0, 696.0, 696.0, 696.0, 697.0, 696.0, 697.0, 697.0, 698.0, 697.0, 697.0, 696.0, 696.0, 696.0, 695.0, 694.0, 694.0, 694.0, 695.0, 698.0, 699.0, 698.0, 697.0, 697.0, 696.0, 697.0, 697.0, 697.0, 698.0, 697.0, 696.0, 694.0, 694.0, 696.0, 697.0, 697.0, 696.0, 696.0, 695.0, 695.0, 695.0, 695.0, 696.0, 696.0, 697.0, 696.0, 695.0, 695.0, 695.0, 695.0, 695.0, 696.0, 695.0, 695.0, 694.0, 694.0, 694.0, 694.0, 695.0, 696.0, 697.0, 696.0, 695.0, 694.0, 694.0, 695.0, 695.0, 695.0, 695.0, 694.0, 694.0, 695.0, 698.0, 700.0, 699.0, 696.0, 696.0, 697.0, 697.0, 697.0, 696.0, 697.0, 695.0, 694.0, 694.0, 695.0, 695.0, 695.0, 696.0],
      "WindowWidth": [1502.0, 1499.0, 1498.0, 1498.0, 1495.0, 1492.0, 1492.0, 1494.0, 1495.0, 1494.0, 1492.0, 1494.0, 1493.0, 1492.0, 1493.0, 1492.0, 1492.0, 1488.0, 1489.0, 1491.0, 1491.0, 1492.0, 1492.0, 1494.0, 1495.0, 1493.0, 1493.0, 1491.0, 1491.0, 1492.0, 1494.0, 1498.0, 1497.0, 1495.0, 1493.0, 1492.0, 1492.0, 1490.0, 1490.0, 1492.0, 1492.0, 1494.0, 1495.0, 1496.0, 1496.0, 1497.0, 1494.0, 1496.0, 1495.0, 1497.0, 1497.0, 1499.0, 1500.0, 1497.0, 1494.0, 1494.0, 1492.0, 1494.0, 1497.0, 1498.0, 1503.0, 1503.0, 1502.0, 1495.0, 1489.0, 1489.0, 1485.0, 1482.0, 1481.0, 1483.0, 1485.0, 1487.0, 1488.0, 1488.0, 1489.0, 1491.0, 1493.0, 1494.0, 1494.0, 1495.0, 1495.0, 1496.0, 1497.0, 1498.0, 1496.0, 1495.0, 1494.0, 1493.0, 1492.0, 1491.0, 1489.0, 1488.0, 1489.0, 1492.0, 1498.0, 1500.0, 1500.0, 1496.0, 1495.0, 1494.0, 1495.0, 1496.0, 1496.0, 1498.0, 1496.0, 1493.0, 1489.0, 1489.0, 1493.0, 1496.0, 1496.0, 1495.0, 1495.0, 1492.0, 1492.0, 1491.0, 1492.0, 1493.0, 1495.0, 1496.0, 1494.0, 1491.0, 1491.0, 1491.0, 1492.0, 1492.0, 1493.0, 1492.0, 1491.0, 1489.0, 1489.0, 1488.0, 1489.0, 1491.0, 1494.0, 1496.0, 1494.0, 1491.0, 1490.0, 1489.0, 1490.0, 1490.0, 1492.0, 1490.0, 1490.0, 1489.0, 1490.0, 1498.0, 1503.0, 1501.0, 1495.0, 1495.0, 1496.0, 1498.0, 1496.0, 1495.0, 1496.0, 1490.0, 1489.0, 1487.0, 1490.0, 1491.0, 1491.0, 1492.0]
    },
    "slices": {}
  }
}