{
  "AcquisitionMatrixPE": 72,
  "AcquisitionNumber": 1,
  "AcquisitionTime": "19:10:19.995000",
  "BandwidthPerPixelPhaseEncode": 17.943,
  "BaseResolution": 96,
  "BodyPartExamined": "BRAIN",
  "CoilCombinationMethod": "Sum of Squares",
  "ConsistencyInfo": "N4_VE11C_LATEST_20160120",
  "ConversionSoftware": "dcm2niix",
  "ConversionSoftwareVersion": "v1.0.20211006",
  "DerivedVendorReportedEchoSpacing": 0.000552897,
  "DeviceSerialNumber": "166011",
  "EchoTime": 0.03,
  "EchoTrainLength": 58,
  "EffectiveEchoSpacing": 0.000580542,
  "FlipAngle": 62,
  "ImageOrientationPatientDICOM": [0.997375, -0.0158571, 0.0706545, 0.0264655, 0.98805, -0.151844],
  "ImageType": [
    "ORIGINAL",
    "PRIMARY",
    "M",
    "ND",
    "MOSAIC"
],
  "ImagingFrequency": 123.259,
  "InPlanePhaseEncodingDirectionDICOM": "COL",
  "InstitutionAddress": "West 130th Street 610,NY,NYC,US,10025",
  "InstitutionName": "MBBI",
  "MRAcquisitionType": "2D",
  "MagneticFieldStrength": 3,
  "Manufacturer": "Siemens",
  "ManufacturersModelName": "Prisma",
  "Modality": "MR",
  "MultibandAccelerationFactor": 3,
  "PartialFourier": 0.75,
  "PatientPosition": "HFS",
  "PercentPhaseFOV": 100,
  "PercentSampling": 75,
  "PhaseEncodingDirection": "j-",
  "PhaseEncodingSteps": 58,
  "PhaseOversampling": 0.05,
  "PhaseResolution": 0.75,
  "PixelBandwidth": 2265,
  "ProcedureStepDescription": "White^Word_recognition",
  "ProtocolName": "func_vwfate_run3",
  "PulseSequenceDetails": "%SiemensSeq%\\ep2d_bold",
  "ReceiveCoilActiveElements": "HC1-7",
  "ReceiveCoilName": "HeadNeck_64",
  "ReconMatrixPE": 96,
  "RefLinesPE": 40,
  "RepetitionTime": 1.5,
  "SAR": 0.0419769,
  "ScanOptions": "PFP\\FS",
  "ScanningSequence": "EP",
  "SequenceName": "*epfid2d1_72",
  "SequenceVariant": "SK\\OSP",
  "SeriesDescription": "func_vwfate_run3",
  "SeriesNumber": 11,
  "ShimSetting": [-1124, -1364, 710, 526, -49, 63, -110, -1],
  "SliceThickness": 2,
  "SliceTiming": [1.075, 0, 0.74, 0.065, 0.805, 0.1325, 0.8725, 0.2, 0.94, 0.2675, 1.0075, 0.4025, 1.1425, 0.47, 1.21, 0.5375, 1.2775, 0.605, 1.345, 0.6725, 1.4125, 0.335, 1.075, 0, 0.74, 0.065, 0.805, 0.1325, 0.8725, 0.2, 0.94, 0.2675, 1.0075, 0.4025, 1.1425, 0.47, 1.21, 0.5375, 1.2775, 0.605, 1.345, 0.6725, 1.4125, 0.335, 1.075, 0, 0.74, 0.065, 0.805, 0.1325, 0.8725, 0.2, 0.94, 0.2675, 1.0075, 0.4025, 1.1425, 0.47, 1.21, 0.5375, 1.2775, 0.605, 1.345, 0.6725, 1.4125, 0.335],
  "SoftwareVersions": "syngo MR E11",
  "SpacingBetweenSlices": 2,
  "StationName": "AWP166011",
  "TaskName": "vwfate",
  "TotalReadoutTime": 0.0551515,
  "TxRefAmp": 212.648,
  "dcmmeta_affine": [
    [-1.9947495460510254, 0.05293107032775879, 0.13480475544929504, 84.245849609375],
    [0.03171414136886597, 1.9761000871658325, -0.30663102865219116, -70.00260925292969],
    [0.1413090080022812, 0.3036884665489197, 1.9717518091201782, -64.2000732421875],
    [0.0, 0.0, 0.0, 1.0]
],
  "dcmmeta_reorient_transform": [
    [0.0, -1.0, 0.0, 95.0],
    [1.0, 0.0, 0.0, 0.0],
    [0.0, 0.0, 1.0, 0.0],
    [0.0, 0.0, 0.0, 1.0]
],
  "dcmmeta_shape": [96, 96, 66, 164],
  "dcmmeta_slice_dim": 2,
  "dcmmeta_version": 0.6,
  "global": {
    "const": {
      "AcquisitionMatrix": [96, 0, 0, 72],
      "AngioFlag": "N",
      "BitsAllocated": 16,
      "BitsStored": 12,
      "BodyPartExamined": "BRAIN",
      "Columns": 864,
      "EchoNumbers": 1,
      "EchoTime": 30.0,
      "EchoTrainLength": 58,
      "FlipAngle": 62.0,
      "HighBit": 11,
      "ImageOrientationPatient": [0.99737480156462, -0.0158570713286, 0.07065450086739, 0.02646553568403, 0.9880500520566, -0.1518442295641],
      "ImagePositionPatient": [-875.58367855721, -864.37111291244, 27.004039027794],
      "ImageType": [
        "ORIGINAL",
        "PRIMARY",
        "M",
        "ND",
        "MOSAIC"
],
      "ImagedNucleus": "1H",
      "ImagingFrequency": 123.259442,
      "InPlanePhaseEncodingDirection": "COL",
      "MRAcquisitionType": "2D",
      "MagneticFieldStrength": 3.0,
      "Manufacturer": "SIEMENS",
      "ManufacturerModelName": "Prisma",
      "Modality": "MR",
      "NumberOfAverages": 1.0,
      "NumberOfPhaseEncodingSteps": 58,
      "PercentPhaseFieldOfView": 100.0,
      "PercentSampling": 75.0,
      "PerformedProcedureStepStartTime": "182355.268000",
      "PhotometricInterpretation": "MONOCHROME2",
      "PixelBandwidth": 2265.0,
      "PixelRepresentation": 0,
      "PixelSpacing": [2.0, 2.0],
      "ProtocolName": "func_vwfate_run3",
      "RepetitionTime": 1500.0,
      "Rows": 864,
      "SAR": 0.04197690279037,
      "SamplesPerPixel": 1,
      "ScanOptions": [
        "PFP",
        "FS"
],
      "ScanningSequence": "EP",
      "SequenceName": "*epfid2d1_72",
      "SequenceVariant": [
        "SK",
        "OSP"
],
      "SeriesDescription": "func_vwfate_run3",
      "SeriesNumber": 11,
      "SeriesTime": "191039.179000",
      "SliceLocation": -46.882451009051,
      "SliceThickness": 2.0,
      "SmallestImagePixelValue": 0,
      "SoftwareVersions": "syngo MR E11",
      "SpacingBetweenSlices": 2.000000030563,
      "SpecificCharacterSet": "ISO_IR 100",
      "StudyID": "1",
      "StudyTime": "182355.205000",
      "TransmitCoilName": "Body",
      "VariableFlipAngleFlag": "N",
      "WindowCenterWidthExplanation": "Algo1",
      "dBdt": 0.0},
    "slices": {}
  },
  "time": {
    "samples": {
      "AcquisitionNumber": [1, 2, 3, 4, 5, 6, 7, 8, 9, 10, 11, 12, 13, 14, 15, 16, 17, 18, 19, 20, 21, 22, 23, 24, 25, 26, 27, 28, 29, 30, 31, 32, 33, 34, 35, 36, 37, 38, 39, 40, 41, 42, 43, 44, 45, 46, 47, 48, 49, 50, 51, 52, 53, 54, 55, 56, 57, 58, 59, 60, 61, 62, 63, 64, 65, 66, 67, 68, 69, 70, 71, 72, 73, 74, 75, 76, 77, 78, 79, 80, 81, 82, 83, 84, 85, 86, 87, 88, 89, 90, 91, 92, 93, 94, 95, 96, 97, 98, 99, 100, 101, 102, 103, 104, 105, 106, 107, 108, 109, 110, 111, 112, 113, 114, 115, 116, 117, 118, 119, 120, 121, 122, 123, 124, 125, 126, 127, 128, 129, 130, 131, 132, 133, 134, 135, 136, 137, 138, 139, 140, 141, 142, 143, 144, 145, 146, 147, 148, 149, 150, 151, 152, 153, 154, 155, 156, 157, 158, 159, 160, 161, 162, 163, 164],
      "AcquisitionTime": ["191019.995000", "191021.495000", "191022.995000", "191024.495000", "191025.995000", "191027.495000", "191028.995000", "191030.495000", "191031.995000", "191033.495000", "191034.995000", "191036.495000", "191037.995000", "191039.495000", "191040.995000", "191042.495000", "191043.995000", "191045.495000", "191046.995000", "191048.495000", "191049.995000", "191051.495000", "191052.995000", "191054.495000", "191055.995000", "191057.495000", "191058.995000", "191100.495000", "191101.995000", "191103.495000", "191104.995000", "191106.495000", "191107.995000", "191109.495000", "191110.995000", "191112.495000", "191113.995000", "191115.495000", "191116.995000", "191118.495000", "191119.995000", "191121.495000", "191122.995000", "191124.495000", "191125.995000", "191127.495000", "191128.995000", "191130.495000", "191131.995000", "191133.495000", "191134.995000", "191136.495000", "191137.995000", "191139.495000", "191140.995000", "191142.495000", "191143.995000", "191145.495000", "191146.995000", "191148.495000", "191149.995000", "191151.495000", "191152.995000", "191154.495000", "191155.995000", "191157.495000", "191158.995000", "191200.495000", "191201.995000", "191203.495000", "191204.995000", "191206.495000", "191207.995000", "191209.495000", "191210.995000", "191212.495000", "191213.995000", "191215.495000", "191216.995000", "191218.495000", "191219.995000", "191221.495000", "191222.995000", "191224.495000", "191225.995000", "191227.495000", "191228.995000", "191230.495000", "191231.995000", "191233.495000", "191234.995000", "191236.495000", "191237.995000", "191239.495000", "191240.995000", "191242.495000", "191243.995000", "191245.495000", "191246.995000", "191248.495000", "191249.995000", "191251.495000", "191252.995000", "191254.495000", "191255.995000", "191257.495000", "191258.995000", "191300.495000", "191301.995000", "191303.495000", "191304.995000", "191306.495000", "191307.995000", "191309.495000", "191310.995000", "191312.495000", "191313.995000", "191315.495000", "191316.995000", "191318.495000", "191319.995000", "191321.495000", "191322.995000", "191324.495000", "191325.995000", "191327.495000", "191328.995000", "191330.495000", "191331.995000", "191333.495000", "191334.995000", "191336.495000", "191337.995000", "191339.495000", "191340.995000", "191342.495000", "191343.995000", "191345.495000", "191346.995000", "191348.495000", "191349.995000", "191351.495000", "191352.995000", "191354.495000", "191355.995000", "191357.495000", "191358.995000", "191400.495000", "191401.995000", "191403.495000", "191404.995000", "191406.495000", "191407.995000", "191409.495000", "191410.995000", "191412.495000", "191413.995000", "191415.495000", "191416.995000", "191418.495000", "191419.995000", "191421.495000", "191422.995000", "191424.495000"],
      "ContentTime": ["191039.183000", "191039.187000", "191039.190000", "191039.193000", "191039.196000", "191039.199000", "191039.213000", "191039.216000", "191039.219000", "191039.222000", "191039.225000", "191039.228000", "191039.231000", "191119.177000", "191119.180000", "191119.183000", "191119.187000", "191119.189000", "191119.193000", "191119.196000", "191119.199000", "191119.202000", "191119.205000", "191119.208000", "191119.212000", "191119.215000", "191119.218000", "191119.221000", "191119.225000", "191119.228000", "191119.231000", "191119.234000", "191119.237000", "191119.240000", "191119.243000", "191119.246000", "191119.249000", "191119.252000", "191119.256000", "191159.177000", "191159.180000", "191159.184000", "191159.187000", "191159.190000", "191159.193000", "191159.196000", "191159.199000", "191159.202000", "191159.205000", "191159.208000", "191159.211000", "191159.214000", "191159.217000", "191159.221000", "191159.224000", "191159.233000", "191159.236000", "191159.239000", "191159.242000", "191159.245000", "191159.248000", "191159.251000", "191159.255000", "191159.258000", "191159.261000", "191159.264000", "191239.178000", "191239.181000", "191239.185000", "191239.188000", "191239.191000", "191239.194000", "191239.197000", "191239.200000", "191239.218000", "191239.222000", "191239.225000", "191239.228000", "191239.231000", "191239.234000", "191239.237000", "191239.240000", "191239.243000", "191239.246000", "191239.249000", "191239.252000", "191239.255000", "191239.259000", "191239.262000", "191239.265000", "191239.268000", "191239.271000", "191239.274000", "191319.177000", "191319.180000", "191319.183000", "191319.186000", "191319.189000", "191319.193000", "191319.196000", "191319.199000", "191319.202000", "191319.205000", "191319.209000", "191319.213000", "191319.216000", "191319.219000", "191319.222000", "191319.225000", "191319.228000", "191319.231000", "191319.234000", "191319.238000", "191319.241000", "191319.244000", "191319.247000", "191319.250000", "191319.253000", "191319.256000", "191359.177000", "191359.180000", "191359.184000", "191359.187000", "191359.190000", "191359.193000", "191359.196000", "191359.199000", "191359.202000", "191359.205000", "191359.208000", "191359.211000", "191359.215000", "191359.218000", "191359.221000", "191359.224000", "191359.227000", "191359.230000", "191359.233000", "191359.236000", "191359.239000", "191359.242000", "191359.245000", "191359.248000", "191359.251000", "191359.255000", "191359.258000", "191425.477000", "191425.480000", "191425.483000", "191425.487000", "191425.490000", "191425.493000", "191425.496000", "191425.499000", "191425.503000", "191425.506000", "191425.510000", "191425.513000", "191425.517000", "191425.520000", "191425.523000", "191425.527000", "191425.530000", "191425.533000"],
      "InstanceCreationTime": ["191039.183000", "191039.187000", "191039.190000", "191039.193000", "191039.196000", "191039.199000", "191039.213000", "191039.216000", "191039.219000", "191039.222000", "191039.225000", "191039.228000", "191039.231000", "191119.177000", "191119.180000", "191119.183000", "191119.187000", "191119.189000", "191119.193000", "191119.196000", "191119.199000", "191119.202000", "191119.205000", "191119.208000", "191119.212000", "191119.215000", "191119.218000", "191119.221000", "191119.225000", "191119.228000", "191119.231000", "191119.234000", "191119.237000", "191119.240000", "191119.243000", "191119.246000", "191119.249000", "191119.252000", "191119.256000", "191159.177000", "191159.180000", "191159.184000", "191159.187000", "191159.190000", "191159.193000", "191159.196000", "191159.199000", "191159.202000", "191159.205000", "191159.208000", "191159.211000", "191159.214000", "191159.217000", "191159.221000", "191159.224000", "191159.233000", "191159.236000", "191159.239000", "191159.242000", "191159.245000", "191159.248000", "191159.251000", "191159.255000", "191159.258000", "191159.261000", "191159.264000", "191239.178000", "191239.181000", "191239.185000", "191239.188000", "191239.191000", "191239.194000", "191239.197000", "191239.200000", "191239.218000", "191239.222000", "191239.225000", "191239.228000", "191239.231000", "191239.234000", "191239.237000", "191239.240000", "191239.243000", "191239.246000", "191239.249000", "191239.252000", "191239.255000", "191239.259000", "191239.262000", "191239.265000", "191239.268000", "191239.271000", "191239.274000", "191319.177000", "191319.180000", "191319.183000", "191319.186000", "191319.189000", "191319.193000", "191319.196000", "191319.199000", "191319.202000", "191319.205000", "191319.209000", "191319.213000", "191319.216000", "191319.219000", "191319.222000", "191319.225000", "191319.228000", "191319.231000", "191319.234000", "191319.238000", "191319.241000", "191319.244000", "191319.247000", "191319.250000", "191319.253000", "191319.256000", "191359.177000", "191359.180000", "191359.184000", "191359.187000", "191359.190000", "191359.193000", "191359.196000", "191359.199000", "191359.202000", "191359.205000", "191359.208000", "191359.211000", "191359.215000", "191359.218000", "191359.221000", "191359.224000", "191359.227000", "191359.230000", "191359.233000", "191359.236000", "191359.239000", "191359.242000", "191359.245000", "191359.248000", "191359.251000", "191359.255000", "191359.258000", "191425.477000", "191425.480000", "191425.483000", "191425.487000", "191425.490000", "191425.493000", "191425.496000", "191425.499000", "191425.503000", "191425.506000", "191425.510000", "191425.513000", "191425.517000", "191425.520000", "191425.523000", "191425.527000", "191425.530000", "191425.533000"],
      "InstanceNumber": [1, 2, 3, 4, 5, 6, 7, 8, 9, 10, 11, 12, 13, 14, 15, 16, 17, 18, 19, 20, 21, 22, 23, 24, 25, 26, 27, 28, 29, 30, 31, 32, 33, 34, 35, 36, 37, 38, 39, 40, 41, 42, 43, 44, 45, 46, 47, 48, 49, 50, 51, 52, 53, 54, 55, 56, 57, 58, 59, 60, 61, 62, 63, 64, 65, 66, 67, 68, 69, 70, 71, 72, 73, 74, 75, 76, 77, 78, 79, 80, 81, 82, 83, 84, 85, 86, 87, 88, 89, 90, 91, 92, 93, 94, 95, 96, 97, 98, 99, 100, 101, 102, 103, 104, 105, 106, 107, 108, 109, 110, 111, 112, 113, 114, 115, 116, 117, 118, 119, 120, 121, 122, 123, 124, 125, 126, 127, 128, 129, 130, 131, 132, 133, 134, 135, 136, 137, 138, 139, 140, 141, 142, 143, 144, 145, 146, 147, 148, 149, 150, 151, 152, 153, 154, 155, 156, 157, 158, 159, 160, 161, 162, 163, 164],
      "LargestImagePixelValue": [2412, 2372, 2341, 2332, 2328, 2305, 2308, 2284, 2348, 2399, 2410, 2394, 2388, 2392, 2388, 2377, 2397, 2412, 2372, 2358, 2345, 2371, 2340, 2348, 2383, 2360, 2355, 2347, 2364, 2380, 2347, 2356, 2359, 2340, 2361, 2374, 2358, 2353, 2349, 2377, 2381, 2370, 2364, 2418, 2378, 2417, 2402, 2386, 2393, 2378, 2411, 2389, 2408, 2400, 2418, 2418, 2389, 2447, 2385, 2393, 2397, 2413, 2399, 2387, 2391, 2438, 2396, 2414, 2412, 2391, 2423, 2411, 2450, 2443, 2420, 2393, 2397, 2422, 2427, 2434, 2436, 2393, 2438, 2444, 2434, 2431, 2435, 2455, 2469, 2461, 2461, 2445, 2411, 2419, 2441, 2453, 2444, 2452, 2427, 2461, 2445, 2454, 2456, 2446, 2442, 2456, 2454, 2446, 2444, 2442, 2434, 2426, 2434, 2447, 2448, 2432, 2472, 2498, 2491, 2462, 2456, 2446, 2457, 2432, 2441, 2459, 2477, 2461, 2433, 2433, 2464, 2457, 2444, 2434, 2440, 2418, 2422, 2438, 2462, 2433, 2434, 2439, 2434, 2440, 2453, 2451, 2445, 2453, 2421, 2435, 2437, 2469, 2460, 2454, 2453, 2418, 2425, 2447, 2435, 2412, 2399, 2443, 2447, 2459],
      "WindowCenter": [707.0, 706.0, 706.0, 706.0, 705.0, 706.0, 706.0, 700.0, 705.0, 706.0, 706.0, 705.0, 705.0, 705.0, 705.0, 705.0, 705.0, 706.0, 705.0, 705.0, 704.0, 705.0, 704.0, 705.0, 705.0, 705.0, 704.0, 704.0, 704.0, 704.0, 705.0, 704.0, 704.0, 703.0, 703.0, 704.0, 704.0, 704.0, 703.0, 704.0, 705.0, 706.0, 706.0, 707.0, 705.0, 705.0, 704.0, 704.0, 704.0, 704.0, 704.0, 704.0, 704.0, 705.0, 705.0, 705.0, 704.0, 704.0, 704.0, 704.0, 703.0, 704.0, 704.0, 703.0, 703.0, 704.0, 704.0, 704.0, 704.0, 704.0, 704.0, 703.0, 703.0, 702.0, 702.0, 703.0, 703.0, 704.0, 703.0, 703.0, 704.0, 703.0, 704.0, 703.0, 703.0, 704.0, 704.0, 706.0, 705.0, 704.0, 702.0, 701.0, 702.0, 702.0, 703.0, 703.0, 703.0, 703.0, 703.0, 703.0, 702.0, 702.0, 702.0, 703.0, 703.0, 703.0, 703.0, 702.0, 702.0, 703.0, 703.0, 703.0, 703.0, 703.0, 703.0, 704.0, 704.0, 704.0, 703.0, 702.0, 702.0, 701.0, 702.0, 702.0, 703.0, 703.0, 703.0, 703.0, 703.0, 703.0, 704.0, 704.0, 703.0, 703.0, 702.0, 702.0, 702.0, 702.0, 702.0, 702.0, 702.0, 702.0, 702.0, 703.0, 704.0, 703.0, 703.0, 703.0, 703.0, 704.0, 704.0, 704.0, 704.0, 703.0, 702.0, 702.0, 701.0, 701.0, 702.0, 702.0, 702.0, 703.0, 703.0, 702.0],
      "WindowWidth": [1522.0, 1519.0, 1518.0, 1518.0, 1518.0, 1519.0, 1519.0, 1505.0, 1518.0, 1519.0, 1518.0, 1517.0, 1516.0, 1516.0, 1515.0, 1516.0, 1518.0, 1519.0, 1517.0, 1516.0, 1514.0, 1516.0, 1515.0, 1516.0, 1517.0, 1515.0, 1514.0, 1513.0, 1514.0, 1515.0, 1516.0, 1514.0, 1513.0, 1512.0, 1512.0, 1514.0, 1513.0, 1513.0, 1513.0, 1515.0, 1517.0, 1518.0, 1519.0, 1522.0, 1518.0, 1516.0, 1513.0, 1513.0, 1514.0, 1513.0, 1514.0, 1513.0, 1513.0, 1515.0, 1517.0, 1518.0, 1515.0, 1515.0, 1513.0, 1513.0, 1512.0, 1513.0, 1513.0, 1512.0, 1512.0, 1514.0, 1513.0, 1514.0, 1513.0, 1513.0, 1514.0, 1512.0, 1511.0, 1510.0, 1510.0, 1511.0, 1513.0, 1513.0, 1512.0, 1512.0, 1513.0, 1512.0, 1513.0, 1511.0, 1512.0, 1513.0, 1514.0, 1519.0, 1518.0, 1513.0, 1508.0, 1507.0, 1507.0, 1510.0, 1512.0, 1512.0, 1512.0, 1512.0, 1510.0, 1511.0, 1508.0, 1508.0, 1509.0, 1511.0, 1512.0, 1511.0, 1511.0, 1509.0, 1509.0, 1510.0, 1511.0, 1511.0, 1511.0, 1510.0, 1510.0, 1513.0, 1514.0, 1513.0, 1511.0, 1509.0, 1508.0, 1505.0, 1508.0, 1510.0, 1511.0, 1511.0, 1510.0, 1511.0, 1512.0, 1512.0, 1513.0, 1512.0, 1510.0, 1510.0, 1509.0, 1508.0, 1509.0, 1509.0, 1508.0, 1509.0, 1508.0, 1509.0, 1509.0, 1513.0, 1513.0, 1513.0, 1511.0, 1511.0, 1511.0, 1513.0, 1514.0, 1514.0, 1514.0, 1511.0, 1508.0, 1508.0, 1507.0, 1507.0, 1507.0, 1507.0, 1508.0, 1511.0, 1511.0, 1510.0]
    },
    "slices": {}
  }
}