{
  "AcquisitionMatrixPE": 72,
  "AcquisitionNumber": 1,
  "AcquisitionTime": "16:22:15.927500",
  "BandwidthPerPixelPhaseEncode": 17.943,
  "BaseResolution": 96,
  "BodyPartExamined": "BRAIN",
  "CoilCombinationMethod": "Sum of Squares",
  "ConsistencyInfo": "N4_VE11C_LATEST_20160120",
  "ConversionSoftware": "dcm2niix",
  "ConversionSoftwareVersion": "v1.0.20211006",
  "DerivedVendorReportedEchoSpacing": 0.000552897,
  "DeviceSerialNumber": "166011",
  "EchoTime": 0.03,
  "EchoTrainLength": 58,
  "EffectiveEchoSpacing": 0.000580542,
  "FlipAngle": 62,
  "ImageOrientationPatientDICOM": [0.997201, 0.0483402, -0.0570364, -0.0257643, 0.938321, 0.344804],
  "ImageType": [
    "ORIGINAL",
    "PRIMARY",
    "M",
    "ND",
    "MOSAIC"
],
  "ImagingFrequency": 123.259,
  "InPlanePhaseEncodingDirectionDICOM": "COL",
  "InstitutionAddress": "West 130th Street 610,NY,NYC,US,10025",
  "InstitutionName": "MBBI",
  "MRAcquisitionType": "2D",
  "MagneticFieldStrength": 3,
  "Manufacturer": "Siemens",
  "ManufacturersModelName": "Prisma",
  "Modality": "MR",
  "MultibandAccelerationFactor": 3,
  "PartialFourier": 0.75,
  "PatientPosition": "HFS",
  "PercentPhaseFOV": 100,
  "PercentSampling": 75,
  "PhaseEncodingDirection": "j-",
  "PhaseEncodingSteps": 58,
  "PhaseOversampling": 0.05,
  "PhaseResolution": 0.75,
  "PixelBandwidth": 2265,
  "ProcedureStepDescription": "White^Word_recognition",
  "ProtocolName": "func_vwfate_run10",
  "PulseSequenceDetails": "%SiemensSeq%\\ep2d_bold",
  "ReceiveCoilActiveElements": "HC1-7",
  "ReceiveCoilName": "HeadNeck_64",
  "ReconMatrixPE": 96,
  "RefLinesPE": 40,
  "RepetitionTime": 1.5,
  "SAR": 0.0496969,
  "ScanOptions": "PFP\\FS",
  "ScanningSequence": "EP",
  "SequenceName": "*epfid2d1_72",
  "SequenceVariant": "SK\\OSP",
  "SeriesDescription": "func_vwfate_run10",
  "SeriesNumber": 10,
  "ShimSetting": [-1178, -1502, 824, 600, -120, -288, 104, 45],
  "SliceThickness": 2,
  "SliceTiming": [1.0775, 0, 0.74, 0.0675, 0.8075, 0.135, 0.875, 0.2025, 0.9425, 0.27, 1.01, 0.405, 1.145, 0.4725, 1.2125, 0.54, 1.28, 0.6075, 1.3475, 0.6725, 1.4125, 0.3375, 1.0775, 0, 0.74, 0.0675, 0.8075, 0.135, 0.875, 0.2025, 0.9425, 0.27, 1.01, 0.405, 1.145, 0.4725, 1.2125, 0.54, 1.28, 0.6075, 1.3475, 0.6725, 1.4125, 0.3375, 1.0775, 0, 0.74, 0.0675, 0.8075, 0.135, 0.875, 0.2025, 0.9425, 0.27, 1.01, 0.405, 1.145, 0.4725, 1.2125, 0.54, 1.28, 0.6075, 1.3475, 0.6725, 1.4125, 0.3375],
  "SoftwareVersions": "syngo MR E11",
  "SpacingBetweenSlices": 2,
  "StationName": "AWP166011",
  "TaskName": "vwfate",
  "TotalReadoutTime": 0.0551515,
  "TxRefAmp": 216.897,
  "dcmmeta_affine": [
    [-1.994402289390564, -0.05152866616845131, -0.14037258923053741, 104.29963684082031],
    [-0.09668031334877014, 1.876642107963562, 0.68473881483078, -78.88093566894531],
    [-0.11407272517681122, -0.6896079778671265, 1.8738805055618286, 12.605542182922363],
    [0.0, 0.0, 0.0, 1.0]
],
  "dcmmeta_reorient_transform": [
    [0.0, -1.0, 0.0, 95.0],
    [1.0, 0.0, 0.0, 0.0],
    [0.0, 0.0, 1.0, 0.0],
    [0.0, 0.0, 0.0, 1.0]
],
  "dcmmeta_shape": [96, 96, 66, 164],
  "dcmmeta_slice_dim": 2,
  "dcmmeta_version": 0.6,
  "global": {
    "const": {
      "AcquisitionMatrix": [96, 0, 0, 72],
      "AngioFlag": "N",
      "BitsAllocated": 16,
      "BitsStored": 12,
      "BodyPartExamined": "BRAIN",
      "Columns": 864,
      "EchoNumbers": 1,
      "EchoTime": 30.0,
      "EchoTrainLength": 58,
      "FlipAngle": 62.0,
      "HighBit": 11,
      "ImageOrientationPatient": [0.99720112458643, 0.04834015576277, -0.0570363608971, -0.0257643333667, 0.93832106240911, 0.3448039775954],
      "ImagePositionPatient": [-845.46786769734, -857.15587931538, -273.91274357819],
      "ImageType": [
        "ORIGINAL",
        "PRIMARY",
        "M",
        "ND",
        "MOSAIC"
],
      "ImagedNucleus": "1H",
      "ImagingFrequency": 123.259112,
      "InPlanePhaseEncodingDirection": "COL",
      "MRAcquisitionType": "2D",
      "MagneticFieldStrength": 3.0,
      "Manufacturer": "SIEMENS",
      "ManufacturerModelName": "Prisma",
      "Modality": "MR",
      "NumberOfAverages": 1.0,
      "NumberOfPhaseEncodingSteps": 58,
      "PercentPhaseFieldOfView": 100.0,
      "PercentSampling": 75.0,
      "PerformedProcedureStepStartTime": "152924.246000",
      "PhotometricInterpretation": "MONOCHROME2",
      "PixelBandwidth": 2265.0,
      "PixelRepresentation": 0,
      "PixelSpacing": [2.0, 2.0],
      "ProtocolName": "func_vwfate_run10",
      "RepetitionTime": 1500.0,
      "Rows": 864,
      "SAR": 0.04969688099377,
      "SamplesPerPixel": 1,
      "ScanOptions": [
        "PFP",
        "FS"
],
      "ScanningSequence": "EP",
      "SequenceName": "*epfid2d1_72",
      "SequenceVariant": [
        "SK",
        "OSP"
],
      "SeriesDescription": "func_vwfate_run10",
      "SeriesNumber": 10,
      "SeriesTime": "162247.496000",
      "SliceLocation": -22.516185692864,
      "SliceThickness": 2.0,
      "SmallestImagePixelValue": 0,
      "SoftwareVersions": "syngo MR E11",
      "SpacingBetweenSlices": 2.0000000193822,
      "SpecificCharacterSet": "ISO_IR 100",
      "StudyID": "1",
      "StudyTime": "152924.196000",
      "TransmitCoilName": "Body",
      "VariableFlipAngleFlag": "N",
      "WindowCenterWidthExplanation": "Algo1",
      "dBdt": 0.0},
    "slices": {}
  },
  "time": {
    "samples": {
      "AcquisitionNumber": [1, 2, 3, 4, 5, 6, 7, 8, 9, 10, 11, 12, 13, 14, 15, 16, 17, 18, 19, 20, 21, 22, 23, 24, 25, 26, 27, 28, 29, 30, 31, 32, 33, 34, 35, 36, 37, 38, 39, 40, 41, 42, 43, 44, 45, 46, 47, 48, 49, 50, 51, 52, 53, 54, 55, 56, 57, 58, 59, 60, 61, 62, 63, 64, 65, 66, 67, 68, 69, 70, 71, 72, 73, 74, 75, 76, 77, 78, 79, 80, 81, 82, 83, 84, 85, 86, 87, 88, 89, 90, 91, 92, 93, 94, 95, 96, 97, 98, 99, 100, 101, 102, 103, 104, 105, 106, 107, 108, 109, 110, 111, 112, 113, 114, 115, 116, 117, 118, 119, 120, 121, 122, 123, 124, 125, 126, 127, 128, 129, 130, 131, 132, 133, 134, 135, 136, 137, 138, 139, 140, 141, 142, 143, 144, 145, 146, 147, 148, 149, 150, 151, 152, 153, 154, 155, 156, 157, 158, 159, 160, 161, 162, 163, 164],
      "AcquisitionTime": ["162215.927500", "162217.427500", "162218.927500", "162220.427500", "162221.927500", "162223.427500", "162224.927500", "162226.427500", "162227.927500", "162229.427500", "162230.927500", "162232.427500", "162233.927500", "162235.427500", "162236.927500", "162238.427500", "162239.927500", "162241.427500", "162242.927500", "162244.427500", "162245.927500", "162247.427500", "162248.927500", "162250.427500", "162251.927500", "162253.427500", "162254.927500", "162256.427500", "162257.927500", "162259.427500", "162300.927500", "162302.427500", "162303.927500", "162305.427500", "162306.927500", "162308.427500", "162309.927500", "162311.427500", "162312.927500", "162314.427500", "162315.927500", "162317.427500", "162318.927500", "162320.427500", "162321.927500", "162323.427500", "162324.927500", "162326.427500", "162327.927500", "162329.427500", "162330.927500", "162332.427500", "162333.927500", "162335.427500", "162336.927500", "162338.427500", "162339.927500", "162341.427500", "162342.927500", "162344.427500", "162345.927500", "162347.427500", "162348.927500", "162350.427500", "162351.927500", "162353.427500", "162354.927500", "162356.427500", "162357.927500", "162359.427500", "162400.927500", "162402.427500", "162403.927500", "162405.427500", "162406.927500", "162408.427500", "162409.927500", "162411.427500", "162412.927500", "162414.427500", "162415.927500", "162417.427500", "162418.927500", "162420.427500", "162421.927500", "162423.427500", "162424.927500", "162426.427500", "162427.927500", "162429.427500", "162430.927500", "162432.427500", "162433.927500", "162435.427500", "162436.927500", "162438.427500", "162439.927500", "162441.427500", "162442.927500", "162444.427500", "162445.927500", "162447.427500", "162448.927500", "162450.427500", "162451.927500", "162453.427500", "162454.927500", "162456.427500", "162457.927500", "162459.427500", "162500.927500", "162502.427500", "162503.927500", "162505.427500", "162506.927500", "162508.427500", "162509.927500", "162511.427500", "162512.927500", "162514.427500", "162515.927500", "162517.427500", "162518.927500", "162520.427500", "162521.927500", "162523.427500", "162524.927500", "162526.427500", "162527.927500", "162529.427500", "162530.927500", "162532.427500", "162533.927500", "162535.427500", "162536.927500", "162538.427500", "162539.927500", "162541.427500", "162542.927500", "162544.427500", "162545.927500", "162547.427500", "162548.927500", "162550.427500", "162551.927500", "162553.427500", "162554.927500", "162556.427500", "162557.927500", "162559.427500", "162600.927500", "162602.427500", "162603.927500", "162605.427500", "162606.927500", "162608.427500", "162609.927500", "162611.427500", "162612.927500", "162614.427500", "162615.927500", "162617.427500", "162618.927500", "162620.427500"],
      "ContentTime": ["162247.500000", "162247.504000", "162247.507000", "162247.511000", "162247.514000", "162247.517000", "162247.520000", "162247.536000", "162247.539000", "162247.542000", "162247.546000", "162247.549000", "162247.552000", "162247.555000", "162247.558000", "162247.561000", "162247.571000", "162247.574000", "162247.577000", "162247.580000", "162247.584000", "162327.495000", "162327.499000", "162327.510000", "162327.513000", "162327.516000", "162327.519000", "162327.522000", "162327.525000", "162327.528000", "162327.532000", "162327.535000", "162327.538000", "162327.541000", "162327.544000", "162327.547000", "162327.550000", "162327.553000", "162327.556000", "162327.559000", "162327.562000", "162327.572000", "162327.575000", "162327.578000", "162327.581000", "162327.584000", "162327.588000", "162327.591000", "162407.495000", "162407.498000", "162407.501000", "162407.504000", "162407.507000", "162407.510000", "162407.513000", "162407.517000", "162407.520000", "162407.523000", "162407.526000", "162407.529000", "162407.532000", "162407.535000", "162407.538000", "162407.541000", "162407.544000", "162407.547000", "162407.550000", "162407.553000", "162407.560000", "162407.563000", "162407.566000", "162407.569000", "162407.572000", "162407.576000", "162447.495000", "162447.498000", "162447.501000", "162447.504000", "162447.507000", "162447.510000", "162447.513000", "162447.516000", "162447.519000", "162447.523000", "162447.526000", "162447.529000", "162447.532000", "162447.535000", "162447.538000", "162447.541000", "162447.544000", "162447.547000", "162447.550000", "162447.553000", "162447.556000", "162447.559000", "162447.562000", "162447.597000", "162447.600000", "162447.603000", "162447.606000", "162527.495000", "162527.498000", "162527.502000", "162527.505000", "162527.508000", "162527.511000", "162527.514000", "162527.517000", "162527.520000", "162527.523000", "162527.526000", "162527.529000", "162527.532000", "162527.535000", "162527.538000", "162527.541000", "162527.544000", "162527.547000", "162527.550000", "162527.553000", "162527.557000", "162527.560000", "162527.563000", "162527.566000", "162527.569000", "162527.572000", "162527.575000", "162607.495000", "162607.498000", "162607.501000", "162607.504000", "162607.508000", "162607.511000", "162607.514000", "162607.517000", "162607.520000", "162607.523000", "162607.526000", "162607.529000", "162607.532000", "162607.535000", "162607.538000", "162607.541000", "162607.544000", "162607.547000", "162607.551000", "162607.554000", "162607.557000", "162607.560000", "162607.563000", "162607.566000", "162607.569000", "162607.572000", "162621.349000", "162621.353000", "162621.356000", "162621.359000", "162621.362000", "162621.366000", "162621.369000", "162621.372000", "162621.375000", "162621.378000"],
      "InstanceCreationTime": ["162247.500000", "162247.504000", "162247.507000", "162247.511000", "162247.514000", "162247.517000", "162247.520000", "162247.536000", "162247.539000", "162247.542000", "162247.546000", "162247.549000", "162247.552000", "162247.555000", "162247.558000", "162247.561000", "162247.571000", "162247.574000", "162247.577000", "162247.580000", "162247.584000", "162327.495000", "162327.499000", "162327.510000", "162327.513000", "162327.516000", "162327.519000", "162327.522000", "162327.525000", "162327.528000", "162327.532000", "162327.535000", "162327.538000", "162327.541000", "162327.544000", "162327.547000", "162327.550000", "162327.553000", "162327.556000", "162327.559000", "162327.562000", "162327.572000", "162327.575000", "162327.578000", "162327.581000", "162327.584000", "162327.588000", "162327.591000", "162407.495000", "162407.498000", "162407.501000", "162407.504000", "162407.507000", "162407.510000", "162407.513000", "162407.517000", "162407.520000", "162407.523000", "162407.526000", "162407.529000", "162407.532000", "162407.535000", "162407.538000", "162407.541000", "162407.544000", "162407.547000", "162407.550000", "162407.553000", "162407.560000", "162407.563000", "162407.566000", "162407.569000", "162407.572000", "162407.576000", "162447.495000", "162447.498000", "162447.501000", "162447.504000", "162447.507000", "162447.510000", "162447.513000", "162447.516000", "162447.519000", "162447.523000", "162447.526000", "162447.529000", "162447.532000", "162447.535000", "162447.538000", "162447.541000", "162447.544000", "162447.547000", "162447.550000", "162447.553000", "162447.556000", "162447.559000", "162447.562000", "162447.597000", "162447.600000", "162447.603000", "162447.606000", "162527.495000", "162527.498000", "162527.502000", "162527.505000", "162527.508000", "162527.511000", "162527.514000", "162527.517000", "162527.520000", "162527.523000", "162527.526000", "162527.529000", "162527.532000", "162527.535000", "162527.538000", "162527.541000", "162527.544000", "162527.547000", "162527.550000", "162527.553000", "162527.557000", "162527.560000", "162527.563000", "162527.566000", "162527.569000", "162527.572000", "162527.575000", "162607.495000", "162607.498000", "162607.501000", "162607.504000", "162607.508000", "162607.511000", "162607.514000", "162607.517000", "162607.520000", "162607.523000", "162607.526000", "162607.529000", "162607.532000", "162607.535000", "162607.538000", "162607.541000", "162607.544000", "162607.547000", "162607.551000", "162607.554000", "162607.557000", "162607.560000", "162607.563000", "162607.566000", "162607.569000", "162607.572000", "162621.349000", "162621.353000", "162621.356000", "162621.359000", "162621.362000", "162621.366000", "162621.369000", "162621.372000", "162621.375000", "162621.378000"],
      "InstanceNumber": [1, 2, 3, 4, 5, 6, 7, 8, 9, 10, 11, 12, 13, 14, 15, 16, 17, 18, 19, 20, 21, 22, 23, 24, 25, 26, 27, 28, 29, 30, 31, 32, 33, 34, 35, 36, 37, 38, 39, 40, 41, 42, 43, 44, 45, 46, 47, 48, 49, 50, 51, 52, 53, 54, 55, 56, 57, 58, 59, 60, 61, 62, 63, 64, 65, 66, 67, 68, 69, 70, 71, 72, 73, 74, 75, 76, 77, 78, 79, 80, 81, 82, 83, 84, 85, 86, 87, 88, 89, 90, 91, 92, 93, 94, 95, 96, 97, 98, 99, 100, 101, 102, 103, 104, 105, 106, 107, 108, 109, 110, 111, 112, 113, 114, 115, 116, 117, 118, 119, 120, 121, 122, 123, 124, 125, 126, 127, 128, 129, 130, 131, 132, 133, 134, 135, 136, 137, 138, 139, 140, 141, 142, 143, 144, 145, 146, 147, 148, 149, 150, 151, 152, 153, 154, 155, 156, 157, 158, 159, 160, 161, 162, 163, 164],
      "LargestImagePixelValue": [2736, 2666, 2642, 2641, 2621, 2584, 2555, 2538, 2619, 2601, 2631, 2620, 2630, 2632, 2637, 2684, 2632, 2633, 2622, 2640, 2640, 2642, 2665, 2645, 2641, 2650, 2645, 2654, 2644, 2608, 2601, 2605, 2640, 2613, 2619, 2598, 2620, 2630, 2660, 2613, 2580, 2558, 2583, 2605, 2619, 2633, 2623, 2627, 2618, 2586, 2605, 2598, 2576, 2608, 2631, 2627, 2607, 2678, 2673, 2675, 2649, 2632, 2624, 2590, 2643, 2643, 2660, 2692, 2683, 2666, 2651, 2641, 2629, 2663, 2638, 2620, 2626, 2635, 2569, 2586, 2579, 2602, 2616, 2613, 2606, 2610, 2618, 2576, 2577, 2608, 2630, 2637, 2623, 2615, 2598, 2589, 2636, 2624, 2610, 2642, 2626, 2608, 2583, 2595, 2618, 2635, 2644, 2619, 2637, 2615, 2613, 2633, 2643, 2619, 2616, 2592, 2618, 2598, 2605, 2623, 2621, 2602, 2577, 2557, 2617, 2600, 2612, 2602, 2614, 2630, 2599, 2627, 2604, 2611, 2598, 2606, 2637, 2633, 2653, 2678, 2657, 2613, 2632, 2551, 2576, 2566, 2586, 2569, 2544, 2536, 2556, 2572, 2567, 2566, 2544, 2513, 2539, 2588, 2617, 2618, 2601, 2612, 2598, 2570],
      "WindowCenter": [689.0, 687.0, 689.0, 688.0, 688.0, 689.0, 689.0, 689.0, 688.0, 687.0, 686.0, 686.0, 686.0, 686.0, 686.0, 687.0, 687.0, 687.0, 687.0, 687.0, 688.0, 689.0, 688.0, 688.0, 689.0, 688.0, 688.0, 687.0, 686.0, 686.0, 687.0, 687.0, 688.0, 686.0, 686.0, 685.0, 685.0, 686.0, 687.0, 683.0, 678.0, 687.0, 685.0, 684.0, 685.0, 684.0, 683.0, 683.0, 683.0, 682.0, 683.0, 683.0, 684.0, 685.0, 686.0, 687.0, 687.0, 687.0, 687.0, 686.0, 685.0, 684.0, 684.0, 685.0, 687.0, 688.0, 689.0, 688.0, 688.0, 687.0, 687.0, 687.0, 687.0, 688.0, 688.0, 687.0, 686.0, 687.0, 687.0, 686.0, 686.0, 688.0, 688.0, 689.0, 689.0, 688.0, 687.0, 687.0, 687.0, 687.0, 688.0, 688.0, 687.0, 686.0, 685.0, 685.0, 685.0, 685.0, 685.0, 685.0, 685.0, 685.0, 684.0, 685.0, 686.0, 687.0, 687.0, 687.0, 687.0, 686.0, 686.0, 686.0, 686.0, 687.0, 688.0, 688.0, 688.0, 686.0, 686.0, 687.0, 687.0, 686.0, 685.0, 686.0, 687.0, 687.0, 687.0, 688.0, 687.0, 687.0, 688.0, 689.0, 688.0, 687.0, 687.0, 688.0, 690.0, 689.0, 688.0, 687.0, 685.0, 684.0, 684.0, 684.0, 684.0, 686.0, 687.0, 687.0, 687.0, 685.0, 686.0, 687.0, 687.0, 686.0, 684.0, 684.0, 684.0, 686.0, 688.0, 687.0, 686.0, 685.0, 685.0, 684.0],
      "WindowWidth": [1481.0, 1476.0, 1480.0, 1479.0, 1479.0, 1482.0, 1481.0, 1480.0, 1478.0, 1476.0, 1474.0, 1472.0, 1472.0, 1473.0, 1473.0, 1475.0, 1474.0, 1475.0, 1475.0, 1476.0, 1479.0, 1480.0, 1479.0, 1479.0, 1479.0, 1479.0, 1477.0, 1474.0, 1472.0, 1473.0, 1475.0, 1477.0, 1477.0, 1473.0, 1472.0, 1470.0, 1470.0, 1474.0, 1475.0, 1466.0, 1453.0, 1475.0, 1469.0, 1468.0, 1469.0, 1469.0, 1466.0, 1465.0, 1464.0, 1462.0, 1465.0, 1466.0, 1469.0, 1471.0, 1474.0, 1475.0, 1477.0, 1475.0, 1476.0, 1473.0, 1471.0, 1467.0, 1467.0, 1470.0, 1476.0, 1477.0, 1480.0, 1479.0, 1478.0, 1476.0, 1475.0, 1475.0, 1476.0, 1478.0, 1477.0, 1475.0, 1473.0, 1474.0, 1475.0, 1473.0, 1472.0, 1477.0, 1479.0, 1480.0, 1480.0, 1477.0, 1475.0, 1475.0, 1475.0, 1477.0, 1479.0, 1479.0, 1476.0, 1474.0, 1472.0, 1472.0, 1470.0, 1470.0, 1470.0, 1471.0, 1471.0, 1471.0, 1469.0, 1470.0, 1474.0, 1476.0, 1476.0, 1475.0, 1475.0, 1473.0, 1474.0, 1473.0, 1473.0, 1475.0, 1477.0, 1477.0, 1477.0, 1473.0, 1473.0, 1475.0, 1475.0, 1473.0, 1471.0, 1472.0, 1475.0, 1475.0, 1475.0, 1477.0, 1477.0, 1476.0, 1478.0, 1481.0, 1478.0, 1476.0, 1475.0, 1478.0, 1483.0, 1481.0, 1479.0, 1475.0, 1471.0, 1468.0, 1468.0, 1468.0, 1469.0, 1472.0, 1475.0, 1476.0, 1474.0, 1471.0, 1474.0, 1476.0, 1475.0, 1471.0, 1468.0, 1467.0, 1468.0, 1473.0, 1477.0, 1477.0, 1473.0, 1471.0, 1469.0, 1468.0]
    },
    "slices": {}
  }
}