{
  "AcquisitionMatrixPE": 72,
  "AcquisitionNumber": 1,
  "AcquisitionTime": "16:34:27.122500",
  "BandwidthPerPixelPhaseEncode": 17.943,
  "BaseResolution": 96,
  "BodyPartExamined": "BRAIN",
  "CoilCombinationMethod": "Sum of Squares",
  "ConsistencyInfo": "N4_VE11C_LATEST_20160120",
  "ConversionSoftware": "dcm2niix",
  "ConversionSoftwareVersion": "v1.0.20211006",
  "DerivedVendorReportedEchoSpacing": 0.000552897,
  "DeviceSerialNumber": "166011",
  "EchoTime": 0.03,
  "EchoTrainLength": 58,
  "EffectiveEchoSpacing": 0.000580542,
  "FlipAngle": 62,
  "ImageOrientationPatientDICOM": [0.997201, 0.0483402, -0.0570364, -0.0257643, 0.938321, 0.344804],
  "ImageType": [
    "ORIGINAL",
    "PRIMARY",
    "M",
    "ND",
    "MOSAIC"
],
  "ImagingFrequency": 123.259,
  "InPlanePhaseEncodingDirectionDICOM": "COL",
  "InstitutionAddress": "West 130th Street 610,NY,NYC,US,10025",
  "InstitutionName": "MBBI",
  "MRAcquisitionType": "2D",
  "MagneticFieldStrength": 3,
  "Manufacturer": "Siemens",
  "ManufacturersModelName": "Prisma",
  "Modality": "MR",
  "MultibandAccelerationFactor": 3,
  "PartialFourier": 0.75,
  "PatientPosition": "HFS",
  "PercentPhaseFOV": 100,
  "PercentSampling": 75,
  "PhaseEncodingDirection": "j-",
  "PhaseEncodingSteps": 58,
  "PhaseOversampling": 0.05,
  "PhaseResolution": 0.75,
  "PixelBandwidth": 2265,
  "ProcedureStepDescription": "White^Word_recognition",
  "ProtocolName": "func_vwfate_run11",
  "PulseSequenceDetails": "%SiemensSeq%\\ep2d_bold",
  "ReceiveCoilActiveElements": "HC1-7",
  "ReceiveCoilName": "HeadNeck_64",
  "ReconMatrixPE": 96,
  "RefLinesPE": 40,
  "RepetitionTime": 1.5,
  "SAR": 0.0496969,
  "ScanOptions": "PFP\\FS",
  "ScanningSequence": "EP",
  "SequenceName": "*epfid2d1_72",
  "SequenceVariant": "SK\\OSP",
  "SeriesDescription": "func_vwfate_run11",
  "SeriesNumber": 12,
  "ShimSetting": [-1178, -1502, 824, 600, -120, -288, 104, 45],
  "SliceThickness": 2,
  "SliceTiming": [1.0775, 0, 0.74, 0.0675, 0.8075, 0.135, 0.875, 0.2025, 0.9425, 0.27, 1.01, 0.405, 1.145, 0.4725, 1.2125, 0.54, 1.28, 0.6075, 1.3475, 0.675, 1.415, 0.3375, 1.0775, 0, 0.74, 0.0675, 0.8075, 0.135, 0.875, 0.2025, 0.9425, 0.27, 1.01, 0.405, 1.145, 0.4725, 1.2125, 0.54, 1.28, 0.6075, 1.3475, 0.675, 1.415, 0.3375, 1.0775, 0, 0.74, 0.0675, 0.8075, 0.135, 0.875, 0.2025, 0.9425, 0.27, 1.01, 0.405, 1.145, 0.4725, 1.2125, 0.54, 1.28, 0.6075, 1.3475, 0.675, 1.415, 0.3375],
  "SoftwareVersions": "syngo MR E11",
  "SpacingBetweenSlices": 2,
  "StationName": "AWP166011",
  "TaskName": "vwfate",
  "TotalReadoutTime": 0.0551515,
  "TxRefAmp": 216.897,
  "dcmmeta_affine": [
    [-1.994402289390564, -0.05152866616845131, -0.14037258923053741, 104.29963684082031],
    [-0.09668031334877014, 1.876642107963562, 0.68473881483078, -78.88093566894531],
    [-0.11407272517681122, -0.6896079778671265, 1.8738805055618286, 12.605542182922363],
    [0.0, 0.0, 0.0, 1.0]
],
  "dcmmeta_reorient_transform": [
    [0.0, -1.0, 0.0, 95.0],
    [1.0, 0.0, 0.0, 0.0],
    [0.0, 0.0, 1.0, 0.0],
    [0.0, 0.0, 0.0, 1.0]
],
  "dcmmeta_shape": [96, 96, 66, 164],
  "dcmmeta_slice_dim": 2,
  "dcmmeta_version": 0.6,
  "global": {
    "const": {
      "AcquisitionMatrix": [96, 0, 0, 72],
      "AngioFlag": "N",
      "BitsAllocated": 16,
      "BitsStored": 12,
      "BodyPartExamined": "BRAIN",
      "Columns": 864,
      "EchoNumbers": 1,
      "EchoTime": 30.0,
      "EchoTrainLength": 58,
      "FlipAngle": 62.0,
      "HighBit": 11,
      "ImageOrientationPatient": [0.99720112458643, 0.04834015576277, -0.0570363608971, -0.0257643333667, 0.93832106240911, 0.3448039775954],
      "ImagePositionPatient": [-845.46786769734, -857.15587931538, -273.91274357819],
      "ImageType": [
        "ORIGINAL",
        "PRIMARY",
        "M",
        "ND",
        "MOSAIC"
],
      "ImagedNucleus": "1H",
      "ImagingFrequency": 123.259117,
      "InPlanePhaseEncodingDirection": "COL",
      "MRAcquisitionType": "2D",
      "MagneticFieldStrength": 3.0,
      "Manufacturer": "SIEMENS",
      "ManufacturerModelName": "Prisma",
      "Modality": "MR",
      "NumberOfAverages": 1.0,
      "NumberOfPhaseEncodingSteps": 58,
      "PercentPhaseFieldOfView": 100.0,
      "PercentSampling": 75.0,
      "PerformedProcedureStepStartTime": "152924.246000",
      "PhotometricInterpretation": "MONOCHROME2",
      "PixelBandwidth": 2265.0,
      "PixelRepresentation": 0,
      "PixelSpacing": [2.0, 2.0],
      "ProtocolName": "func_vwfate_run11",
      "RepetitionTime": 1500.0,
      "Rows": 864,
      "SAR": 0.04969688099377,
      "SamplesPerPixel": 1,
      "ScanOptions": [
        "PFP",
        "FS"
],
      "ScanningSequence": "EP",
      "SequenceName": "*epfid2d1_72",
      "SequenceVariant": [
        "SK",
        "OSP"
],
      "SeriesDescription": "func_vwfate_run11",
      "SeriesNumber": 12,
      "SeriesTime": "163511.690000",
      "SliceLocation": -22.516185692864,
      "SliceThickness": 2.0,
      "SmallestImagePixelValue": 0,
      "SoftwareVersions": "syngo MR E11",
      "SpacingBetweenSlices": 2.0000000193822,
      "SpecificCharacterSet": "ISO_IR 100",
      "StudyID": "1",
      "StudyTime": "152924.196000",
      "TransmitCoilName": "Body",
      "VariableFlipAngleFlag": "N",
      "WindowCenterWidthExplanation": "Algo1",
      "dBdt": 0.0},
    "slices": {}
  },
  "time": {
    "samples": {
      "AcquisitionNumber": [1, 2, 3, 4, 5, 6, 7, 8, 9, 10, 11, 12, 13, 14, 15, 16, 17, 18, 19, 20, 21, 22, 23, 24, 25, 26, 27, 28, 29, 30, 31, 32, 33, 34, 35, 36, 37, 38, 39, 40, 41, 42, 43, 44, 45, 46, 47, 48, 49, 50, 51, 52, 53, 54, 55, 56, 57, 58, 59, 60, 61, 62, 63, 64, 65, 66, 67, 68, 69, 70, 71, 72, 73, 74, 75, 76, 77, 78, 79, 80, 81, 82, 83, 84, 85, 86, 87, 88, 89, 90, 91, 92, 93, 94, 95, 96, 97, 98, 99, 100, 101, 102, 103, 104, 105, 106, 107, 108, 109, 110, 111, 112, 113, 114, 115, 116, 117, 118, 119, 120, 121, 122, 123, 124, 125, 126, 127, 128, 129, 130, 131, 132, 133, 134, 135, 136, 137, 138, 139, 140, 141, 142, 143, 144, 145, 146, 147, 148, 149, 150, 151, 152, 153, 154, 155, 156, 157, 158, 159, 160, 161, 162, 163, 164],
      "AcquisitionTime": ["163427.122500", "163428.622500", "163430.122500", "163431.622500", "163433.122500", "163434.622500", "163436.122500", "163437.622500", "163439.122500", "163440.622500", "163442.122500", "163443.622500", "163445.122500", "163446.622500", "163448.122500", "163449.622500", "163451.122500", "163452.622500", "163454.122500", "163455.622500", "163457.122500", "163458.622500", "163500.122500", "163501.622500", "163503.122500", "163504.622500", "163506.122500", "163507.622500", "163509.122500", "163510.622500", "163512.122500", "163513.622500", "163515.122500", "163516.622500", "163518.122500", "163519.622500", "163521.122500", "163522.622500", "163524.122500", "163525.622500", "163527.122500", "163528.622500", "163530.122500", "163531.622500", "163533.122500", "163534.622500", "163536.122500", "163537.622500", "163539.122500", "163540.622500", "163542.122500", "163543.622500", "163545.122500", "163546.622500", "163548.122500", "163549.622500", "163551.122500", "163552.622500", "163554.122500", "163555.622500", "163557.122500", "163558.622500", "163600.122500", "163601.622500", "163603.122500", "163604.622500", "163606.122500", "163607.622500", "163609.122500", "163610.622500", "163612.122500", "163613.622500", "163615.122500", "163616.622500", "163618.122500", "163619.622500", "163621.122500", "163622.622500", "163624.122500", "163625.622500", "163627.122500", "163628.622500", "163630.122500", "163631.622500", "163633.122500", "163634.622500", "163636.122500", "163637.622500", "163639.122500", "163640.622500", "163642.122500", "163643.622500", "163645.122500", "163646.622500", "163648.122500", "163649.622500", "163651.122500", "163652.622500", "163654.122500", "163655.622500", "163657.122500", "163658.622500", "163700.122500", "163701.622500", "163703.122500", "163704.622500", "163706.122500", "163707.622500", "163709.122500", "163710.622500", "163712.122500", "163713.622500", "163715.122500", "163716.622500", "163718.122500", "163719.622500", "163721.122500", "163722.622500", "163724.122500", "163725.622500", "163727.122500", "163728.622500", "163730.122500", "163731.622500", "163733.122500", "163734.622500", "163736.122500", "163737.622500", "163739.122500", "163740.622500", "163742.122500", "163743.622500", "163745.122500", "163746.622500", "163748.122500", "163749.622500", "163751.122500", "163752.622500", "163754.122500", "163755.622500", "163757.122500", "163758.622500", "163800.122500", "163801.622500", "163803.122500", "163804.622500", "163806.122500", "163807.622500", "163809.122500", "163810.622500", "163812.122500", "163813.622500", "163815.122500", "163816.622500", "163818.122500", "163819.622500", "163821.122500", "163822.622500", "163824.122500", "163825.622500", "163827.122500", "163828.622500", "163830.122500", "163831.622500"],
      "ContentTime": ["163511.694000", "163511.698000", "163511.701000", "163511.704000", "163511.707000", "163511.710000", "163511.714000", "163511.717000", "163511.720000", "163511.723000", "163511.726000", "163511.729000", "163511.732000", "163511.735000", "163511.738000", "163511.742000", "163511.745000", "163511.748000", "163511.751000", "163511.762000", "163511.765000", "163511.768000", "163511.771000", "163511.774000", "163511.777000", "163511.780000", "163511.783000", "163511.786000", "163511.789000", "163551.690000", "163551.693000", "163551.696000", "163551.699000", "163551.702000", "163551.706000", "163551.708000", "163551.712000", "163551.715000", "163551.718000", "163551.721000", "163551.724000", "163551.727000", "163551.730000", "163551.733000", "163551.743000", "163551.746000", "163551.749000", "163551.752000", "163551.755000", "163551.758000", "163551.761000", "163551.764000", "163551.767000", "163551.770000", "163551.773000", "163551.776000", "163631.689000", "163631.692000", "163631.695000", "163631.698000", "163631.702000", "163631.705000", "163631.708000", "163631.711000", "163631.714000", "163631.717000", "163631.720000", "163631.723000", "163631.726000", "163631.729000", "163631.732000", "163631.735000", "163631.738000", "163631.741000", "163631.745000", "163631.748000", "163631.751000", "163631.760000", "163631.763000", "163631.766000", "163631.769000", "163631.772000", "163631.775000", "163711.689000", "163711.692000", "163711.695000", "163711.698000", "163711.701000", "163711.705000", "163711.708000", "163711.711000", "163711.714000", "163711.717000", "163711.720000", "163711.723000", "163711.726000", "163711.729000", "163711.732000", "163711.735000", "163711.753000", "163711.756000", "163711.759000", "163711.762000", "163711.765000", "163711.768000", "163711.771000", "163711.774000", "163711.777000", "163711.780000", "163751.690000", "163751.693000", "163751.696000", "163751.699000", "163751.702000", "163751.705000", "163751.708000", "163751.712000", "163751.715000", "163751.718000", "163751.721000", "163751.724000", "163751.727000", "163751.730000", "163751.733000", "163751.736000", "163751.740000", "163751.743000", "163751.746000", "163751.749000", "163751.752000", "163751.755000", "163751.758000", "163751.761000", "163751.764000", "163751.767000", "163751.770000", "163831.689000", "163831.692000", "163831.695000", "163831.698000", "163831.701000", "163831.704000", "163831.707000", "163831.710000", "163831.713000", "163831.716000", "163831.720000", "163831.723000", "163831.726000", "163831.729000", "163831.732000", "163831.735000", "163831.738000", "163831.741000", "163831.744000", "163831.747000", "163831.750000", "163831.753000", "163831.756000", "163831.759000", "163831.762000", "163831.765000", "163831.768000", "163833.160000"],
      "InstanceCreationTime": ["163511.694000", "163511.698000", "163511.701000", "163511.704000", "163511.707000", "163511.710000", "163511.714000", "163511.717000", "163511.720000", "163511.723000", "163511.726000", "163511.729000", "163511.732000", "163511.735000", "163511.738000", "163511.742000", "163511.745000", "163511.748000", "163511.751000", "163511.762000", "163511.765000", "163511.768000", "163511.771000", "163511.774000", "163511.777000", "163511.780000", "163511.783000", "163511.786000", "163511.789000", "163551.690000", "163551.693000", "163551.696000", "163551.699000", "163551.702000", "163551.706000", "163551.708000", "163551.712000", "163551.715000", "163551.718000", "163551.721000", "163551.724000", "163551.727000", "163551.730000", "163551.733000", "163551.743000", "163551.746000", "163551.749000", "163551.752000", "163551.755000", "163551.758000", "163551.761000", "163551.764000", "163551.767000", "163551.770000", "163551.773000", "163551.776000", "163631.689000", "163631.692000", "163631.695000", "163631.698000", "163631.702000", "163631.705000", "163631.708000", "163631.711000", "163631.714000", "163631.717000", "163631.720000", "163631.723000", "163631.726000", "163631.729000", "163631.732000", "163631.735000", "163631.738000", "163631.741000", "163631.745000", "163631.748000", "163631.751000", "163631.760000", "163631.763000", "163631.766000", "163631.769000", "163631.772000", "163631.775000", "163711.689000", "163711.692000", "163711.695000", "163711.698000", "163711.701000", "163711.705000", "163711.708000", "163711.711000", "163711.714000", "163711.717000", "163711.720000", "163711.723000", "163711.726000", "163711.729000", "163711.732000", "163711.735000", "163711.753000", "163711.756000", "163711.759000", "163711.762000", "163711.765000", "163711.768000", "163711.771000", "163711.774000", "163711.777000", "163711.780000", "163751.690000", "163751.693000", "163751.696000", "163751.699000", "163751.702000", "163751.705000", "163751.708000", "163751.712000", "163751.715000", "163751.718000", "163751.721000", "163751.724000", "163751.727000", "163751.730000", "163751.733000", "163751.736000", "163751.740000", "163751.743000", "163751.746000", "163751.749000", "163751.752000", "163751.755000", "163751.758000", "163751.761000", "163751.764000", "163751.767000", "163751.770000", "163831.689000", "163831.692000", "163831.695000", "163831.698000", "163831.701000", "163831.704000", "163831.707000", "163831.710000", "163831.713000", "163831.716000", "163831.720000", "163831.723000", "163831.726000", "163831.729000", "163831.732000", "163831.735000", "163831.738000", "163831.741000", "163831.744000", "163831.747000", "163831.750000", "163831.753000", "163831.756000", "163831.759000", "163831.762000", "163831.765000", "163831.768000", "163833.160000"],
      "InstanceNumber": [1, 2, 3, 4, 5, 6, 7, 8, 9, 10, 11, 12, 13, 14, 15, 16, 17, 18, 19, 20, 21, 22, 23, 24, 25, 26, 27, 28, 29, 30, 31, 32, 33, 34, 35, 36, 37, 38, 39, 40, 41, 42, 43, 44, 45, 46, 47, 48, 49, 50, 51, 52, 53, 54, 55, 56, 57, 58, 59, 60, 61, 62, 63, 64, 65, 66, 67, 68, 69, 70, 71, 72, 73, 74, 75, 76, 77, 78, 79, 80, 81, 82, 83, 84, 85, 86, 87, 88, 89, 90, 91, 92, 93, 94, 95, 96, 97, 98, 99, 100, 101, 102, 103, 104, 105, 106, 107, 108, 109, 110, 111, 112, 113, 114, 115, 116, 117, 118, 119, 120, 121, 122, 123, 124, 125, 126, 127, 128, 129, 130, 131, 132, 133, 134, 135, 136, 137, 138, 139, 140, 141, 142, 143, 144, 145, 146, 147, 148, 149, 150, 151, 152, 153, 154, 155, 156, 157, 158, 159, 160, 161, 162, 163, 164],
      "LargestImagePixelValue": [2739, 2665, 2635, 2675, 2686, 2658, 2670, 2709, 2662, 2684, 2711, 2646, 2685, 2693, 2687, 2677, 2694, 2687, 2677, 2675, 2682, 2687, 2689, 2682, 2691, 2698, 2688, 2659, 2670, 2650, 2640, 2623, 2627, 2690, 2663, 2675, 2615, 2642, 2615, 2640, 2641, 2646, 2599, 2642, 2602, 2500, 2618, 2598, 2588, 2628, 2669, 2645, 2655, 2659, 2678, 2657, 2641, 2673, 2708, 2696, 2676, 2698, 2678, 2671, 2668, 2648, 2637, 2632, 2652, 2694, 2693, 2663, 2671, 2697, 2411, 2848, 2726, 2675, 2657, 2620, 2614, 2623, 2649, 2638, 2660, 2653, 2640, 2613, 2614, 2615, 2657, 2644, 2674, 2654, 2619, 2625, 2598, 2516, 2607, 2625, 2624, 2612, 2640, 2624, 2607, 2588, 2595, 2549, 2566, 2579, 2623, 2621, 2602, 2579, 2572, 2621, 2620, 2664, 2612, 2634, 2644, 2624, 2607, 2593, 2572, 2643, 2639, 2632, 2625, 2566, 2605, 2580, 2646, 2633, 2635, 2503, 2528, 2564, 2583, 2575, 2529, 2548, 2584, 2582, 2638, 2609, 2656, 2600, 2539, 2582, 2555, 2578, 2585, 2581, 2565, 2561, 2548, 2568, 2587, 2560, 2537, 2592, 2560, 2591],
      "WindowCenter": [686.0, 684.0, 685.0, 686.0, 687.0, 686.0, 687.0, 687.0, 686.0, 686.0, 686.0, 685.0, 687.0, 687.0, 686.0, 685.0, 685.0, 685.0, 685.0, 685.0, 686.0, 686.0, 687.0, 687.0, 689.0, 690.0, 690.0, 690.0, 688.0, 687.0, 687.0, 688.0, 689.0, 690.0, 690.0, 689.0, 687.0, 686.0, 686.0, 688.0, 688.0, 689.0, 689.0, 688.0, 686.0, 682.0, 682.0, 686.0, 684.0, 685.0, 686.0, 685.0, 684.0, 684.0, 685.0, 685.0, 685.0, 686.0, 687.0, 687.0, 687.0, 687.0, 687.0, 687.0, 687.0, 687.0, 688.0, 688.0, 689.0, 690.0, 689.0, 689.0, 690.0, 691.0, 685.0, 693.0, 689.0, 687.0, 686.0, 685.0, 684.0, 685.0, 685.0, 686.0, 686.0, 686.0, 686.0, 686.0, 688.0, 689.0, 689.0, 689.0, 688.0, 687.0, 686.0, 686.0, 682.0, 686.0, 687.0, 687.0, 687.0, 686.0, 685.0, 684.0, 683.0, 683.0, 683.0, 684.0, 685.0, 687.0, 687.0, 687.0, 687.0, 686.0, 686.0, 687.0, 687.0, 689.0, 688.0, 687.0, 686.0, 685.0, 684.0, 684.0, 684.0, 685.0, 687.0, 687.0, 688.0, 683.0, 687.0, 687.0, 687.0, 686.0, 685.0, 683.0, 683.0, 682.0, 682.0, 683.0, 683.0, 684.0, 686.0, 687.0, 688.0, 688.0, 689.0, 688.0, 687.0, 689.0, 688.0, 688.0, 688.0, 688.0, 687.0, 686.0, 686.0, 687.0, 687.0, 688.0, 687.0, 686.0, 685.0, 685.0],
      "WindowWidth": [1473.0, 1468.0, 1469.0, 1472.0, 1474.0, 1473.0, 1474.0, 1474.0, 1473.0, 1474.0, 1474.0, 1471.0, 1476.0, 1474.0, 1472.0, 1470.0, 1469.0, 1469.0, 1469.0, 1469.0, 1471.0, 1473.0, 1475.0, 1475.0, 1479.0, 1483.0, 1483.0, 1482.0, 1478.0, 1476.0, 1474.0, 1477.0, 1482.0, 1484.0, 1483.0, 1480.0, 1475.0, 1473.0, 1473.0, 1477.0, 1478.0, 1480.0, 1479.0, 1477.0, 1473.0, 1463.0, 1463.0, 1471.0, 1466.0, 1471.0, 1471.0, 1469.0, 1468.0, 1467.0, 1469.0, 1469.0, 1470.0, 1471.0, 1473.0, 1474.0, 1474.0, 1475.0, 1475.0, 1475.0, 1475.0, 1475.0, 1477.0, 1478.0, 1480.0, 1482.0, 1481.0, 1482.0, 1484.0, 1486.0, 1471.0, 1490.0, 1480.0, 1475.0, 1471.0, 1469.0, 1468.0, 1469.0, 1470.0, 1472.0, 1472.0, 1473.0, 1473.0, 1474.0, 1478.0, 1480.0, 1481.0, 1479.0, 1478.0, 1475.0, 1473.0, 1472.0, 1462.0, 1474.0, 1476.0, 1475.0, 1476.0, 1473.0, 1470.0, 1467.0, 1464.0, 1464.0, 1465.0, 1467.0, 1470.0, 1474.0, 1475.0, 1476.0, 1474.0, 1472.0, 1472.0, 1475.0, 1476.0, 1480.0, 1477.0, 1475.0, 1472.0, 1469.0, 1468.0, 1467.0, 1468.0, 1471.0, 1475.0, 1476.0, 1476.0, 1464.0, 1477.0, 1476.0, 1476.0, 1472.0, 1470.0, 1465.0, 1466.0, 1463.0, 1463.0, 1465.0, 1465.0, 1467.0, 1472.0, 1475.0, 1477.0, 1477.0, 1481.0, 1477.0, 1477.0, 1480.0, 1479.0, 1479.0, 1478.0, 1478.0, 1475.0, 1474.0, 1474.0, 1477.0, 1476.0, 1477.0, 1475.0, 1474.0, 1471.0, 1471.0]
    },
    "slices": {}
  }
}