{
  "AcquisitionMatrixPE": 72,
  "AcquisitionNumber": 1,
  "AcquisitionTime": "16:04:13.210000",
  "BandwidthPerPixelPhaseEncode": 17.943,
  "BaseResolution": 96,
  "BodyPartExamined": "BRAIN",
  "CoilCombinationMethod": "Sum of Squares",
  "ConsistencyInfo": "N4_VE11C_LATEST_20160120",
  "ConversionSoftware": "dcm2niix",
  "ConversionSoftwareVersion": "v1.0.20211006",
  "DerivedVendorReportedEchoSpacing": 0.000552897,
  "DeviceSerialNumber": "166011",
  "EchoTime": 0.03,
  "EchoTrainLength": 58,
  "EffectiveEchoSpacing": 0.000580542,
  "FlipAngle": 62,
  "ImageOrientationPatientDICOM": [0.997201, 0.0483402, -0.0570364, -0.0257643, 0.938321, 0.344804],
  "ImageType": [
    "ORIGINAL",
    "PRIMARY",
    "M",
    "ND",
    "MOSAIC"
],
  "ImagingFrequency": 123.259,
  "InPlanePhaseEncodingDirectionDICOM": "COL",
  "InstitutionAddress": "West 130th Street 610,NY,NYC,US,10025",
  "InstitutionName": "MBBI",
  "MRAcquisitionType": "2D",
  "MagneticFieldStrength": 3,
  "Manufacturer": "Siemens",
  "ManufacturersModelName": "Prisma",
  "Modality": "MR",
  "MultibandAccelerationFactor": 3,
  "PartialFourier": 0.75,
  "PatientPosition": "HFS",
  "PercentPhaseFOV": 100,
  "PercentSampling": 75,
  "PhaseEncodingDirection": "j-",
  "PhaseEncodingSteps": 58,
  "PhaseOversampling": 0.05,
  "PhaseResolution": 0.75,
  "PixelBandwidth": 2265,
  "ProcedureStepDescription": "White^Word_recognition",
  "ProtocolName": "func_vwfate_run8",
  "PulseSequenceDetails": "%SiemensSeq%\\ep2d_bold",
  "ReceiveCoilActiveElements": "HC1-7",
  "ReceiveCoilName": "HeadNeck_64",
  "ReconMatrixPE": 96,
  "RefLinesPE": 40,
  "RepetitionTime": 1.5,
  "SAR": 0.0496969,
  "ScanOptions": "PFP\\FS",
  "ScanningSequence": "EP",
  "SequenceName": "*epfid2d1_72",
  "SequenceVariant": "SK\\OSP",
  "SeriesDescription": "func_vwfate_run8",
  "SeriesNumber": 7,
  "ShimSetting": [-1178, -1502, 824, 600, -120, -288, 104, 45],
  "SliceThickness": 2,
  "SliceTiming": [1.075, 0, 0.74, 0.0675, 0.8075, 0.135, 0.875, 0.2, 0.94, 0.2675, 1.0075, 0.4025, 1.1425, 0.47, 1.21, 0.5375, 1.2775, 0.605, 1.345, 0.6725, 1.4125, 0.335, 1.075, 0, 0.74, 0.0675, 0.8075, 0.135, 0.875, 0.2, 0.94, 0.2675, 1.0075, 0.4025, 1.1425, 0.47, 1.21, 0.5375, 1.2775, 0.605, 1.345, 0.6725, 1.4125, 0.335, 1.075, 0, 0.74, 0.0675, 0.8075, 0.135, 0.875, 0.2, 0.94, 0.2675, 1.0075, 0.4025, 1.1425, 0.47, 1.21, 0.5375, 1.2775, 0.605, 1.345, 0.6725, 1.4125, 0.335],
  "SoftwareVersions": "syngo MR E11",
  "SpacingBetweenSlices": 2,
  "StationName": "AWP166011",
  "TaskName": "vwfate",
  "TotalReadoutTime": 0.0551515,
  "TxRefAmp": 216.897,
  "dcmmeta_affine": [
    [-1.994402289390564, -0.05152866616845131, -0.14037258923053741, 104.29963684082031],
    [-0.09668031334877014, 1.876642107963562, 0.68473881483078, -78.88093566894531],
    [-0.11407272517681122, -0.6896079778671265, 1.8738805055618286, 12.605542182922363],
    [0.0, 0.0, 0.0, 1.0]
],
  "dcmmeta_reorient_transform": [
    [0.0, -1.0, 0.0, 95.0],
    [1.0, 0.0, 0.0, 0.0],
    [0.0, 0.0, 1.0, 0.0],
    [0.0, 0.0, 0.0, 1.0]
],
  "dcmmeta_shape": [96, 96, 66, 164],
  "dcmmeta_slice_dim": 2,
  "dcmmeta_version": 0.6,
  "global": {
    "const": {
      "AcquisitionMatrix": [96, 0, 0, 72],
      "AngioFlag": "N",
      "BitsAllocated": 16,
      "BitsStored": 12,
      "BodyPartExamined": "BRAIN",
      "Columns": 864,
      "EchoNumbers": 1,
      "EchoTime": 30.0,
      "EchoTrainLength": 58,
      "FlipAngle": 62.0,
      "HighBit": 11,
      "ImageOrientationPatient": [0.99720112458643, 0.04834015576277, -0.0570363608971, -0.0257643333667, 0.93832106240911, 0.3448039775954],
      "ImagePositionPatient": [-845.46786769734, -857.15587931538, -273.91274357819],
      "ImageType": [
        "ORIGINAL",
        "PRIMARY",
        "M",
        "ND",
        "MOSAIC"
],
      "ImagedNucleus": "1H",
      "ImagingFrequency": 123.259101,
      "InPlanePhaseEncodingDirection": "COL",
      "MRAcquisitionType": "2D",
      "MagneticFieldStrength": 3.0,
      "Manufacturer": "SIEMENS",
      "ManufacturerModelName": "Prisma",
      "Modality": "MR",
      "NumberOfAverages": 1.0,
      "NumberOfPhaseEncodingSteps": 58,
      "PercentPhaseFieldOfView": 100.0,
      "PercentSampling": 75.0,
      "PerformedProcedureStepStartTime": "152924.246000",
      "PhotometricInterpretation": "MONOCHROME2",
      "PixelBandwidth": 2265.0,
      "PixelRepresentation": 0,
      "PixelSpacing": [2.0, 2.0],
      "ProtocolName": "func_vwfate_run8",
      "RepetitionTime": 1500.0,
      "Rows": 864,
      "SAR": 0.04969688099377,
      "SamplesPerPixel": 1,
      "ScanOptions": [
        "PFP",
        "FS"
],
      "ScanningSequence": "EP",
      "SequenceName": "*epfid2d1_72",
      "SequenceVariant": [
        "SK",
        "OSP"
],
      "SeriesDescription": "func_vwfate_run8",
      "SeriesNumber": 7,
      "SeriesTime": "160447.496000",
      "SliceLocation": -22.516185692864,
      "SliceThickness": 2.0,
      "SmallestImagePixelValue": 0,
      "SoftwareVersions": "syngo MR E11",
      "SpacingBetweenSlices": 2.0000000193822,
      "SpecificCharacterSet": "ISO_IR 100",
      "StudyID": "1",
      "StudyTime": "152924.196000",
      "TransmitCoilName": "Body",
      "VariableFlipAngleFlag": "N",
      "WindowCenterWidthExplanation": "Algo1",
      "dBdt": 0.0},
    "slices": {}
  },
  "time": {
    "samples": {
      "AcquisitionNumber": [1, 2, 3, 4, 5, 6, 7, 8, 9, 10, 11, 12, 13, 14, 15, 16, 17, 18, 19, 20, 21, 22, 23, 24, 25, 26, 27, 28, 29, 30, 31, 32, 33, 34, 35, 36, 37, 38, 39, 40, 41, 42, 43, 44, 45, 46, 47, 48, 49, 50, 51, 52, 53, 54, 55, 56, 57, 58, 59, 60, 61, 62, 63, 64, 65, 66, 67, 68, 69, 70, 71, 72, 73, 74, 75, 76, 77, 78, 79, 80, 81, 82, 83, 84, 85, 86, 87, 88, 89, 90, 91, 92, 93, 94, 95, 96, 97, 98, 99, 100, 101, 102, 103, 104, 105, 106, 107, 108, 109, 110, 111, 112, 113, 114, 115, 116, 117, 118, 119, 120, 121, 122, 123, 124, 125, 126, 127, 128, 129, 130, 131, 132, 133, 134, 135, 136, 137, 138, 139, 140, 141, 142, 143, 144, 145, 146, 147, 148, 149, 150, 151, 152, 153, 154, 155, 156, 157, 158, 159, 160, 161, 162, 163, 164],
      "AcquisitionTime": ["160413.210000", "160414.710000", "160416.210000", "160417.710000", "160419.210000", "160420.710000", "160422.210000", "160423.710000", "160425.210000", "160426.710000", "160428.210000", "160429.710000", "160431.210000", "160432.710000", "160434.210000", "160435.710000", "160437.210000", "160438.710000", "160440.210000", "160441.710000", "160443.210000", "160444.710000", "160446.210000", "160447.710000", "160449.210000", "160450.710000", "160452.210000", "160453.710000", "160455.210000", "160456.710000", "160458.210000", "160459.710000", "160501.210000", "160502.710000", "160504.210000", "160505.710000", "160507.210000", "160508.710000", "160510.210000", "160511.710000", "160513.210000", "160514.710000", "160516.210000", "160517.710000", "160519.210000", "160520.710000", "160522.210000", "160523.710000", "160525.210000", "160526.710000", "160528.210000", "160529.710000", "160531.210000", "160532.710000", "160534.210000", "160535.710000", "160537.210000", "160538.710000", "160540.210000", "160541.710000", "160543.210000", "160544.710000", "160546.210000", "160547.710000", "160549.210000", "160550.710000", "160552.210000", "160553.710000", "160555.210000", "160556.710000", "160558.210000", "160559.710000", "160601.210000", "160602.710000", "160604.210000", "160605.710000", "160607.210000", "160608.710000", "160610.210000", "160611.710000", "160613.210000", "160614.710000", "160616.210000", "160617.710000", "160619.210000", "160620.710000", "160622.210000", "160623.710000", "160625.210000", "160626.710000", "160628.210000", "160629.710000", "160631.210000", "160632.710000", "160634.210000", "160635.710000", "160637.210000", "160638.710000", "160640.210000", "160641.710000", "160643.210000", "160644.710000", "160646.210000", "160647.710000", "160649.210000", "160650.710000", "160652.210000", "160653.710000", "160655.210000", "160656.710000", "160658.210000", "160659.710000", "160701.210000", "160702.710000", "160704.210000", "160705.710000", "160707.210000", "160708.710000", "160710.210000", "160711.710000", "160713.210000", "160714.710000", "160716.210000", "160717.710000", "160719.210000", "160720.710000", "160722.210000", "160723.710000", "160725.210000", "160726.710000", "160728.210000", "160729.710000", "160731.210000", "160732.710000", "160734.210000", "160735.710000", "160737.210000", "160738.710000", "160740.210000", "160741.710000", "160743.210000", "160744.710000", "160746.210000", "160747.710000", "160749.210000", "160750.710000", "160752.210000", "160753.710000", "160755.210000", "160756.710000", "160758.210000", "160759.710000", "160801.210000", "160802.710000", "160804.210000", "160805.710000", "160807.210000", "160808.710000", "160810.210000", "160811.710000", "160813.210000", "160814.710000", "160816.210000", "160817.710000"],
      "ContentTime": ["160447.500000", "160447.504000", "160447.507000", "160447.510000", "160447.513000", "160447.516000", "160447.520000", "160447.523000", "160447.526000", "160447.529000", "160447.532000", "160447.542000", "160447.545000", "160447.548000", "160447.554000", "160447.563000", "160447.567000", "160447.570000", "160447.573000", "160447.576000", "160447.579000", "160447.582000", "160447.585000", "160527.494000", "160527.498000", "160527.501000", "160527.504000", "160527.507000", "160527.510000", "160527.513000", "160527.525000", "160527.528000", "160527.531000", "160527.534000", "160527.537000", "160527.540000", "160527.543000", "160527.546000", "160527.549000", "160527.552000", "160527.555000", "160527.558000", "160527.561000", "160527.564000", "160527.567000", "160527.570000", "160527.574000", "160527.577000", "160527.580000", "160607.495000", "160607.498000", "160607.501000", "160607.504000", "160607.507000", "160607.518000", "160607.521000", "160607.524000", "160607.527000", "160607.530000", "160607.533000", "160607.536000", "160607.539000", "160607.543000", "160607.546000", "160607.549000", "160607.552000", "160607.555000", "160607.558000", "160607.561000", "160607.564000", "160607.567000", "160607.570000", "160607.573000", "160607.576000", "160607.579000", "160607.582000", "160647.495000", "160647.504000", "160647.507000", "160647.510000", "160647.513000", "160647.516000", "160647.519000", "160647.522000", "160647.525000", "160647.528000", "160647.531000", "160647.534000", "160647.537000", "160647.541000", "160647.544000", "160647.547000", "160647.550000", "160647.553000", "160647.556000", "160647.559000", "160647.562000", "160647.565000", "160647.568000", "160647.571000", "160647.574000", "160647.577000", "160647.580000", "160727.495000", "160727.498000", "160727.501000", "160727.512000", "160727.515000", "160727.518000", "160727.521000", "160727.524000", "160727.527000", "160727.531000", "160727.534000", "160727.537000", "160727.540000", "160727.543000", "160727.546000", "160727.549000", "160727.552000", "160727.555000", "160727.558000", "160727.561000", "160727.564000", "160727.581000", "160727.584000", "160727.587000", "160727.590000", "160727.593000", "160807.495000", "160807.498000", "160807.501000", "160807.504000", "160807.508000", "160807.511000", "160807.514000", "160807.517000", "160807.520000", "160807.523000", "160807.526000", "160807.529000", "160807.532000", "160807.535000", "160807.538000", "160807.541000", "160807.544000", "160807.547000", "160807.551000", "160807.554000", "160807.557000", "160807.561000", "160807.564000", "160807.567000", "160807.570000", "160807.573000", "160807.576000", "160818.697000", "160818.701000", "160818.704000", "160818.707000", "160818.710000", "160818.713000", "160818.716000", "160818.719000"],
      "InstanceCreationTime": ["160447.500000", "160447.504000", "160447.507000", "160447.510000", "160447.513000", "160447.516000", "160447.520000", "160447.523000", "160447.526000", "160447.529000", "160447.532000", "160447.542000", "160447.545000", "160447.548000", "160447.554000", "160447.563000", "160447.567000", "160447.570000", "160447.573000", "160447.576000", "160447.579000", "160447.582000", "160447.585000", "160527.494000", "160527.498000", "160527.501000", "160527.504000", "160527.507000", "160527.510000", "160527.513000", "160527.525000", "160527.528000", "160527.531000", "160527.534000", "160527.537000", "160527.540000", "160527.543000", "160527.546000", "160527.549000", "160527.552000", "160527.555000", "160527.558000", "160527.561000", "160527.564000", "160527.567000", "160527.570000", "160527.574000", "160527.577000", "160527.580000", "160607.495000", "160607.498000", "160607.501000", "160607.504000", "160607.507000", "160607.518000", "160607.521000", "160607.524000", "160607.527000", "160607.530000", "160607.533000", "160607.536000", "160607.539000", "160607.543000", "160607.546000", "160607.549000", "160607.552000", "160607.555000", "160607.558000", "160607.561000", "160607.564000", "160607.567000", "160607.570000", "160607.573000", "160607.576000", "160607.579000", "160607.582000", "160647.495000", "160647.504000", "160647.507000", "160647.510000", "160647.513000", "160647.516000", "160647.519000", "160647.522000", "160647.525000", "160647.528000", "160647.531000", "160647.534000", "160647.537000", "160647.541000", "160647.544000", "160647.547000", "160647.550000", "160647.553000", "160647.556000", "160647.559000", "160647.562000", "160647.565000", "160647.568000", "160647.571000", "160647.574000", "160647.577000", "160647.580000", "160727.495000", "160727.498000", "160727.501000", "160727.512000", "160727.515000", "160727.518000", "160727.521000", "160727.524000", "160727.527000", "160727.531000", "160727.534000", "160727.537000", "160727.540000", "160727.543000", "160727.546000", "160727.549000", "160727.552000", "160727.555000", "160727.558000", "160727.561000", "160727.564000", "160727.581000", "160727.584000", "160727.587000", "160727.590000", "160727.593000", "160807.495000", "160807.498000", "160807.501000", "160807.504000", "160807.508000", "160807.511000", "160807.514000", "160807.517000", "160807.520000", "160807.523000", "160807.526000", "160807.529000", "160807.532000", "160807.535000", "160807.538000", "160807.541000", "160807.544000", "160807.547000", "160807.551000", "160807.554000", "160807.557000", "160807.561000", "160807.564000", "160807.567000", "160807.570000", "160807.573000", "160807.576000", "160818.697000", "160818.701000", "160818.704000", "160818.707000", "160818.710000", "160818.713000", "160818.716000", "160818.719000"],
      "InstanceNumber": [1, 2, 3, 4, 5, 6, 7, 8, 9, 10, 11, 12, 13, 14, 15, 16, 17, 18, 19, 20, 21, 22, 23, 24, 25, 26, 27, 28, 29, 30, 31, 32, 33, 34, 35, 36, 37, 38, 39, 40, 41, 42, 43, 44, 45, 46, 47, 48, 49, 50, 51, 52, 53, 54, 55, 56, 57, 58, 59, 60, 61, 62, 63, 64, 65, 66, 67, 68, 69, 70, 71, 72, 73, 74, 75, 76, 77, 78, 79, 80, 81, 82, 83, 84, 85, 86, 87, 88, 89, 90, 91, 92, 93, 94, 95, 96, 97, 98, 99, 100, 101, 102, 103, 104, 105, 106, 107, 108, 109, 110, 111, 112, 113, 114, 115, 116, 117, 118, 119, 120, 121, 122, 123, 124, 125, 126, 127, 128, 129, 130, 131, 132, 133, 134, 135, 136, 137, 138, 139, 140, 141, 142, 143, 144, 145, 146, 147, 148, 149, 150, 151, 152, 153, 154, 155, 156, 157, 158, 159, 160, 161, 162, 163, 164],
      "LargestImagePixelValue": [2812, 2759, 2758, 2769, 2755, 2741, 2707, 2729, 2697, 2722, 2684, 2694, 2690, 2699, 2682, 2722, 2698, 2697, 2699, 2688, 2707, 2713, 2699, 2707, 2704, 2708, 2713, 2724, 2739, 2682, 2716, 2682, 2727, 2716, 2717, 2693, 2705, 2738, 2753, 2741, 2736, 2704, 2727, 2686, 2689, 2724, 2705, 2725, 2699, 2729, 2706, 2709, 2726, 2709, 2712, 2707, 2734, 2686, 2666, 2763, 2716, 2734, 2745, 2738, 2722, 2688, 2703, 2694, 2685, 2652, 2787, 2764, 2772, 2720, 2709, 2718, 2707, 2725, 2724, 2686, 2674, 2677, 2699, 2709, 2713, 2701, 2766, 2724, 2726, 2686, 2724, 2720, 2729, 2708, 2710, 2708, 2686, 2663, 2658, 2683, 2684, 2712, 2675, 2688, 2671, 2685, 2692, 2719, 2717, 2696, 2728, 2700, 2713, 2694, 2696, 2685, 2682, 2696, 2701, 2706, 2646, 2661, 2616, 2671, 2678, 2671, 2653, 2650, 2636, 2628, 2618, 2636, 2647, 2627, 2680, 2660, 2684, 2634, 2644, 2623, 2646, 2629, 2626, 2685, 2657, 2697, 2691, 2688, 2682, 2719, 2675, 2691, 2696, 2664, 2622, 2641, 2651, 2643, 2603, 2554, 2573, 2579, 2630, 2627],
      "WindowCenter": [690.0, 689.0, 690.0, 690.0, 690.0, 689.0, 689.0, 689.0, 689.0, 689.0, 689.0, 689.0, 689.0, 690.0, 690.0, 691.0, 691.0, 690.0, 689.0, 689.0, 689.0, 689.0, 689.0, 689.0, 690.0, 691.0, 691.0, 691.0, 691.0, 690.0, 690.0, 690.0, 691.0, 691.0, 690.0, 690.0, 690.0, 691.0, 691.0, 690.0, 690.0, 689.0, 689.0, 688.0, 688.0, 689.0, 690.0, 690.0, 689.0, 688.0, 689.0, 688.0, 688.0, 688.0, 688.0, 689.0, 690.0, 690.0, 689.0, 692.0, 690.0, 689.0, 689.0, 689.0, 688.0, 688.0, 687.0, 687.0, 687.0, 688.0, 692.0, 690.0, 690.0, 689.0, 689.0, 690.0, 690.0, 690.0, 688.0, 688.0, 688.0, 688.0, 689.0, 690.0, 690.0, 690.0, 690.0, 689.0, 689.0, 688.0, 690.0, 690.0, 690.0, 690.0, 690.0, 689.0, 689.0, 689.0, 689.0, 689.0, 690.0, 690.0, 690.0, 690.0, 690.0, 690.0, 691.0, 691.0, 690.0, 691.0, 691.0, 690.0, 690.0, 690.0, 691.0, 690.0, 691.0, 690.0, 690.0, 689.0, 689.0, 689.0, 689.0, 691.0, 691.0, 691.0, 690.0, 690.0, 689.0, 689.0, 689.0, 689.0, 690.0, 690.0, 691.0, 690.0, 690.0, 689.0, 689.0, 689.0, 690.0, 689.0, 689.0, 689.0, 689.0, 690.0, 691.0, 690.0, 690.0, 690.0, 690.0, 688.0, 689.0, 691.0, 690.0, 690.0, 690.0, 688.0, 687.0, 686.0, 687.0, 688.0, 690.0, 691.0],
      "WindowWidth": [1483.0, 1481.0, 1484.0, 1483.0, 1483.0, 1480.0, 1480.0, 1480.0, 1481.0, 1481.0, 1480.0, 1480.0, 1481.0, 1482.0, 1484.0, 1486.0, 1484.0, 1483.0, 1481.0, 1481.0, 1481.0, 1481.0, 1481.0, 1482.0, 1483.0, 1485.0, 1486.0, 1485.0, 1484.0, 1482.0, 1482.0, 1483.0, 1485.0, 1485.0, 1484.0, 1482.0, 1484.0, 1485.0, 1486.0, 1484.0, 1482.0, 1481.0, 1480.0, 1478.0, 1478.0, 1480.0, 1482.0, 1482.0, 1480.0, 1479.0, 1479.0, 1479.0, 1478.0, 1477.0, 1479.0, 1480.0, 1483.0, 1484.0, 1482.0, 1489.0, 1482.0, 1481.0, 1481.0, 1481.0, 1478.0, 1477.0, 1476.0, 1475.0, 1476.0, 1478.0, 1487.0, 1484.0, 1483.0, 1482.0, 1481.0, 1482.0, 1482.0, 1482.0, 1478.0, 1478.0, 1478.0, 1478.0, 1481.0, 1484.0, 1484.0, 1483.0, 1482.0, 1480.0, 1479.0, 1479.0, 1482.0, 1482.0, 1483.0, 1483.0, 1484.0, 1482.0, 1480.0, 1480.0, 1480.0, 1481.0, 1482.0, 1484.0, 1483.0, 1484.0, 1483.0, 1484.0, 1486.0, 1486.0, 1484.0, 1485.0, 1485.0, 1482.0, 1483.0, 1484.0, 1485.0, 1484.0, 1485.0, 1483.0, 1483.0, 1481.0, 1480.0, 1480.0, 1482.0, 1486.0, 1486.0, 1485.0, 1483.0, 1482.0, 1482.0, 1481.0, 1481.0, 1482.0, 1484.0, 1484.0, 1484.0, 1483.0, 1483.0, 1482.0, 1482.0, 1482.0, 1482.0, 1482.0, 1480.0, 1480.0, 1480.0, 1484.0, 1485.0, 1484.0, 1484.0, 1484.0, 1483.0, 1478.0, 1481.0, 1486.0, 1484.0, 1483.0, 1482.0, 1479.0, 1476.0, 1474.0, 1477.0, 1480.0, 1484.0, 1485.0]
    },
    "slices": {}
  }
}