{
  "AcquisitionMatrixPE": 72,
  "AcquisitionNumber": 1,
  "AcquisitionTime": "16:16:53.162500",
  "BandwidthPerPixelPhaseEncode": 17.943,
  "BaseResolution": 96,
  "BodyPartExamined": "BRAIN",
  "CoilCombinationMethod": "Sum of Squares",
  "ConsistencyInfo": "N4_VE11C_LATEST_20160120",
  "ConversionSoftware": "dcm2niix",
  "ConversionSoftwareVersion": "v1.0.20211006",
  "DerivedVendorReportedEchoSpacing": 0.000552897,
  "DeviceSerialNumber": "166011",
  "EchoTime": 0.03,
  "EchoTrainLength": 58,
  "EffectiveEchoSpacing": 0.000580542,
  "FlipAngle": 62,
  "ImageOrientationPatientDICOM": [0.997201, 0.0483402, -0.0570364, -0.0257643, 0.938321, 0.344804],
  "ImageType": [
    "ORIGINAL",
    "PRIMARY",
    "M",
    "ND",
    "MOSAIC"
],
  "ImagingFrequency": 123.259,
  "InPlanePhaseEncodingDirectionDICOM": "COL",
  "InstitutionAddress": "West 130th Street 610,NY,NYC,US,10025",
  "InstitutionName": "MBBI",
  "MRAcquisitionType": "2D",
  "MagneticFieldStrength": 3,
  "Manufacturer": "Siemens",
  "ManufacturersModelName": "Prisma",
  "Modality": "MR",
  "MultibandAccelerationFactor": 3,
  "PartialFourier": 0.75,
  "PatientPosition": "HFS",
  "PercentPhaseFOV": 100,
  "PercentSampling": 75,
  "PhaseEncodingDirection": "j-",
  "PhaseEncodingSteps": 58,
  "PhaseOversampling": 0.05,
  "PhaseResolution": 0.75,
  "PixelBandwidth": 2265,
  "ProcedureStepDescription": "White^Word_recognition",
  "ProtocolName": "func_vwfate_run9",
  "PulseSequenceDetails": "%SiemensSeq%\\ep2d_bold",
  "ReceiveCoilActiveElements": "HC1-7",
  "ReceiveCoilName": "HeadNeck_64",
  "ReconMatrixPE": 96,
  "RefLinesPE": 40,
  "RepetitionTime": 1.5,
  "SAR": 0.0496969,
  "ScanOptions": "PFP\\FS",
  "ScanningSequence": "EP",
  "SequenceName": "*epfid2d1_72",
  "SequenceVariant": "SK\\OSP",
  "SeriesDescription": "func_vwfate_run9",
  "SeriesNumber": 9,
  "ShimSetting": [-1178, -1502, 824, 600, -120, -288, 104, 45],
  "SliceThickness": 2,
  "SliceTiming": [1.0775, 0, 0.74, 0.0675, 0.8075, 0.135, 0.875, 0.2025, 0.9425, 0.27, 1.01, 0.405, 1.145, 0.4725, 1.2125, 0.54, 1.28, 0.6075, 1.3475, 0.675, 1.415, 0.3375, 1.0775, 0, 0.74, 0.0675, 0.8075, 0.135, 0.875, 0.2025, 0.9425, 0.27, 1.01, 0.405, 1.145, 0.4725, 1.2125, 0.54, 1.28, 0.6075, 1.3475, 0.675, 1.415, 0.3375, 1.0775, 0, 0.74, 0.0675, 0.8075, 0.135, 0.875, 0.2025, 0.9425, 0.27, 1.01, 0.405, 1.145, 0.4725, 1.2125, 0.54, 1.28, 0.6075, 1.3475, 0.675, 1.415, 0.3375],
  "SoftwareVersions": "syngo MR E11",
  "SpacingBetweenSlices": 2,
  "StationName": "AWP166011",
  "TaskName": "vwfate",
  "TotalReadoutTime": 0.0551515,
  "TxRefAmp": 216.897,
  "dcmmeta_affine": [
    [-1.994402289390564, -0.05152866616845131, -0.14037258923053741, 104.29963684082031],
    [-0.09668031334877014, 1.876642107963562, 0.68473881483078, -78.88093566894531],
    [-0.11407272517681122, -0.6896079778671265, 1.8738805055618286, 12.605542182922363],
    [0.0, 0.0, 0.0, 1.0]
],
  "dcmmeta_reorient_transform": [
    [0.0, -1.0, 0.0, 95.0],
    [1.0, 0.0, 0.0, 0.0],
    [0.0, 0.0, 1.0, 0.0],
    [0.0, 0.0, 0.0, 1.0]
],
  "dcmmeta_shape": [96, 96, 66, 164],
  "dcmmeta_slice_dim": 2,
  "dcmmeta_version": 0.6,
  "global": {
    "const": {
      "AcquisitionMatrix": [96, 0, 0, 72],
      "AngioFlag": "N",
      "BitsAllocated": 16,
      "BitsStored": 12,
      "BodyPartExamined": "BRAIN",
      "Columns": 864,
      "EchoNumbers": 1,
      "EchoTime": 30.0,
      "EchoTrainLength": 58,
      "FlipAngle": 62.0,
      "HighBit": 11,
      "ImageOrientationPatient": [0.99720112458643, 0.04834015576277, -0.0570363608971, -0.0257643333667, 0.93832106240911, 0.3448039775954],
      "ImagePositionPatient": [-845.46786769734, -857.15587931538, -273.91274357819],
      "ImageType": [
        "ORIGINAL",
        "PRIMARY",
        "M",
        "ND",
        "MOSAIC"
],
      "ImagedNucleus": "1H",
      "ImagingFrequency": 123.259109,
      "InPlanePhaseEncodingDirection": "COL",
      "MRAcquisitionType": "2D",
      "MagneticFieldStrength": 3.0,
      "Manufacturer": "SIEMENS",
      "ManufacturerModelName": "Prisma",
      "Modality": "MR",
      "NumberOfAverages": 1.0,
      "NumberOfPhaseEncodingSteps": 58,
      "PercentPhaseFieldOfView": 100.0,
      "PercentSampling": 75.0,
      "PerformedProcedureStepStartTime": "152924.246000",
      "PhotometricInterpretation": "MONOCHROME2",
      "PixelBandwidth": 2265.0,
      "PixelRepresentation": 0,
      "PixelSpacing": [2.0, 2.0],
      "ProtocolName": "func_vwfate_run9",
      "RepetitionTime": 1500.0,
      "Rows": 864,
      "SAR": 0.04969688099377,
      "SamplesPerPixel": 1,
      "ScanOptions": [
        "PFP",
        "FS"
],
      "ScanningSequence": "EP",
      "SequenceName": "*epfid2d1_72",
      "SequenceVariant": [
        "SK",
        "OSP"
],
      "SeriesDescription": "func_vwfate_run9",
      "SeriesNumber": 9,
      "SeriesTime": "161731.691000",
      "SliceLocation": -22.516185692864,
      "SliceThickness": 2.0,
      "SmallestImagePixelValue": 0,
      "SoftwareVersions": "syngo MR E11",
      "SpacingBetweenSlices": 2.0000000193822,
      "SpecificCharacterSet": "ISO_IR 100",
      "StudyID": "1",
      "StudyTime": "152924.196000",
      "TransmitCoilName": "Body",
      "VariableFlipAngleFlag": "N",
      "WindowCenterWidthExplanation": "Algo1",
      "dBdt": 0.0},
    "slices": {}
  },
  "time": {
    "samples": {
      "AcquisitionNumber": [1, 2, 3, 4, 5, 6, 7, 8, 9, 10, 11, 12, 13, 14, 15, 16, 17, 18, 19, 20, 21, 22, 23, 24, 25, 26, 27, 28, 29, 30, 31, 32, 33, 34, 35, 36, 37, 38, 39, 40, 41, 42, 43, 44, 45, 46, 47, 48, 49, 50, 51, 52, 53, 54, 55, 56, 57, 58, 59, 60, 61, 62, 63, 64, 65, 66, 67, 68, 69, 70, 71, 72, 73, 74, 75, 76, 77, 78, 79, 80, 81, 82, 83, 84, 85, 86, 87, 88, 89, 90, 91, 92, 93, 94, 95, 96, 97, 98, 99, 100, 101, 102, 103, 104, 105, 106, 107, 108, 109, 110, 111, 112, 113, 114, 115, 116, 117, 118, 119, 120, 121, 122, 123, 124, 125, 126, 127, 128, 129, 130, 131, 132, 133, 134, 135, 136, 137, 138, 139, 140, 141, 142, 143, 144, 145, 146, 147, 148, 149, 150, 151, 152, 153, 154, 155, 156, 157, 158, 159, 160, 161, 162, 163, 164],
      "AcquisitionTime": ["161653.162500", "161654.662500", "161656.162500", "161657.662500", "161659.162500", "161700.662500", "161702.162500", "161703.662500", "161705.162500", "161706.662500", "161708.162500", "161709.662500", "161711.162500", "161712.662500", "161714.162500", "161715.662500", "161717.162500", "161718.662500", "161720.162500", "161721.662500", "161723.162500", "161724.662500", "161726.162500", "161727.662500", "161729.162500", "161730.662500", "161732.162500", "161733.662500", "161735.162500", "161736.662500", "161738.162500", "161739.662500", "161741.162500", "161742.662500", "161744.162500", "161745.662500", "161747.162500", "161748.662500", "161750.162500", "161751.662500", "161753.162500", "161754.662500", "161756.162500", "161757.662500", "161759.162500", "161800.662500", "161802.162500", "161803.662500", "161805.162500", "161806.662500", "161808.162500", "161809.662500", "161811.162500", "161812.662500", "161814.162500", "161815.662500", "161817.162500", "161818.662500", "161820.162500", "161821.662500", "161823.162500", "161824.662500", "161826.162500", "161827.662500", "161829.162500", "161830.662500", "161832.162500", "161833.662500", "161835.162500", "161836.662500", "161838.162500", "161839.662500", "161841.162500", "161842.662500", "161844.162500", "161845.662500", "161847.162500", "161848.662500", "161850.162500", "161851.662500", "161853.162500", "161854.662500", "161856.162500", "161857.662500", "161859.162500", "161900.662500", "161902.162500", "161903.662500", "161905.162500", "161906.662500", "161908.162500", "161909.662500", "161911.162500", "161912.662500", "161914.162500", "161915.662500", "161917.162500", "161918.662500", "161920.162500", "161921.662500", "161923.162500", "161924.662500", "161926.162500", "161927.662500", "161929.162500", "161930.662500", "161932.162500", "161933.662500", "161935.162500", "161936.662500", "161938.162500", "161939.662500", "161941.162500", "161942.662500", "161944.162500", "161945.662500", "161947.162500", "161948.662500", "161950.162500", "161951.662500", "161953.162500", "161954.662500", "161956.162500", "161957.662500", "161959.162500", "162000.662500", "162002.162500", "162003.662500", "162005.162500", "162006.662500", "162008.162500", "162009.662500", "162011.162500", "162012.662500", "162014.162500", "162015.662500", "162017.162500", "162018.662500", "162020.162500", "162021.662500", "162023.162500", "162024.662500", "162026.162500", "162027.662500", "162029.162500", "162030.662500", "162032.162500", "162033.662500", "162035.162500", "162036.662500", "162038.162500", "162039.662500", "162041.162500", "162042.662500", "162044.162500", "162045.662500", "162047.162500", "162048.662500", "162050.162500", "162051.662500", "162053.162500", "162054.662500", "162056.162500", "162057.662500"],
      "ContentTime": ["161731.696000", "161731.701000", "161731.704000", "161731.708000", "161731.719000", "161731.722000", "161731.726000", "161731.729000", "161731.733000", "161731.737000", "161731.742000", "161731.749000", "161731.752000", "161731.756000", "161731.759000", "161731.762000", "161731.765000", "161731.782000", "161731.786000", "161731.789000", "161731.792000", "161731.795000", "161731.798000", "161731.802000", "161731.805000", "161811.689000", "161811.698000", "161811.701000", "161811.704000", "161811.707000", "161811.710000", "161811.713000", "161811.716000", "161811.719000", "161811.722000", "161811.725000", "161811.728000", "161811.731000", "161811.734000", "161811.737000", "161811.740000", "161811.744000", "161811.747000", "161811.750000", "161811.753000", "161811.757000", "161811.760000", "161811.763000", "161811.766000", "161811.770000", "161811.773000", "161811.776000", "161851.689000", "161851.694000", "161851.697000", "161851.700000", "161851.703000", "161851.706000", "161851.709000", "161851.712000", "161851.715000", "161851.718000", "161851.721000", "161851.724000", "161851.727000", "161851.730000", "161851.733000", "161851.736000", "161851.739000", "161851.742000", "161851.745000", "161851.748000", "161851.751000", "161851.754000", "161851.757000", "161851.761000", "161851.764000", "161851.767000", "161851.770000", "161931.690000", "161931.693000", "161931.696000", "161931.699000", "161931.702000", "161931.705000", "161931.708000", "161931.712000", "161931.715000", "161931.718000", "161931.721000", "161931.724000", "161931.727000", "161931.730000", "161931.733000", "161931.736000", "161931.740000", "161931.743000", "161931.746000", "161931.750000", "161931.753000", "161931.756000", "161931.759000", "161931.762000", "161931.765000", "161931.768000", "162011.689000", "162011.692000", "162011.695000", "162011.699000", "162011.702000", "162011.705000", "162011.708000", "162011.711000", "162011.714000", "162011.727000", "162011.730000", "162011.733000", "162011.736000", "162011.739000", "162011.752000", "162011.755000", "162011.758000", "162011.761000", "162011.764000", "162011.767000", "162011.770000", "162011.773000", "162011.776000", "162011.779000", "162011.782000", "162011.786000", "162011.789000", "162051.689000", "162051.692000", "162051.695000", "162051.698000", "162051.701000", "162051.705000", "162051.708000", "162051.711000", "162051.714000", "162051.717000", "162051.720000", "162051.723000", "162051.726000", "162051.729000", "162051.732000", "162051.735000", "162051.738000", "162051.754000", "162051.757000", "162051.760000", "162051.763000", "162051.766000", "162051.769000", "162051.772000", "162051.775000", "162051.778000", "162051.781000", "162058.749000", "162058.753000", "162058.756000", "162058.759000", "162058.762000"],
      "InstanceCreationTime": ["161731.696000", "161731.701000", "161731.704000", "161731.708000", "161731.719000", "161731.722000", "161731.726000", "161731.729000", "161731.733000", "161731.737000", "161731.742000", "161731.749000", "161731.752000", "161731.756000", "161731.759000", "161731.762000", "161731.765000", "161731.782000", "161731.786000", "161731.789000", "161731.792000", "161731.795000", "161731.798000", "161731.802000", "161731.805000", "161811.689000", "161811.698000", "161811.701000", "161811.704000", "161811.707000", "161811.710000", "161811.713000", "161811.716000", "161811.719000", "161811.722000", "161811.725000", "161811.728000", "161811.731000", "161811.734000", "161811.737000", "161811.740000", "161811.744000", "161811.747000", "161811.750000", "161811.753000", "161811.757000", "161811.760000", "161811.763000", "161811.766000", "161811.770000", "161811.773000", "161811.776000", "161851.689000", "161851.694000", "161851.697000", "161851.700000", "161851.703000", "161851.706000", "161851.709000", "161851.712000", "161851.715000", "161851.718000", "161851.721000", "161851.724000", "161851.727000", "161851.730000", "161851.733000", "161851.736000", "161851.739000", "161851.742000", "161851.745000", "161851.748000", "161851.751000", "161851.754000", "161851.757000", "161851.761000", "161851.764000", "161851.767000", "161851.770000", "161931.690000", "161931.693000", "161931.696000", "161931.699000", "161931.702000", "161931.705000", "161931.708000", "161931.712000", "161931.715000", "161931.718000", "161931.721000", "161931.724000", "161931.727000", "161931.730000", "161931.733000", "161931.736000", "161931.740000", "161931.743000", "161931.746000", "161931.750000", "161931.753000", "161931.756000", "161931.759000", "161931.762000", "161931.765000", "161931.768000", "162011.689000", "162011.692000", "162011.695000", "162011.699000", "162011.702000", "162011.705000", "162011.708000", "162011.711000", "162011.714000", "162011.727000", "162011.730000", "162011.733000", "162011.736000", "162011.739000", "162011.752000", "162011.755000", "162011.758000", "162011.761000", "162011.764000", "162011.767000", "162011.770000", "162011.773000", "162011.776000", "162011.779000", "162011.782000", "162011.786000", "162011.789000", "162051.689000", "162051.692000", "162051.695000", "162051.698000", "162051.701000", "162051.705000", "162051.708000", "162051.711000", "162051.714000", "162051.717000", "162051.720000", "162051.723000", "162051.726000", "162051.729000", "162051.732000", "162051.735000", "162051.738000", "162051.754000", "162051.757000", "162051.760000", "162051.763000", "162051.766000", "162051.769000", "162051.772000", "162051.775000", "162051.778000", "162051.781000", "162058.749000", "162058.753000", "162058.756000", "162058.759000", "162058.762000"],
      "InstanceNumber": [1, 2, 3, 4, 5, 6, 7, 8, 9, 10, 11, 12, 13, 14, 15, 16, 17, 18, 19, 20, 21, 22, 23, 24, 25, 26, 27, 28, 29, 30, 31, 32, 33, 34, 35, 36, 37, 38, 39, 40, 41, 42, 43, 44, 45, 46, 47, 48, 49, 50, 51, 52, 53, 54, 55, 56, 57, 58, 59, 60, 61, 62, 63, 64, 65, 66, 67, 68, 69, 70, 71, 72, 73, 74, 75, 76, 77, 78, 79, 80, 81, 82, 83, 84, 85, 86, 87, 88, 89, 90, 91, 92, 93, 94, 95, 96, 97, 98, 99, 100, 101, 102, 103, 104, 105, 106, 107, 108, 109, 110, 111, 112, 113, 114, 115, 116, 117, 118, 119, 120, 121, 122, 123, 124, 125, 126, 127, 128, 129, 130, 131, 132, 133, 134, 135, 136, 137, 138, 139, 140, 141, 142, 143, 144, 145, 146, 147, 148, 149, 150, 151, 152, 153, 154, 155, 156, 157, 158, 159, 160, 161, 162, 163, 164],
      "LargestImagePixelValue": [2728, 2620, 2619, 2733, 2667, 2659, 2631, 2651, 2511, 2594, 2678, 2656, 2681, 2589, 2626, 2606, 2673, 2685, 2664, 2639, 2607, 2645, 2646, 2641, 2644, 2631, 2637, 2630, 2638, 2632, 2651, 2615, 2624, 2649, 2656, 2648, 2677, 2647, 2630, 2664, 2680, 2639, 2625, 2667, 2647, 2616, 2595, 2616, 2582, 2591, 2550, 2601, 2618, 2563, 2580, 2577, 2569, 2543, 2570, 2607, 2566, 2567, 2604, 2589, 2579, 2535, 2547, 2599, 2615, 2590, 2553, 2526, 2532, 2503, 2521, 2505, 2523, 2549, 2521, 2519, 2509, 2509, 2492, 2500, 2509, 2539, 2525, 2498, 2490, 2517, 2511, 2594, 2548, 2656, 2633, 2604, 2604, 2587, 2578, 2586, 2558, 2575, 2549, 2555, 2550, 2577, 2566, 2558, 2567, 2563, 2595, 2577, 2587, 2581, 2574, 2543, 2556, 2519, 2541, 2538, 2559, 2559, 2510, 2558, 2497, 2710, 2642, 2650, 2604, 2581, 2555, 2597, 2610, 2593, 2569, 2602, 2583, 2609, 2595, 2580, 2548, 2567, 2562, 2549, 2550, 2556, 2561, 2565, 2534, 2538, 2579, 2565, 2594, 2557, 2579, 2586, 2602, 2569, 2572, 2556, 2547, 2498, 2637, 2610],
      "WindowCenter": [689.0, 690.0, 686.0, 691.0, 688.0, 686.0, 685.0, 685.0, 684.0, 687.0, 689.0, 689.0, 688.0, 688.0, 688.0, 688.0, 689.0, 688.0, 688.0, 687.0, 687.0, 688.0, 689.0, 689.0, 689.0, 690.0, 690.0, 690.0, 689.0, 688.0, 688.0, 687.0, 687.0, 688.0, 688.0, 688.0, 688.0, 687.0, 687.0, 688.0, 689.0, 688.0, 687.0, 687.0, 689.0, 689.0, 688.0, 688.0, 686.0, 685.0, 685.0, 686.0, 687.0, 688.0, 688.0, 687.0, 685.0, 684.0, 685.0, 687.0, 687.0, 688.0, 689.0, 689.0, 689.0, 688.0, 687.0, 688.0, 688.0, 689.0, 689.0, 688.0, 686.0, 686.0, 686.0, 686.0, 688.0, 689.0, 688.0, 687.0, 686.0, 686.0, 685.0, 686.0, 687.0, 688.0, 687.0, 686.0, 685.0, 686.0, 686.0, 687.0, 681.0, 687.0, 690.0, 688.0, 688.0, 687.0, 687.0, 686.0, 686.0, 686.0, 686.0, 686.0, 687.0, 687.0, 687.0, 687.0, 687.0, 688.0, 689.0, 689.0, 688.0, 687.0, 687.0, 686.0, 686.0, 685.0, 686.0, 687.0, 688.0, 689.0, 687.0, 690.0, 686.0, 690.0, 687.0, 686.0, 685.0, 684.0, 684.0, 684.0, 684.0, 685.0, 686.0, 689.0, 688.0, 687.0, 687.0, 686.0, 685.0, 685.0, 686.0, 687.0, 688.0, 688.0, 688.0, 688.0, 688.0, 687.0, 687.0, 687.0, 688.0, 688.0, 688.0, 687.0, 687.0, 686.0, 685.0, 686.0, 685.0, 687.0, 689.0, 689.0],
      "WindowWidth": [1483.0, 1485.0, 1474.0, 1485.0, 1476.0, 1472.0, 1470.0, 1469.0, 1468.0, 1477.0, 1480.0, 1479.0, 1479.0, 1478.0, 1479.0, 1478.0, 1479.0, 1478.0, 1477.0, 1475.0, 1475.0, 1479.0, 1480.0, 1481.0, 1481.0, 1483.0, 1482.0, 1482.0, 1480.0, 1478.0, 1477.0, 1475.0, 1476.0, 1478.0, 1479.0, 1478.0, 1478.0, 1476.0, 1476.0, 1479.0, 1480.0, 1477.0, 1475.0, 1475.0, 1481.0, 1482.0, 1479.0, 1477.0, 1473.0, 1472.0, 1471.0, 1473.0, 1476.0, 1477.0, 1477.0, 1475.0, 1472.0, 1469.0, 1471.0, 1474.0, 1476.0, 1478.0, 1481.0, 1481.0, 1480.0, 1478.0, 1476.0, 1477.0, 1479.0, 1481.0, 1481.0, 1478.0, 1474.0, 1473.0, 1472.0, 1473.0, 1478.0, 1481.0, 1479.0, 1476.0, 1472.0, 1472.0, 1471.0, 1473.0, 1475.0, 1478.0, 1476.0, 1474.0, 1472.0, 1473.0, 1474.0, 1476.0, 1460.0, 1477.0, 1483.0, 1479.0, 1478.0, 1476.0, 1475.0, 1474.0, 1474.0, 1474.0, 1472.0, 1473.0, 1475.0, 1476.0, 1476.0, 1476.0, 1475.0, 1478.0, 1480.0, 1479.0, 1477.0, 1475.0, 1474.0, 1473.0, 1473.0, 1471.0, 1473.0, 1475.0, 1479.0, 1481.0, 1477.0, 1483.0, 1472.0, 1483.0, 1476.0, 1473.0, 1469.0, 1467.0, 1467.0, 1468.0, 1469.0, 1470.0, 1472.0, 1479.0, 1477.0, 1477.0, 1474.0, 1473.0, 1470.0, 1471.0, 1473.0, 1475.0, 1477.0, 1477.0, 1478.0, 1478.0, 1477.0, 1475.0, 1475.0, 1476.0, 1477.0, 1478.0, 1477.0, 1476.0, 1475.0, 1473.0, 1472.0, 1472.0, 1470.0, 1477.0, 1482.0, 1480.0]
    },
    "slices": {}
  }
}