{
  "AcquisitionMatrixPE": 72,
  "AcquisitionNumber": 1,
  "AcquisitionTime": "16:27:52.080000",
  "BandwidthPerPixelPhaseEncode": 17.943,
  "BaseResolution": 96,
  "BodyPartExamined": "BRAIN",
  "CoilCombinationMethod": "Sum of Squares",
  "ConsistencyInfo": "N4_VE11C_LATEST_20160120",
  "ConversionSoftware": "dcm2niix",
  "ConversionSoftwareVersion": "v1.0.20211006",
  "DerivedVendorReportedEchoSpacing": 0.000552897,
  "DeviceSerialNumber": "166011",
  "EchoTime": 0.03,
  "EchoTrainLength": 58,
  "EffectiveEchoSpacing": 0.000580542,
  "FlipAngle": 62,
  "ImageOrientationPatientDICOM": [0.997201, 0.0483402, -0.0570364, -0.0257643, 0.938321, 0.344804],
  "ImageType": [
    "ORIGINAL",
    "PRIMARY",
    "M",
    "ND",
    "MOSAIC"
],
  "ImagingFrequency": 123.259,
  "InPlanePhaseEncodingDirectionDICOM": "COL",
  "InstitutionAddress": "West 130th Street 610,NY,NYC,US,10025",
  "InstitutionName": "MBBI",
  "MRAcquisitionType": "2D",
  "MagneticFieldStrength": 3,
  "Manufacturer": "Siemens",
  "ManufacturersModelName": "Prisma",
  "Modality": "MR",
  "MultibandAccelerationFactor": 3,
  "PartialFourier": 0.75,
  "PatientPosition": "HFS",
  "PercentPhaseFOV": 100,
  "PercentSampling": 75,
  "PhaseEncodingDirection": "j-",
  "PhaseEncodingSteps": 58,
  "PhaseOversampling": 0.05,
  "PhaseResolution": 0.75,
  "PixelBandwidth": 2265,
  "ProcedureStepDescription": "White^Word_recognition",
  "ProtocolName": "func_catLoc_run4",
  "PulseSequenceDetails": "%SiemensSeq%\\ep2d_bold",
  "ReceiveCoilActiveElements": "HC1-7",
  "ReceiveCoilName": "HeadNeck_64",
  "ReconMatrixPE": 96,
  "RefLinesPE": 40,
  "RepetitionTime": 1.5,
  "SAR": 0.0498524,
  "ScanOptions": "PFP\\FS",
  "ScanningSequence": "EP",
  "SequenceName": "*epfid2d1_72",
  "SequenceVariant": "SK\\OSP",
  "SeriesDescription": "func_catLoc_run4",
  "SeriesNumber": 11,
  "ShimSetting": [-1178, -1502, 824, 600, -120, -288, 104, 45],
  "SliceThickness": 2,
  "SliceTiming": [1.0775, 0, 0.74, 0.0675, 0.8075, 0.135, 0.875, 0.2025, 0.9425, 0.27, 1.01, 0.405, 1.145, 0.47, 1.21, 0.5375, 1.2775, 0.605, 1.345, 0.6725, 1.4125, 0.3375, 1.0775, 0, 0.74, 0.0675, 0.8075, 0.135, 0.875, 0.2025, 0.9425, 0.27, 1.01, 0.405, 1.145, 0.47, 1.21, 0.5375, 1.2775, 0.605, 1.345, 0.6725, 1.4125, 0.3375, 1.0775, 0, 0.74, 0.0675, 0.8075, 0.135, 0.875, 0.2025, 0.9425, 0.27, 1.01, 0.405, 1.145, 0.47, 1.21, 0.5375, 1.2775, 0.605, 1.345, 0.6725, 1.4125, 0.3375],
  "SoftwareVersions": "syngo MR E11",
  "SpacingBetweenSlices": 2,
  "StationName": "AWP166011",
  "TaskName": "catLoc",
  "TotalReadoutTime": 0.0551515,
  "TxRefAmp": 216.897,
  "dcmmeta_affine": [
    [-1.994402289390564, -0.05152866616845131, -0.14037258923053741, 104.29963684082031],
    [-0.09668031334877014, 1.876642107963562, 0.68473881483078, -78.88093566894531],
    [-0.11407272517681122, -0.6896079778671265, 1.8738805055618286, 12.605542182922363],
    [0.0, 0.0, 0.0, 1.0]
],
  "dcmmeta_reorient_transform": [
    [0.0, -1.0, 0.0, 95.0],
    [1.0, 0.0, 0.0, 0.0],
    [0.0, 0.0, 1.0, 0.0],
    [0.0, 0.0, 0.0, 1.0]
],
  "dcmmeta_shape": [96, 96, 66, 214],
  "dcmmeta_slice_dim": 2,
  "dcmmeta_version": 0.6,
  "global": {
    "const": {
      "AcquisitionMatrix": [96, 0, 0, 72],
      "AngioFlag": "N",
      "BitsAllocated": 16,
      "BitsStored": 12,
      "BodyPartExamined": "BRAIN",
      "Columns": 864,
      "EchoNumbers": 1,
      "EchoTime": 30.0,
      "EchoTrainLength": 58,
      "FlipAngle": 62.0,
      "HighBit": 11,
      "ImageOrientationPatient": [0.99720112458643, 0.04834015576277, -0.0570363608971, -0.0257643333667, 0.93832106240911, 0.3448039775954],
      "ImagePositionPatient": [-845.46786769734, -857.15587931538, -273.91274357819],
      "ImageType": [
        "ORIGINAL",
        "PRIMARY",
        "M",
        "ND",
        "MOSAIC"
],
      "ImagedNucleus": "1H",
      "ImagingFrequency": 123.259114,
      "InPlanePhaseEncodingDirection": "COL",
      "MRAcquisitionType": "2D",
      "MagneticFieldStrength": 3.0,
      "Manufacturer": "SIEMENS",
      "ManufacturerModelName": "Prisma",
      "Modality": "MR",
      "NumberOfAverages": 1.0,
      "NumberOfPhaseEncodingSteps": 58,
      "PercentPhaseFieldOfView": 100.0,
      "PercentSampling": 75.0,
      "PerformedProcedureStepStartTime": "152924.246000",
      "PhotometricInterpretation": "MONOCHROME2",
      "PixelBandwidth": 2265.0,
      "PixelRepresentation": 0,
      "PixelSpacing": [2.0, 2.0],
      "ProtocolName": "func_catLoc_run4",
      "RepetitionTime": 1500.0,
      "Rows": 864,
      "SAR": 0.04985240623242,
      "SamplesPerPixel": 1,
      "ScanOptions": [
        "PFP",
        "FS"
],
      "ScanningSequence": "EP",
      "SequenceName": "*epfid2d1_72",
      "SequenceVariant": [
        "SK",
        "OSP"
],
      "SeriesDescription": "func_catLoc_run4",
      "SeriesNumber": 11,
      "SeriesTime": "162827.349000",
      "SliceLocation": -22.516185692864,
      "SliceThickness": 2.0,
      "SmallestImagePixelValue": 0,
      "SoftwareVersions": "syngo MR E11",
      "SpacingBetweenSlices": 2.0000000193822,
      "SpecificCharacterSet": "ISO_IR 100",
      "StudyID": "1",
      "StudyTime": "152924.196000",
      "TransmitCoilName": "Body",
      "VariableFlipAngleFlag": "N",
      "WindowCenterWidthExplanation": "Algo1",
      "dBdt": 0.0},
    "slices": {}
  },
  "time": {
    "samples": {
      "AcquisitionNumber": [1, 2, 3, 4, 5, 6, 7, 8, 9, 10, 11, 12, 13, 14, 15, 16, 17, 18, 19, 20, 21, 22, 23, 24, 25, 26, 27, 28, 29, 30, 31, 32, 33, 34, 35, 36, 37, 38, 39, 40, 41, 42, 43, 44, 45, 46, 47, 48, 49, 50, 51, 52, 53, 54, 55, 56, 57, 58, 59, 60, 61, 62, 63, 64, 65, 66, 67, 68, 69, 70, 71, 72, 73, 74, 75, 76, 77, 78, 79, 80, 81, 82, 83, 84, 85, 86, 87, 88, 89, 90, 91, 92, 93, 94, 95, 96, 97, 98, 99, 100, 101, 102, 103, 104, 105, 106, 107, 108, 109, 110, 111, 112, 113, 114, 115, 116, 117, 118, 119, 120, 121, 122, 123, 124, 125, 126, 127, 128, 129, 130, 131, 132, 133, 134, 135, 136, 137, 138, 139, 140, 141, 142, 143, 144, 145, 146, 147, 148, 149, 150, 151, 152, 153, 154, 155, 156, 157, 158, 159, 160, 161, 162, 163, 164, 165, 166, 167, 168, 169, 170, 171, 172, 173, 174, 175, 176, 177, 178, 179, 180, 181, 182, 183, 184, 185, 186, 187, 188, 189, 190, 191, 192, 193, 194, 195, 196, 197, 198, 199, 200, 201, 202, 203, 204, 205, 206, 207, 208, 209, 210, 211, 212, 213, 214],
      "AcquisitionTime": ["162752.080000", "162753.580000", "162755.080000", "162756.580000", "162758.080000", "162759.580000", "162801.080000", "162802.580000", "162804.080000", "162805.580000", "162807.080000", "162808.580000", "162810.080000", "162811.580000", "162813.080000", "162814.580000", "162816.080000", "162817.580000", "162819.080000", "162820.580000", "162822.080000", "162823.580000", "162825.080000", "162826.580000", "162828.080000", "162829.580000", "162831.080000", "162832.580000", "162834.080000", "162835.580000", "162837.080000", "162838.580000", "162840.080000", "162841.580000", "162843.080000", "162844.580000", "162846.080000", "162847.580000", "162849.080000", "162850.580000", "162852.080000", "162853.580000", "162855.080000", "162856.580000", "162858.080000", "162859.580000", "162901.080000", "162902.580000", "162904.080000", "162905.580000", "162907.080000", "162908.580000", "162910.080000", "162911.580000", "162913.080000", "162914.580000", "162916.080000", "162917.580000", "162919.080000", "162920.580000", "162922.080000", "162923.580000", "162925.080000", "162926.580000", "162928.080000", "162929.580000", "162931.080000", "162932.580000", "162934.080000", "162935.580000", "162937.080000", "162938.580000", "162940.080000", "162941.580000", "162943.080000", "162944.580000", "162946.080000", "162947.580000", "162949.080000", "162950.580000", "162952.080000", "162953.580000", "162955.080000", "162956.580000", "162958.080000", "162959.580000", "163001.080000", "163002.580000", "163004.080000", "163005.580000", "163007.080000", "163008.580000", "163010.080000", "163011.580000", "163013.080000", "163014.580000", "163016.080000", "163017.580000", "163019.080000", "163020.580000", "163022.080000", "163023.580000", "163025.080000", "163026.580000", "163028.080000", "163029.580000", "163031.080000", "163032.580000", "163034.080000", "163035.580000", "163037.080000", "163038.580000", "163040.080000", "163041.580000", "163043.080000", "163044.580000", "163046.080000", "163047.580000", "163049.080000", "163050.580000", "163052.080000", "163053.580000", "163055.080000", "163056.580000", "163058.080000", "163059.580000", "163101.080000", "163102.580000", "163104.080000", "163105.580000", "163107.080000", "163108.580000", "163110.080000", "163111.580000", "163113.080000", "163114.580000", "163116.080000", "163117.580000", "163119.080000", "163120.580000", "163122.080000", "163123.580000", "163125.080000", "163126.580000", "163128.080000", "163129.580000", "163131.080000", "163132.580000", "163134.080000", "163135.580000", "163137.080000", "163138.580000", "163140.080000", "163141.580000", "163143.080000", "163144.580000", "163146.080000", "163147.580000", "163149.080000", "163150.580000", "163152.080000", "163153.580000", "163155.080000", "163156.580000", "163158.080000", "163159.580000", "163201.080000", "163202.580000", "163204.080000", "163205.580000", "163207.080000", "163208.580000", "163210.080000", "163211.580000", "163213.080000", "163214.580000", "163216.080000", "163217.580000", "163219.080000", "163220.580000", "163222.080000", "163223.580000", "163225.080000", "163226.580000", "163228.080000", "163229.580000", "163231.080000", "163232.580000", "163234.080000", "163235.580000", "163237.080000", "163238.580000", "163240.080000", "163241.580000", "163243.080000", "163244.580000", "163246.080000", "163247.580000", "163249.080000", "163250.580000", "163252.080000", "163253.580000", "163255.080000", "163256.580000", "163258.080000", "163259.580000", "163301.080000", "163302.580000", "163304.080000", "163305.580000", "163307.080000", "163308.580000", "163310.080000", "163311.580000"],
      "ContentTime": ["162827.353000", "162827.357000", "162827.360000", "162827.363000", "162827.366000", "162827.369000", "162827.372000", "162827.375000", "162827.378000", "162827.381000", "162827.384000", "162827.388000", "162827.391000", "162827.394000", "162827.397000", "162827.400000", "162827.403000", "162827.406000", "162827.415000", "162827.418000", "162827.421000", "162827.424000", "162827.427000", "162907.349000", "162907.371000", "162907.374000", "162907.377000", "162907.380000", "162907.383000", "162907.386000", "162907.389000", "162907.392000", "162907.396000", "162907.399000", "162907.402000", "162907.405000", "162907.408000", "162907.411000", "162907.414000", "162907.417000", "162907.420000", "162907.423000", "162907.426000", "162907.429000", "162907.432000", "162907.435000", "162907.438000", "162907.441000", "162907.444000", "162907.447000", "162947.349000", "162947.359000", "162947.362000", "162947.365000", "162947.368000", "162947.371000", "162947.374000", "162947.377000", "162947.380000", "162947.383000", "162947.386000", "162947.389000", "162947.392000", "162947.396000", "162947.399000", "162947.402000", "162947.405000", "162947.408000", "162947.411000", "162947.414000", "162947.417000", "162947.420000", "162947.423000", "162947.426000", "162947.429000", "162947.432000", "163007.349000", "163007.352000", "163007.355000", "163007.358000", "163007.361000", "163007.364000", "163007.367000", "163007.370000", "163007.373000", "163007.377000", "163007.379000", "163007.383000", "163007.386000", "163007.389000", "163047.348000", "163047.351000", "163047.354000", "163047.357000", "163047.361000", "163047.364000", "163047.367000", "163047.370000", "163047.373000", "163047.376000", "163047.379000", "163047.382000", "163047.385000", "163047.388000", "163047.391000", "163047.394000", "163047.397000", "163047.400000", "163047.403000", "163047.406000", "163047.409000", "163047.412000", "163047.415000", "163047.418000", "163047.421000", "163047.424000", "163127.349000", "163127.362000", "163127.365000", "163127.368000", "163127.371000", "163127.374000", "163127.377000", "163127.380000", "163127.383000", "163127.386000", "163127.389000", "163127.392000", "163127.395000", "163127.398000", "163127.401000", "163127.404000", "163127.407000", "163127.410000", "163127.413000", "163127.416000", "163127.419000", "163127.422000", "163127.425000", "163127.429000", "163127.432000", "163127.435000", "163127.438000", "163207.349000", "163207.352000", "163207.356000", "163207.359000", "163207.362000", "163207.365000", "163207.368000", "163207.371000", "163207.374000", "163207.377000", "163207.380000", "163207.383000", "163207.386000", "163207.389000", "163207.393000", "163207.396000", "163207.399000", "163207.402000", "163207.405000", "163207.408000", "163207.411000", "163207.414000", "163207.417000", "163207.420000", "163207.423000", "163207.426000", "163207.429000", "163247.349000", "163247.352000", "163247.355000", "163247.358000", "163247.362000", "163247.376000", "163247.379000", "163247.382000", "163247.385000", "163247.388000", "163247.391000", "163247.394000", "163247.397000", "163247.400000", "163247.403000", "163247.406000", "163247.409000", "163247.412000", "163247.415000", "163247.418000", "163247.421000", "163247.424000", "163247.427000", "163247.430000", "163247.433000", "163247.436000", "163313.238000", "163313.241000", "163313.245000", "163313.248000", "163313.251000", "163313.254000", "163313.257000", "163313.261000", "163313.264000", "163313.267000", "163313.270000", "163313.273000", "163313.276000", "163313.279000", "163313.282000", "163313.305000", "163313.308000", "163313.311000"],
      "InstanceCreationTime": ["162827.353000", "162827.357000", "162827.360000", "162827.363000", "162827.366000", "162827.369000", "162827.372000", "162827.375000", "162827.378000", "162827.381000", "162827.384000", "162827.388000", "162827.391000", "162827.394000", "162827.397000", "162827.400000", "162827.403000", "162827.406000", "162827.415000", "162827.418000", "162827.421000", "162827.424000", "162827.427000", "162907.349000", "162907.371000", "162907.374000", "162907.377000", "162907.380000", "162907.383000", "162907.386000", "162907.389000", "162907.392000", "162907.396000", "162907.399000", "162907.402000", "162907.405000", "162907.408000", "162907.411000", "162907.414000", "162907.417000", "162907.420000", "162907.423000", "162907.426000", "162907.429000", "162907.432000", "162907.435000", "162907.438000", "162907.441000", "162907.444000", "162907.447000", "162947.349000", "162947.359000", "162947.362000", "162947.365000", "162947.368000", "162947.371000", "162947.374000", "162947.377000", "162947.380000", "162947.383000", "162947.386000", "162947.389000", "162947.392000", "162947.396000", "162947.399000", "162947.402000", "162947.405000", "162947.408000", "162947.411000", "162947.414000", "162947.417000", "162947.420000", "162947.423000", "162947.426000", "162947.429000", "162947.432000", "163007.349000", "163007.352000", "163007.355000", "163007.358000", "163007.361000", "163007.364000", "163007.367000", "163007.370000", "163007.373000", "163007.377000", "163007.379000", "163007.383000", "163007.386000", "163007.389000", "163047.348000", "163047.351000", "163047.354000", "163047.357000", "163047.361000", "163047.364000", "163047.367000", "163047.370000", "163047.373000", "163047.376000", "163047.379000", "163047.382000", "163047.385000", "163047.388000", "163047.391000", "163047.394000", "163047.397000", "163047.400000", "163047.403000", "163047.406000", "163047.409000", "163047.412000", "163047.415000", "163047.418000", "163047.421000", "163047.424000", "163127.349000", "163127.362000", "163127.365000", "163127.368000", "163127.371000", "163127.374000", "163127.377000", "163127.380000", "163127.383000", "163127.386000", "163127.389000", "163127.392000", "163127.395000", "163127.398000", "163127.401000", "163127.404000", "163127.407000", "163127.410000", "163127.413000", "163127.416000", "163127.419000", "163127.422000", "163127.425000", "163127.429000", "163127.432000", "163127.435000", "163127.438000", "163207.349000", "163207.352000", "163207.356000", "163207.359000", "163207.362000", "163207.365000", "163207.368000", "163207.371000", "163207.374000", "163207.377000", "163207.380000", "163207.383000", "163207.386000", "163207.389000", "163207.393000", "163207.396000", "163207.399000", "163207.402000", "163207.405000", "163207.408000", "163207.411000", "163207.414000", "163207.417000", "163207.420000", "163207.423000", "163207.426000", "163207.429000", "163247.349000", "163247.352000", "163247.355000", "163247.358000", "163247.362000", "163247.376000", "163247.379000", "163247.382000", "163247.385000", "163247.388000", "163247.391000", "163247.394000", "163247.397000", "163247.400000", "163247.403000", "163247.406000", "163247.409000", "163247.412000", "163247.415000", "163247.418000", "163247.421000", "163247.424000", "163247.427000", "163247.430000", "163247.433000", "163247.436000", "163313.238000", "163313.241000", "163313.245000", "163313.248000", "163313.251000", "163313.254000", "163313.257000", "163313.261000", "163313.264000", "163313.267000", "163313.270000", "163313.273000", "163313.276000", "163313.279000", "163313.282000", "163313.305000", "163313.308000", "163313.311000"],
      "InstanceNumber": [1, 2, 3, 4, 5, 6, 7, 8, 9, 10, 11, 12, 13, 14, 15, 16, 17, 18, 19, 20, 21, 22, 23, 24, 25, 26, 27, 28, 29, 30, 31, 32, 33, 34, 35, 36, 37, 38, 39, 40, 41, 42, 43, 44, 45, 46, 47, 48, 49, 50, 51, 52, 53, 54, 55, 56, 57, 58, 59, 60, 61, 62, 63, 64, 65, 66, 67, 68, 69, 70, 71, 72, 73, 74, 75, 76, 77, 78, 79, 80, 81, 82, 83, 84, 85, 86, 87, 88, 89, 90, 91, 92, 93, 94, 95, 96, 97, 98, 99, 100, 101, 102, 103, 104, 105, 106, 107, 108, 109, 110, 111, 112, 113, 114, 115, 116, 117, 118, 119, 120, 121, 122, 123, 124, 125, 126, 127, 128, 129, 130, 131, 132, 133, 134, 135, 136, 137, 138, 139, 140, 141, 142, 143, 144, 145, 146, 147, 148, 149, 150, 151, 152, 153, 154, 155, 156, 157, 158, 159, 160, 161, 162, 163, 164, 165, 166, 167, 168, 169, 170, 171, 172, 173, 174, 175, 176, 177, 178, 179, 180, 181, 182, 183, 184, 185, 186, 187, 188, 189, 190, 191, 192, 193, 194, 195, 196, 197, 198, 199, 200, 201, 202, 203, 204, 205, 206, 207, 208, 209, 210, 211, 212, 213, 214],
      "LargestImagePixelValue": [2779, 2705, 2656, 2626, 2578, 2565, 2587, 2605, 2615, 2590, 2582, 2658, 2669, 2669, 2656, 2624, 2623, 2567, 2524, 2632, 2630, 2687, 2656, 2614, 2591, 2631, 2626, 2648, 2641, 2647, 2634, 2669, 2650, 2636, 2646, 2616, 2677, 2626, 2645, 2633, 2634, 2595, 2621, 2600, 2625, 2642, 2629, 2641, 2615, 2598, 2630, 2638, 2664, 2629, 2590, 2602, 2573, 2615, 2605, 2599, 2575, 2585, 2521, 2566, 2570, 2585, 2598, 2615, 2607, 2579, 2586, 2593, 2565, 2559, 2586, 2579, 2592, 2590, 2588, 2549, 2475, 2554, 2544, 2566, 2570, 2616, 2571, 2556, 2528, 2550, 2550, 2516, 2574, 2543, 2555, 2532, 2575, 2554, 2559, 2585, 2598, 2559, 2561, 2554, 2582, 2579, 2465, 2559, 2500, 2579, 2527, 2577, 2570, 2564, 2529, 2568, 2540, 2520, 2548, 2548, 2515, 2488, 2503, 2567, 2572, 2503, 2522, 2450, 2566, 2548, 2579, 2581, 2579, 2591, 2541, 2562, 2541, 2585, 2583, 2562, 2563, 2609, 2592, 2577, 2584, 2599, 2585, 2583, 2651, 2599, 2620, 2609, 2564, 2543, 2566, 2584, 2587, 2588, 2584, 2593, 2579, 2589, 2574, 2550, 2530, 2533, 2563, 2575, 2555, 2503, 2627, 2600, 2635, 2642, 2623, 2601, 2597, 2602, 2611, 2615, 2645, 2654, 2630, 2652, 2646, 2685, 2642, 2637, 2651, 2642, 2636, 2630, 2667, 2644, 2646, 2630, 2624, 2624, 2615, 2623, 2619, 2624, 2641, 2649, 2646, 2661, 2675, 2699, 2708, 2687, 2658, 2508, 2619, 2612],
      "WindowCenter": [689.0, 687.0, 684.0, 683.0, 683.0, 683.0, 684.0, 684.0, 684.0, 684.0, 684.0, 686.0, 687.0, 687.0, 688.0, 687.0, 688.0, 688.0, 688.0, 689.0, 687.0, 686.0, 685.0, 685.0, 685.0, 686.0, 686.0, 687.0, 688.0, 688.0, 688.0, 688.0, 688.0, 689.0, 689.0, 689.0, 689.0, 689.0, 690.0, 688.0, 687.0, 686.0, 685.0, 685.0, 686.0, 687.0, 687.0, 687.0, 686.0, 685.0, 686.0, 687.0, 688.0, 687.0, 688.0, 687.0, 686.0, 687.0, 687.0, 687.0, 685.0, 684.0, 684.0, 685.0, 685.0, 686.0, 688.0, 688.0, 687.0, 686.0, 685.0, 686.0, 685.0, 686.0, 687.0, 687.0, 688.0, 688.0, 687.0, 687.0, 687.0, 686.0, 685.0, 686.0, 688.0, 689.0, 688.0, 686.0, 685.0, 685.0, 685.0, 685.0, 685.0, 685.0, 685.0, 685.0, 686.0, 686.0, 687.0, 688.0, 686.0, 686.0, 686.0, 687.0, 687.0, 686.0, 684.0, 685.0, 685.0, 686.0, 686.0, 688.0, 689.0, 687.0, 686.0, 686.0, 685.0, 686.0, 688.0, 687.0, 686.0, 684.0, 686.0, 687.0, 688.0, 686.0, 685.0, 684.0, 686.0, 687.0, 687.0, 686.0, 684.0, 684.0, 683.0, 683.0, 684.0, 684.0, 683.0, 683.0, 684.0, 684.0, 685.0, 685.0, 686.0, 686.0, 687.0, 688.0, 688.0, 687.0, 688.0, 688.0, 686.0, 685.0, 686.0, 687.0, 688.0, 689.0, 687.0, 688.0, 688.0, 687.0, 686.0, 684.0, 684.0, 685.0, 686.0, 686.0, 685.0, 687.0, 686.0, 687.0, 686.0, 686.0, 685.0, 685.0, 684.0, 684.0, 684.0, 685.0, 685.0, 685.0, 685.0, 685.0, 685.0, 685.0, 684.0, 684.0, 685.0, 686.0, 687.0, 687.0, 686.0, 686.0, 685.0, 685.0, 685.0, 685.0, 686.0, 686.0, 686.0, 688.0, 688.0, 688.0, 688.0, 688.0, 690.0, 690.0, 689.0, 687.0, 686.0, 685.0, 687.0, 686.0],
      "WindowWidth": [1481.0, 1474.0, 1468.0, 1466.0, 1466.0, 1466.0, 1467.0, 1467.0, 1467.0, 1467.0, 1468.0, 1472.0, 1475.0, 1476.0, 1477.0, 1476.0, 1477.0, 1478.0, 1479.0, 1481.0, 1475.0, 1473.0, 1470.0, 1469.0, 1469.0, 1473.0, 1474.0, 1476.0, 1477.0, 1477.0, 1478.0, 1478.0, 1479.0, 1479.0, 1479.0, 1480.0, 1481.0, 1481.0, 1482.0, 1478.0, 1475.0, 1472.0, 1470.0, 1470.0, 1472.0, 1475.0, 1476.0, 1474.0, 1472.0, 1471.0, 1473.0, 1475.0, 1477.0, 1476.0, 1477.0, 1475.0, 1474.0, 1476.0, 1474.0, 1474.0, 1471.0, 1469.0, 1469.0, 1469.0, 1470.0, 1473.0, 1479.0, 1479.0, 1476.0, 1471.0, 1470.0, 1472.0, 1471.0, 1474.0, 1476.0, 1476.0, 1477.0, 1478.0, 1475.0, 1475.0, 1475.0, 1473.0, 1472.0, 1473.0, 1478.0, 1480.0, 1477.0, 1473.0, 1471.0, 1469.0, 1470.0, 1469.0, 1471.0, 1470.0, 1469.0, 1470.0, 1472.0, 1473.0, 1474.0, 1476.0, 1473.0, 1472.0, 1473.0, 1475.0, 1474.0, 1472.0, 1468.0, 1470.0, 1471.0, 1472.0, 1474.0, 1479.0, 1480.0, 1475.0, 1472.0, 1473.0, 1471.0, 1472.0, 1478.0, 1475.0, 1472.0, 1468.0, 1473.0, 1477.0, 1477.0, 1473.0, 1469.0, 1468.0, 1472.0, 1476.0, 1476.0, 1472.0, 1468.0, 1468.0, 1466.0, 1466.0, 1468.0, 1467.0, 1466.0, 1464.0, 1466.0, 1468.0, 1470.0, 1471.0, 1471.0, 1473.0, 1475.0, 1477.0, 1477.0, 1476.0, 1478.0, 1479.0, 1474.0, 1471.0, 1473.0, 1476.0, 1478.0, 1479.0, 1476.0, 1477.0, 1477.0, 1476.0, 1472.0, 1467.0, 1466.0, 1469.0, 1472.0, 1473.0, 1471.0, 1474.0, 1474.0, 1474.0, 1473.0, 1472.0, 1470.0, 1469.0, 1467.0, 1467.0, 1469.0, 1470.0, 1470.0, 1471.0, 1470.0, 1471.0, 1470.0, 1469.0, 1468.0, 1468.0, 1470.0, 1472.0, 1475.0, 1474.0, 1473.0, 1472.0, 1470.0, 1469.0, 1469.0, 1470.0, 1472.0, 1471.0, 1473.0, 1477.0, 1476.0, 1477.0, 1476.0, 1479.0, 1482.0, 1483.0, 1480.0, 1475.0, 1471.0, 1470.0, 1475.0, 1472.0]
    },
    "slices": {}
  }
}