{
  "AcquisitionMatrixPE": 72,
  "AcquisitionNumber": 1,
  "AcquisitionTime": "16:39:30.495000",
  "BandwidthPerPixelPhaseEncode": 17.943,
  "BaseResolution": 96,
  "BodyPartExamined": "BRAIN",
  "CoilCombinationMethod": "Sum of Squares",
  "ConsistencyInfo": "N4_VE11C_LATEST_20160120",
  "ConversionSoftware": "dcm2niix",
  "ConversionSoftwareVersion": "v1.0.20211006",
  "DerivedVendorReportedEchoSpacing": 0.000552897,
  "DeviceSerialNumber": "166011",
  "EchoTime": 0.03,
  "EchoTrainLength": 58,
  "EffectiveEchoSpacing": 0.000580542,
  "FlipAngle": 62,
  "ImageOrientationPatientDICOM": [0.997201, 0.0483402, -0.0570364, -0.0257643, 0.938321, 0.344804],
  "ImageType": [
    "ORIGINAL",
    "PRIMARY",
    "M",
    "ND",
    "MOSAIC"
],
  "ImagingFrequency": 123.259,
  "InPlanePhaseEncodingDirectionDICOM": "COL",
  "InstitutionAddress": "West 130th Street 610,NY,NYC,US,10025",
  "InstitutionName": "MBBI",
  "MRAcquisitionType": "2D",
  "MagneticFieldStrength": 3,
  "Manufacturer": "Siemens",
  "ManufacturersModelName": "Prisma",
  "Modality": "MR",
  "MultibandAccelerationFactor": 3,
  "PartialFourier": 0.75,
  "PatientPosition": "HFS",
  "PercentPhaseFOV": 100,
  "PercentSampling": 75,
  "PhaseEncodingDirection": "j-",
  "PhaseEncodingSteps": 58,
  "PhaseOversampling": 0.05,
  "PhaseResolution": 0.75,
  "PixelBandwidth": 2265,
  "ProcedureStepDescription": "White^Word_recognition",
  "ProtocolName": "func_vwfate_run12",
  "PulseSequenceDetails": "%SiemensSeq%\\ep2d_bold",
  "ReceiveCoilActiveElements": "HC1-7",
  "ReceiveCoilName": "HeadNeck_64",
  "ReconMatrixPE": 96,
  "RefLinesPE": 40,
  "RepetitionTime": 1.5,
  "SAR": 0.0496969,
  "ScanOptions": "PFP\\FS",
  "ScanningSequence": "EP",
  "SequenceName": "*epfid2d1_72",
  "SequenceVariant": "SK\\OSP",
  "SeriesDescription": "func_vwfate_run12",
  "SeriesNumber": 13,
  "ShimSetting": [-1178, -1502, 824, 600, -120, -288, 104, 45],
  "SliceThickness": 2,
  "SliceTiming": [1.075, 0, 0.74, 0.0675, 0.8075, 0.1325, 0.8725, 0.2, 0.94, 0.2675, 1.0075, 0.4025, 1.1425, 0.47, 1.21, 0.5375, 1.2775, 0.605, 1.345, 0.6725, 1.4125, 0.335, 1.075, 0, 0.74, 0.0675, 0.8075, 0.1325, 0.8725, 0.2, 0.94, 0.2675, 1.0075, 0.4025, 1.1425, 0.47, 1.21, 0.5375, 1.2775, 0.605, 1.345, 0.6725, 1.4125, 0.335, 1.075, 0, 0.74, 0.0675, 0.8075, 0.1325, 0.8725, 0.2, 0.94, 0.2675, 1.0075, 0.4025, 1.1425, 0.47, 1.21, 0.5375, 1.2775, 0.605, 1.345, 0.6725, 1.4125, 0.335],
  "SoftwareVersions": "syngo MR E11",
  "SpacingBetweenSlices": 2,
  "StationName": "AWP166011",
  "TaskName": "vwfate",
  "TotalReadoutTime": 0.0551515,
  "TxRefAmp": 216.897,
  "dcmmeta_affine": [
    [-1.994402289390564, -0.05152866616845131, -0.14037258923053741, 104.29963684082031],
    [-0.09668031334877014, 1.876642107963562, 0.68473881483078, -78.88093566894531],
    [-0.11407272517681122, -0.6896079778671265, 1.8738805055618286, 12.605542182922363],
    [0.0, 0.0, 0.0, 1.0]
],
  "dcmmeta_reorient_transform": [
    [0.0, -1.0, 0.0, 95.0],
    [1.0, 0.0, 0.0, 0.0],
    [0.0, 0.0, 1.0, 0.0],
    [0.0, 0.0, 0.0, 1.0]
],
  "dcmmeta_shape": [96, 96, 66, 164],
  "dcmmeta_slice_dim": 2,
  "dcmmeta_version": 0.6,
  "global": {
    "const": {
      "AcquisitionMatrix": [96, 0, 0, 72],
      "AngioFlag": "N",
      "BitsAllocated": 16,
      "BitsStored": 12,
      "BodyPartExamined": "BRAIN",
      "Columns": 864,
      "EchoNumbers": 1,
      "EchoTime": 30.0,
      "EchoTrainLength": 58,
      "FlipAngle": 62.0,
      "HighBit": 11,
      "ImageOrientationPatient": [0.99720112458643, 0.04834015576277, -0.0570363608971, -0.0257643333667, 0.93832106240911, 0.3448039775954],
      "ImagePositionPatient": [-845.46786769734, -857.15587931538, -273.91274357819],
      "ImageType": [
        "ORIGINAL",
        "PRIMARY",
        "M",
        "ND",
        "MOSAIC"
],
      "ImagedNucleus": "1H",
      "ImagingFrequency": 123.259118,
      "InPlanePhaseEncodingDirection": "COL",
      "MRAcquisitionType": "2D",
      "MagneticFieldStrength": 3.0,
      "Manufacturer": "SIEMENS",
      "ManufacturerModelName": "Prisma",
      "Modality": "MR",
      "NumberOfAverages": 1.0,
      "NumberOfPhaseEncodingSteps": 58,
      "PercentPhaseFieldOfView": 100.0,
      "PercentSampling": 75.0,
      "PerformedProcedureStepStartTime": "152924.246000",
      "PhotometricInterpretation": "MONOCHROME2",
      "PixelBandwidth": 2265.0,
      "PixelRepresentation": 0,
      "PixelSpacing": [2.0, 2.0],
      "ProtocolName": "func_vwfate_run12",
      "RepetitionTime": 1500.0,
      "Rows": 864,
      "SAR": 0.04969688099377,
      "SamplesPerPixel": 1,
      "ScanOptions": [
        "PFP",
        "FS"
],
      "ScanningSequence": "EP",
      "SequenceName": "*epfid2d1_72",
      "SequenceVariant": [
        "SK",
        "OSP"
],
      "SeriesDescription": "func_vwfate_run12",
      "SeriesNumber": 13,
      "SeriesTime": "164007.495000",
      "SliceLocation": -22.516185692864,
      "SliceThickness": 2.0,
      "SmallestImagePixelValue": 0,
      "SoftwareVersions": "syngo MR E11",
      "SpacingBetweenSlices": 2.0000000193822,
      "SpecificCharacterSet": "ISO_IR 100",
      "StudyID": "1",
      "StudyTime": "152924.196000",
      "TransmitCoilName": "Body",
      "VariableFlipAngleFlag": "N",
      "WindowCenterWidthExplanation": "Algo1",
      "dBdt": 0.0},
    "slices": {}
  },
  "time": {
    "samples": {
      "AcquisitionNumber": [1, 2, 3, 4, 5, 6, 7, 8, 9, 10, 11, 12, 13, 14, 15, 16, 17, 18, 19, 20, 21, 22, 23, 24, 25, 26, 27, 28, 29, 30, 31, 32, 33, 34, 35, 36, 37, 38, 39, 40, 41, 42, 43, 44, 45, 46, 47, 48, 49, 50, 51, 52, 53, 54, 55, 56, 57, 58, 59, 60, 61, 62, 63, 64, 65, 66, 67, 68, 69, 70, 71, 72, 73, 74, 75, 76, 77, 78, 79, 80, 81, 82, 83, 84, 85, 86, 87, 88, 89, 90, 91, 92, 93, 94, 95, 96, 97, 98, 99, 100, 101, 102, 103, 104, 105, 106, 107, 108, 109, 110, 111, 112, 113, 114, 115, 116, 117, 118, 119, 120, 121, 122, 123, 124, 125, 126, 127, 128, 129, 130, 131, 132, 133, 134, 135, 136, 137, 138, 139, 140, 141, 142, 143, 144, 145, 146, 147, 148, 149, 150, 151, 152, 153, 154, 155, 156, 157, 158, 159, 160, 161, 162, 163, 164],
      "AcquisitionTime": ["163930.495000", "163931.995000", "163933.495000", "163934.995000", "163936.495000", "163937.995000", "163939.495000", "163940.995000", "163942.495000", "163943.995000", "163945.495000", "163946.995000", "163948.495000", "163949.995000", "163951.495000", "163952.995000", "163954.495000", "163955.995000", "163957.495000", "163958.995000", "164000.495000", "164001.995000", "164003.495000", "164004.995000", "164006.495000", "164007.995000", "164009.495000", "164010.995000", "164012.495000", "164013.995000", "164015.495000", "164016.995000", "164018.495000", "164019.995000", "164021.495000", "164022.995000", "164024.495000", "164025.995000", "164027.495000", "164028.995000", "164030.495000", "164031.995000", "164033.495000", "164034.995000", "164036.495000", "164037.995000", "164039.495000", "164040.995000", "164042.495000", "164043.995000", "164045.495000", "164046.995000", "164048.495000", "164049.995000", "164051.495000", "164052.995000", "164054.495000", "164055.995000", "164057.495000", "164058.995000", "164100.495000", "164101.995000", "164103.495000", "164104.995000", "164106.495000", "164107.995000", "164109.495000", "164110.995000", "164112.495000", "164113.995000", "164115.495000", "164116.995000", "164118.495000", "164119.995000", "164121.495000", "164122.995000", "164124.495000", "164125.995000", "164127.495000", "164128.995000", "164130.495000", "164131.995000", "164133.495000", "164134.995000", "164136.495000", "164137.995000", "164139.495000", "164140.995000", "164142.495000", "164143.995000", "164145.495000", "164146.995000", "164148.495000", "164149.995000", "164151.495000", "164152.995000", "164154.495000", "164155.995000", "164157.495000", "164158.995000", "164200.495000", "164201.995000", "164203.495000", "164204.995000", "164206.495000", "164207.995000", "164209.495000", "164210.995000", "164212.495000", "164213.995000", "164215.495000", "164216.995000", "164218.495000", "164219.995000", "164221.495000", "164222.995000", "164224.495000", "164225.995000", "164227.495000", "164228.995000", "164230.495000", "164231.995000", "164233.495000", "164234.995000", "164236.495000", "164237.995000", "164239.495000", "164240.995000", "164242.495000", "164243.995000", "164245.495000", "164246.995000", "164248.495000", "164249.995000", "164251.495000", "164252.995000", "164254.495000", "164255.995000", "164257.495000", "164258.995000", "164300.495000", "164301.995000", "164303.495000", "164304.995000", "164306.495000", "164307.995000", "164309.495000", "164310.995000", "164312.495000", "164313.995000", "164315.495000", "164316.995000", "164318.495000", "164319.995000", "164321.495000", "164322.995000", "164324.495000", "164325.995000", "164327.495000", "164328.995000", "164330.495000", "164331.995000", "164333.495000", "164334.995000"],
      "ContentTime": ["164007.499000", "164007.503000", "164007.506000", "164007.509000", "164007.512000", "164007.515000", "164007.518000", "164007.522000", "164007.525000", "164007.528000", "164007.531000", "164007.537000", "164007.540000", "164007.543000", "164007.553000", "164007.561000", "164007.564000", "164007.567000", "164007.570000", "164007.573000", "164007.576000", "164007.579000", "164007.582000", "164007.589000", "164027.495000", "164027.499000", "164027.502000", "164027.505000", "164027.508000", "164027.511000", "164027.515000", "164027.518000", "164027.521000", "164027.525000", "164027.528000", "164027.531000", "164027.535000", "164107.495000", "164107.506000", "164107.509000", "164107.512000", "164107.515000", "164107.518000", "164107.521000", "164107.524000", "164107.527000", "164107.530000", "164107.533000", "164107.536000", "164107.556000", "164107.559000", "164107.562000", "164107.565000", "164107.568000", "164107.571000", "164107.574000", "164107.577000", "164107.580000", "164107.583000", "164107.586000", "164107.589000", "164107.592000", "164107.596000", "164107.599000", "164147.495000", "164147.498000", "164147.501000", "164147.504000", "164147.507000", "164147.510000", "164147.513000", "164147.516000", "164147.519000", "164147.523000", "164147.526000", "164147.529000", "164147.532000", "164147.535000", "164147.538000", "164147.541000", "164147.544000", "164147.547000", "164147.550000", "164147.553000", "164147.556000", "164147.559000", "164147.562000", "164147.565000", "164147.568000", "164147.583000", "164147.586000", "164227.494000", "164227.497000", "164227.500000", "164227.503000", "164227.507000", "164227.510000", "164227.513000", "164227.516000", "164227.519000", "164227.522000", "164227.526000", "164227.529000", "164227.532000", "164227.535000", "164227.538000", "164227.541000", "164227.544000", "164227.547000", "164227.551000", "164227.554000", "164227.557000", "164227.560000", "164227.563000", "164227.566000", "164227.569000", "164227.572000", "164307.495000", "164307.498000", "164307.501000", "164307.504000", "164307.507000", "164307.510000", "164307.514000", "164307.517000", "164307.520000", "164307.523000", "164307.526000", "164307.529000", "164307.532000", "164307.535000", "164307.538000", "164307.541000", "164307.544000", "164307.547000", "164307.550000", "164307.553000", "164307.556000", "164307.559000", "164307.562000", "164307.565000", "164307.569000", "164307.575000", "164307.578000", "164336.531000", "164336.534000", "164336.537000", "164336.540000", "164336.543000", "164336.546000", "164336.549000", "164336.552000", "164336.555000", "164336.559000", "164336.562000", "164336.565000", "164336.568000", "164336.571000", "164336.574000", "164336.577000", "164336.580000", "164336.583000", "164336.586000", "164336.589000"],
      "InstanceCreationTime": ["164007.499000", "164007.503000", "164007.506000", "164007.509000", "164007.512000", "164007.515000", "164007.518000", "164007.522000", "164007.525000", "164007.528000", "164007.531000", "164007.537000", "164007.540000", "164007.543000", "164007.553000", "164007.561000", "164007.564000", "164007.567000", "164007.570000", "164007.573000", "164007.576000", "164007.579000", "164007.582000", "164007.589000", "164027.495000", "164027.499000", "164027.502000", "164027.505000", "164027.508000", "164027.511000", "164027.515000", "164027.518000", "164027.521000", "164027.525000", "164027.528000", "164027.531000", "164027.535000", "164107.495000", "164107.506000", "164107.509000", "164107.512000", "164107.515000", "164107.518000", "164107.521000", "164107.524000", "164107.527000", "164107.530000", "164107.533000", "164107.536000", "164107.556000", "164107.559000", "164107.562000", "164107.565000", "164107.568000", "164107.571000", "164107.574000", "164107.577000", "164107.580000", "164107.583000", "164107.586000", "164107.589000", "164107.592000", "164107.596000", "164107.599000", "164147.495000", "164147.498000", "164147.501000", "164147.504000", "164147.507000", "164147.510000", "164147.513000", "164147.516000", "164147.519000", "164147.523000", "164147.526000", "164147.529000", "164147.532000", "164147.535000", "164147.538000", "164147.541000", "164147.544000", "164147.547000", "164147.550000", "164147.553000", "164147.556000", "164147.559000", "164147.562000", "164147.565000", "164147.568000", "164147.583000", "164147.586000", "164227.494000", "164227.497000", "164227.500000", "164227.503000", "164227.507000", "164227.510000", "164227.513000", "164227.516000", "164227.519000", "164227.522000", "164227.526000", "164227.529000", "164227.532000", "164227.535000", "164227.538000", "164227.541000", "164227.544000", "164227.547000", "164227.551000", "164227.554000", "164227.557000", "164227.560000", "164227.563000", "164227.566000", "164227.569000", "164227.572000", "164307.495000", "164307.498000", "164307.501000", "164307.504000", "164307.507000", "164307.510000", "164307.514000", "164307.517000", "164307.520000", "164307.523000", "164307.526000", "164307.529000", "164307.532000", "164307.535000", "164307.538000", "164307.541000", "164307.544000", "164307.547000", "164307.550000", "164307.553000", "164307.556000", "164307.559000", "164307.562000", "164307.565000", "164307.569000", "164307.575000", "164307.578000", "164336.531000", "164336.534000", "164336.537000", "164336.540000", "164336.543000", "164336.546000", "164336.549000", "164336.552000", "164336.555000", "164336.559000", "164336.562000", "164336.565000", "164336.568000", "164336.571000", "164336.574000", "164336.577000", "164336.580000", "164336.583000", "164336.586000", "164336.589000"],
      "InstanceNumber": [1, 2, 3, 4, 5, 6, 7, 8, 9, 10, 11, 12, 13, 14, 15, 16, 17, 18, 19, 20, 21, 22, 23, 24, 25, 26, 27, 28, 29, 30, 31, 32, 33, 34, 35, 36, 37, 38, 39, 40, 41, 42, 43, 44, 45, 46, 47, 48, 49, 50, 51, 52, 53, 54, 55, 56, 57, 58, 59, 60, 61, 62, 63, 64, 65, 66, 67, 68, 69, 70, 71, 72, 73, 74, 75, 76, 77, 78, 79, 80, 81, 82, 83, 84, 85, 86, 87, 88, 89, 90, 91, 92, 93, 94, 95, 96, 97, 98, 99, 100, 101, 102, 103, 104, 105, 106, 107, 108, 109, 110, 111, 112, 113, 114, 115, 116, 117, 118, 119, 120, 121, 122, 123, 124, 125, 126, 127, 128, 129, 130, 131, 132, 133, 134, 135, 136, 137, 138, 139, 140, 141, 142, 143, 144, 145, 146, 147, 148, 149, 150, 151, 152, 153, 154, 155, 156, 157, 158, 159, 160, 161, 162, 163, 164],
      "LargestImagePixelValue": [2784, 2737, 2712, 2707, 2690, 2676, 2682, 2655, 2527, 2603, 2574, 2633, 2651, 2699, 2715, 2725, 2710, 2704, 2696, 2700, 2674, 2698, 2677, 2697, 2671, 2673, 2709, 2722, 2707, 2699, 2685, 2679, 2675, 2691, 2707, 2689, 2661, 2660, 2622, 2639, 2694, 2707, 2684, 2688, 2668, 2670, 2646, 2666, 2671, 2707, 2639, 2653, 2640, 2669, 2651, 2683, 2676, 2651, 2649, 2636, 2590, 2599, 2618, 2626, 2633, 2609, 2579, 2549, 2585, 2582, 2584, 2617, 2661, 2663, 2632, 2606, 2625, 2630, 2657, 2660, 2613, 2587, 2549, 2631, 2388, 2560, 2639, 2656, 2641, 2582, 2579, 2644, 2620, 2634, 2609, 2534, 2533, 2549, 2534, 2568, 2504, 2530, 2502, 2529, 2510, 2512, 2558, 2594, 2598, 2562, 2533, 2580, 2593, 2581, 2621, 2556, 2574, 2508, 2531, 2512, 2506, 2523, 2519, 2537, 2508, 2483, 2417, 2666, 2562, 2516, 2483, 2483, 2439, 2484, 2449, 2449, 2484, 2457, 2452, 2476, 2489, 2477, 2472, 2506, 2530, 2522, 2500, 2503, 2491, 2450, 2494, 2508, 2478, 2512, 2530, 2528, 2494, 2481, 2450, 2457, 2458, 2473, 2605, 2662],
      "WindowCenter": [687.0, 686.0, 686.0, 686.0, 686.0, 685.0, 686.0, 687.0, 689.0, 689.0, 685.0, 684.0, 685.0, 686.0, 687.0, 687.0, 687.0, 687.0, 686.0, 685.0, 685.0, 686.0, 687.0, 688.0, 687.0, 688.0, 689.0, 688.0, 687.0, 686.0, 686.0, 686.0, 686.0, 686.0, 685.0, 685.0, 685.0, 684.0, 684.0, 685.0, 686.0, 687.0, 686.0, 686.0, 687.0, 687.0, 685.0, 686.0, 686.0, 687.0, 687.0, 687.0, 687.0, 686.0, 686.0, 688.0, 689.0, 687.0, 687.0, 687.0, 686.0, 685.0, 686.0, 685.0, 685.0, 684.0, 683.0, 683.0, 683.0, 683.0, 684.0, 686.0, 688.0, 687.0, 685.0, 685.0, 686.0, 687.0, 686.0, 686.0, 684.0, 683.0, 683.0, 684.0, 680.0, 691.0, 687.0, 686.0, 684.0, 682.0, 683.0, 685.0, 685.0, 684.0, 684.0, 685.0, 686.0, 687.0, 687.0, 688.0, 686.0, 686.0, 686.0, 687.0, 686.0, 686.0, 686.0, 687.0, 687.0, 687.0, 686.0, 686.0, 687.0, 687.0, 687.0, 686.0, 685.0, 684.0, 684.0, 684.0, 684.0, 685.0, 686.0, 685.0, 684.0, 683.0, 680.0, 684.0, 687.0, 686.0, 685.0, 685.0, 684.0, 684.0, 684.0, 684.0, 684.0, 683.0, 682.0, 683.0, 683.0, 682.0, 683.0, 685.0, 687.0, 687.0, 686.0, 685.0, 684.0, 683.0, 683.0, 685.0, 685.0, 685.0, 686.0, 687.0, 686.0, 685.0, 684.0, 683.0, 683.0, 684.0, 688.0, 690.0],
      "WindowWidth": [1475.0, 1472.0, 1471.0, 1471.0, 1471.0, 1470.0, 1474.0, 1475.0, 1482.0, 1482.0, 1470.0, 1468.0, 1468.0, 1471.0, 1475.0, 1475.0, 1474.0, 1473.0, 1471.0, 1469.0, 1469.0, 1472.0, 1474.0, 1476.0, 1475.0, 1478.0, 1478.0, 1477.0, 1475.0, 1473.0, 1472.0, 1472.0, 1471.0, 1472.0, 1470.0, 1469.0, 1468.0, 1467.0, 1466.0, 1470.0, 1473.0, 1474.0, 1472.0, 1472.0, 1474.0, 1474.0, 1471.0, 1472.0, 1472.0, 1475.0, 1475.0, 1475.0, 1474.0, 1473.0, 1474.0, 1478.0, 1479.0, 1476.0, 1475.0, 1475.0, 1472.0, 1470.0, 1472.0, 1471.0, 1470.0, 1467.0, 1466.0, 1464.0, 1465.0, 1464.0, 1467.0, 1473.0, 1476.0, 1474.0, 1470.0, 1471.0, 1474.0, 1474.0, 1472.0, 1470.0, 1468.0, 1465.0, 1466.0, 1469.0, 1460.0, 1485.0, 1475.0, 1471.0, 1467.0, 1463.0, 1465.0, 1468.0, 1469.0, 1468.0, 1467.0, 1470.0, 1474.0, 1476.0, 1476.0, 1478.0, 1474.0, 1472.0, 1472.0, 1475.0, 1472.0, 1472.0, 1473.0, 1476.0, 1475.0, 1474.0, 1472.0, 1473.0, 1475.0, 1476.0, 1476.0, 1473.0, 1471.0, 1468.0, 1467.0, 1467.0, 1468.0, 1471.0, 1472.0, 1471.0, 1467.0, 1466.0, 1459.0, 1469.0, 1477.0, 1473.0, 1472.0, 1469.0, 1467.0, 1469.0, 1469.0, 1468.0, 1467.0, 1465.0, 1464.0, 1465.0, 1466.0, 1463.0, 1466.0, 1472.0, 1476.0, 1475.0, 1472.0, 1471.0, 1468.0, 1465.0, 1467.0, 1470.0, 1471.0, 1472.0, 1474.0, 1476.0, 1473.0, 1470.0, 1466.0, 1466.0, 1466.0, 1469.0, 1478.0, 1484.0]
    },
    "slices": {}
  }
}