{
  "AcquisitionMatrixPE": 70,
  "AcquisitionNumber": 1,
  "AcquisitionTime": "16:20:5.507500",
  "BaseResolution": 70,
  "BodyPartExamined": "BRAIN",
  "CoilCombinationMethod": "Sum of Squares",
  "ConsistencyInfo": "N4_VE11C_LATEST_20160120",
  "ConversionSoftware": "dcm2niix",
  "ConversionSoftwareVersion": "v1.0.20211006",
  "DeviceSerialNumber": "166011",
  "EchoNumber": 2,
  "EchoTime": 0.00738,
  "EchoTime1": 0.00492,
  "EchoTime2": 0.00738,
  "FlipAngle": 60,
  "ImageOrientationPatientDICOM": [
    0.997759,
    -0.0460311,
    0.0485589,
    0.046006,
    0.99894,
    0.00163412
  ],
  "ImageType": [
    "ORIGINAL",
    "PRIMARY",
    "P",
    "ND",
    "PHASE"
  ],
  "ImagingFrequency": 123.259,
  "InPlanePhaseEncodingDirectionDICOM": "ROW",
  "InstitutionAddress": "West 130th Street 610,NY,NYC,US,10025",
  "InstitutionName": "MBBI",
  "IntendedFor": [
    "ses-2/func/sub-161_ses-2_task-catLoc_run-01_bold.nii.gz",
    "ses-2/func/sub-161_ses-2_task-catLoc_run-02_bold.nii.gz",
    "ses-2/func/sub-161_ses-2_task-vwfate_run-01_bold.nii.gz",
    "ses-2/func/sub-161_ses-2_task-vwfate_run-02_bold.nii.gz",
    "ses-2/func/sub-161_ses-2_task-vwfate_run-03_bold.nii.gz",
    "ses-2/func/sub-161_ses-2_task-vwfate_run-04_bold.nii.gz",
    "ses-2/func/sub-161_ses-2_task-vwfate_run-05_bold.nii.gz",
    "ses-2/func/sub-161_ses-2_task-vwfate_run-06_bold.nii.gz"
  ],
  "MRAcquisitionType": "2D",
  "MagneticFieldStrength": 3,
  "Manufacturer": "Siemens",
  "ManufacturersModelName": "Prisma",
  "MatrixCoilMode": "SENSE",
  "Modality": "MR",
  "MultibandAccelerationFactor": 2,
  "PartialFourier": 1,
  "PatientPosition": "HFS",
  "PercentPhaseFOV": 100,
  "PercentSampling": 100,
  "PhaseEncodingDirection": "i",
  "PhaseEncodingSteps": 70,
  "PhaseResolution": 1,
  "PixelBandwidth": 595,
  "ProcedureStepDescription": "White^Word_recognition",
  "ProtocolName": "fmap_gre_field_mapping",
  "PulseSequenceDetails": "%SiemensSeq%\\gre_field_mapping",
  "ReceiveCoilActiveElements": "HC1-7",
  "ReceiveCoilName": "HeadNeck_64",
  "ReconMatrixPE": 70,
  "RepetitionTime": 0.52,
  "SAR": 0.100331,
  "ScanningSequence": "GR",
  "SequenceName": "*fm2d2r",
  "SequenceVariant": "SP",
  "SeriesDescription": "fmap_gre_field_mapping",
  "SeriesNumber": 17,
  "ShimSetting": [
    -1134,
    -1375,
    631,
    488,
    -85,
    -103,
    -58,
    11
  ],
  "SliceThickness": 3,
  "SliceTiming": [
    0.25,
    0,
    0.26562,
    0.01562,
    0.28125,
    0.01562,
    0.29688,
    0.03125,
    0.3125,
    0.04688,
    0.3125,
    0.0625,
    0.32812,
    0.0625,
    0.34375,
    0.07812,
    0.35938,
    0.09375,
    0.375,
    0.10938,
    0.375,
    0.125,
    0.39062,
    0.125,
    0.40625,
    0.14062,
    0.42188,
    0.15625,
    0.4375,
    0.17188,
    0.4375,
    0.1875,
    0.45312,
    0.1875,
    0.46875,
    0.20312,
    0.48438,
    0.21875,
    0.5,
    0.23438,
    0.5,
    0.25
  ],
  "SoftwareVersions": "syngo MR E11",
  "SpacingBetweenSlices": 3,
  "StationName": "AWP166011",
  "TxRefAmp": 218.627,
  "dcmmeta_affine": [
    [
      -2.9932773113250732,
      0.13801799714565277,
      0.14574813842773438,
      102.22657012939453
    ],
    [
      0.13809315860271454,
      2.996819496154785,
      -0.0018100738525390625,
      -84.10446166992188
    ],
    [
      0.14567673206329346,
      -0.004902358166873455,
      2.9964561462402344,
      -69.37116241455078
    ],
    [
      0.0,
      0.0,
      0.0,
      1.0
    ]
  ],
  "dcmmeta_reorient_transform": [
    [
      0.0,
      -1.0,
      0.0,
      69.0
    ],
    [
      1.0,
      0.0,
      0.0,
      0.0
    ],
    [
      0.0,
      0.0,
      -1.0,
      41.0
    ],
    [
      0.0,
      0.0,
      0.0,
      1.0
    ]
  ],
  "dcmmeta_shape": [
    70,
    70,
    42
  ],
  "dcmmeta_slice_dim": 2,
  "dcmmeta_version": 0.6,
  "global": {
    "const": {
      "AcquisitionMatrix": [
        0,
        70,
        70,
        0
      ],
      "AcquisitionNumber": 1,
      "AngioFlag": "N",
      "BitsAllocated": 16,
      "BitsStored": 12,
      "BodyPartExamined": "BRAIN",
      "Columns": 70,
      "EchoNumbers": 2,
      "EchoTime": 7.38,
      "EchoTrainLength": 0,
      "FlipAngle": 60.0,
      "HighBit": 11,
      "ImageOrientationPatient": [
        0.99775907621701,
        -0.0460310539846,
        0.04855891159854,
        0.04600599797512,
        0.99893982691855,
        0.0016341194145
      ],
      "ImageType": [
        "ORIGINAL",
        "PRIMARY",
        "P",
        "ND"
      ],
      "ImagedNucleus": "1H",
      "ImagingFrequency": 123.259072,
      "InPlanePhaseEncodingDirection": "ROW",
      "MRAcquisitionType": "2D",
      "MagneticFieldStrength": 3.0,
      "Manufacturer": "SIEMENS",
      "ManufacturerModelName": "Prisma",
      "Modality": "MR",
      "NumberOfAverages": 1.0,
      "NumberOfPhaseEncodingSteps": 70,
      "PercentPhaseFieldOfView": 100.0,
      "PercentSampling": 100.0,
      "PerformedProcedureStepStartTime": "144432.138000",
      "PhotometricInterpretation": "MONOCHROME2",
      "PixelBandwidth": 595.0,
      "PixelRepresentation": 0,
      "PixelSpacing": [
        3.0,
        3.0
      ],
      "ProtocolName": "fmap_gre_field_mapping",
      "RepetitionTime": 520.0,
      "RescaleIntercept": -4096.0,
      "RescaleSlope": 2.0,
      "RescaleType": "US",
      "Rows": 70,
      "SAR": 0.10033065812145,
      "SamplesPerPixel": 1,
      "ScanningSequence": "GR",
      "SequenceName": "*fm2d2r",
      "SequenceVariant": "SP",
      "SeriesDescription": "fmap_gre_field_mapping",
      "SeriesNumber": 17,
      "SeriesTime": "162117.928000",
      "SliceThickness": 3.0,
      "SoftwareVersions": "syngo MR E11",
      "SpacingBetweenSlices": 3.0,
      "SpecificCharacterSet": "ISO_IR 100",
      "StudyID": "2",
      "StudyTime": "144432.099000",
      "TransmitCoilName": "Body",
      "VariableFlipAngleFlag": "N",
      "WindowCenterWidthExplanation": "Algo1",
      "dBdt": 0.0
    },
    "slices": {
      "AcquisitionTime": [
        "162005.507500",
        "162005.247500",
        "162005.520000",
        "162005.260000",
        "162005.532500",
        "162005.272500",
        "162005.545000",
        "162005.285000",
        "162005.555000",
        "162005.295000",
        "162005.567500",
        "162005.307500",
        "162005.580000",
        "162005.320000",
        "162005.592500",
        "162005.332500",
        "162005.605000",
        "162005.345000",
        "162005.617500",
        "162005.357500",
        "162005.630000",
        "162005.370000",
        "162005.642500",
        "162005.382500",
        "162005.655000",
        "162005.395000",
        "162005.667500",
        "162005.407500",
        "162005.680000",
        "162005.420000",
        "162005.692500",
        "162005.432500",
        "162005.705000",
        "162005.445000",
        "162005.717500",
        "162005.457500",
        "162005.730000",
        "162005.470000",
        "162005.742500",
        "162005.482500",
        "162005.755000",
        "162005.495000"
      ],
      "ContentTime": [
        "162117.990000",
        "162117.930000",
        "162117.992000",
        "162117.933000",
        "162117.994000",
        "162117.935000",
        "162117.996000",
        "162117.937000",
        "162117.998000",
        "162117.944000",
        "162118.002000",
        "162117.946000",
        "162118.004000",
        "162117.948000",
        "162118.006000",
        "162117.950000",
        "162118.008000",
        "162117.953000",
        "162118.010000",
        "162117.955000",
        "162118.012000",
        "162117.966000",
        "162118.014000",
        "162117.968000",
        "162118.016000",
        "162117.970000",
        "162118.018000",
        "162117.972000",
        "162118.020000",
        "162117.974000",
        "162118.023000",
        "162117.977000",
        "162118.025000",
        "162117.979000",
        "162118.027000",
        "162117.982000",
        "162118.029000",
        "162117.984000",
        "162118.031000",
        "162117.986000",
        "162118.033000",
        "162117.988000"
      ],
      "CsaImage.ICE_Dims": [
        "X_2_1_1_1_1_1_22_1_1_1_1_57",
        "X_2_1_1_1_1_1_1_1_1_2_1_57",
        "X_2_1_1_1_1_1_23_1_1_3_1_57",
        "X_2_1_1_1_1_1_2_1_1_4_1_57",
        "X_2_1_1_1_1_1_24_1_1_5_1_57",
        "X_2_1_1_1_1_1_3_1_1_6_1_57",
        "X_2_1_1_1_1_1_25_1_1_7_1_57",
        "X_2_1_1_1_1_1_4_1_1_8_1_57",
        "X_2_1_1_1_1_1_26_1_1_9_1_57",
        "X_2_1_1_1_1_1_5_1_1_10_1_57",
        "X_2_1_1_1_1_1_27_1_1_11_1_57",
        "X_2_1_1_1_1_1_6_1_1_12_1_57",
        "X_2_1_1_1_1_1_28_1_1_13_1_57",
        "X_2_1_1_1_1_1_7_1_1_14_1_57",
        "X_2_1_1_1_1_1_29_1_1_15_1_57",
        "X_2_1_1_1_1_1_8_1_1_16_1_57",
        "X_2_1_1_1_1_1_30_1_1_17_1_57",
        "X_2_1_1_1_1_1_9_1_1_18_1_57",
        "X_2_1_1_1_1_1_31_1_1_19_1_57",
        "X_2_1_1_1_1_1_10_1_1_20_1_57",
        "X_2_1_1_1_1_1_32_1_1_21_1_57",
        "X_2_1_1_1_1_1_11_1_1_22_1_57",
        "X_2_1_1_1_1_1_33_1_1_23_1_57",
        "X_2_1_1_1_1_1_12_1_1_24_1_57",
        "X_2_1_1_1_1_1_34_1_1_25_1_57",
        "X_2_1_1_1_1_1_13_1_1_26_1_57",
        "X_2_1_1_1_1_1_35_1_1_27_1_57",
        "X_2_1_1_1_1_1_14_1_1_28_1_57",
        "X_2_1_1_1_1_1_36_1_1_29_1_57",
        "X_2_1_1_1_1_1_15_1_1_30_1_57",
        "X_2_1_1_1_1_1_37_1_1_31_1_57",
        "X_2_1_1_1_1_1_16_1_1_32_1_57",
        "X_2_1_1_1_1_1_38_1_1_33_1_57",
        "X_2_1_1_1_1_1_17_1_1_34_1_57",
        "X_2_1_1_1_1_1_39_1_1_35_1_57",
        "X_2_1_1_1_1_1_18_1_1_36_1_57",
        "X_2_1_1_1_1_1_40_1_1_37_1_57",
        "X_2_1_1_1_1_1_19_1_1_38_1_57",
        "X_2_1_1_1_1_1_41_1_1_39_1_57",
        "X_2_1_1_1_1_1_20_1_1_40_1_57",
        "X_2_1_1_1_1_1_42_1_1_41_1_57",
        "X_2_1_1_1_1_1_21_1_1_42_1_57"
      ],
      "CsaImage.ProtocolSliceNumber": [
        0,
        1,
        2,
        3,
        4,
        5,
        6,
        7,
        8,
        9,
        10,
        11,
        12,
        13,
        14,
        15,
        16,
        17,
        18,
        19,
        20,
        21,
        22,
        23,
        24,
        25,
        26,
        27,
        28,
        29,
        30,
        31,
        32,
        33,
        34,
        35,
        36,
        37,
        38,
        39,
        40,
        41
      ],
      "CsaImage.SlicePosition_PCS": [
        [
          -111.74981849,
          -122.67610674,
          -69.70946198
        ],
        [
          -111.89556639,
          -122.67429666,
          -66.71300584
        ],
        [
          -112.04131429,
          -122.67248659,
          -63.71654587
        ],
        [
          -112.18706219,
          -122.67067461,
          -60.72008973
        ],
        [
          -112.33281033,
          -122.66886453,
          -57.72363358
        ],
        [
          -112.47855823,
          -122.66705446,
          -54.72717744
        ],
        [
          -112.62430613,
          -122.66524248,
          -51.73072129
        ],
        [
          -112.77005403,
          -122.6634324,
          -48.73426133
        ],
        [
          -112.91580217,
          -122.66162233,
          -45.73780518
        ],
        [
          -113.06155007,
          -122.65981226,
          -42.74134904
        ],
        [
          -113.20729797,
          -122.65800027,
          -39.74489289
        ],
        [
          -113.35304587,
          -122.6561902,
          -36.74843484
        ],
        [
          -113.49879377,
          -122.65438013,
          -33.75197869
        ],
        [
          -113.64454191,
          -122.65256815,
          -30.75552064
        ],
        [
          -113.79028957,
          -122.65075807,
          -27.75906449
        ],
        [
          -113.93603771,
          -122.648948,
          -24.76260644
        ],
        [
          -114.08178585,
          -122.64713602,
          -21.76615029
        ],
        [
          -114.22753351,
          -122.64532594,
          -18.76969319
        ],
        [
          -114.37328165,
          -122.64351587,
          -15.77323609
        ],
        [
          -114.51902931,
          -122.6417058,
          -12.77677947
        ],
        [
          -114.66477745,
          -122.63989381,
          -9.78032237
        ],
        [
          -114.81052558,
          -122.63808374,
          -6.78386563
        ],
        [
          -114.95627325,
          -122.63627367,
          -3.78740864
        ],
        [
          -115.10202138,
          -122.63446169,
          -0.79095154
        ],
        [
          -115.24776952,
          -122.63265161,
          2.20550508
        ],
        [
          -115.39351719,
          -122.63084154,
          5.20196265
        ],
        [
          -115.53926532,
          -122.62903146,
          8.1984188
        ],
        [
          -115.68501299,
          -122.62721948,
          11.19487685
        ],
        [
          -115.83076112,
          -122.62540941,
          14.191333
        ],
        [
          -115.97650926,
          -122.62359933,
          17.18778915
        ],
        [
          -116.12225692,
          -122.62178735,
          20.1842472
        ],
        [
          -116.26800506,
          -122.61997728,
          23.18070335
        ],
        [
          -116.41375272,
          -122.61816721,
          26.1771614
        ],
        [
          -116.55950086,
          -122.61635713,
          29.17361755
        ],
        [
          -116.705249,
          -122.61454515,
          32.17007369
        ],
        [
          -116.85099666,
          -122.61273508,
          35.16652984
        ],
        [
          -116.9967448,
          -122.610925,
          38.1629898
        ],
        [
          -117.14249246,
          -122.60911302,
          41.15944595
        ],
        [
          -117.2882406,
          -122.60730295,
          44.15590209
        ],
        [
          -117.43398874,
          -122.60549287,
          47.15235824
        ],
        [
          -117.5797364,
          -122.60368089,
          50.1488182
        ],
        [
          -117.72548454,
          -122.60187082,
          53.14527435
        ]
      ],
      "CsaImage.TimeAfterStart": [
        0.7825,
        0.5225,
        0.795,
        0.535,
        0.8075,
        0.5475,
        0.82,
        0.56,
        0.83,
        0.57,
        0.8425,
        0.5825,
        0.855,
        0.595,
        0.8675,
        0.6075,
        0.88,
        0.62,
        0.8925,
        0.6325,
        0.905,
        0.645,
        0.9175,
        0.6575,
        0.93,
        0.67,
        0.9425,
        0.6825,
        0.955,
        0.695,
        0.9675,
        0.7075,
        0.98,
        0.72,
        0.9925,
        0.7325,
        1.005,
        0.745,
        1.0175,
        0.7575,
        1.03,
        0.77
      ],
      "ImagePositionPatient": [
        [
          -111.74981849269,
          -122.67610673545,
          -69.709461981955
        ],
        [
          -111.8955663927,
          -122.6742966616,
          -66.713005835715
        ],
        [
          -112.04131429271,
          -122.67248658775,
          -63.716545874778
        ],
        [
          -112.18706219272,
          -122.67067460655,
          -60.720089728537
        ],
        [
          -112.33281033114,
          -122.6688645327,
          -57.723633582297
        ],
        [
          -112.47855823115,
          -122.66705445884,
          -54.727177436057
        ],
        [
          -112.62430613116,
          -122.66524247764,
          -51.730721289817
        ],
        [
          -112.77005403117,
          -122.66343240379,
          -48.734261328879
        ],
        [
          -112.9158021696,
          -122.66162232994,
          -45.737805182639
        ],
        [
          -113.06155006961,
          -122.65981225608,
          -42.741349036399
        ],
        [
          -113.20729796962,
          -122.65800027488,
          -39.744892890159
        ],
        [
          -113.35304586963,
          -122.65619020103,
          -36.74843483657
        ],
        [
          -113.49879376964,
          -122.65438012718,
          -33.751978690329
        ],
        [
          -113.64454190806,
          -122.65256814598,
          -30.755520636741
        ],
        [
          -113.79028956965,
          -122.65075807212,
          -27.7590644905
        ],
        [
          -113.93603770808,
          -122.64894799827,
          -24.762606436912
        ],
        [
          -114.08178584651,
          -122.64713601707,
          -21.766150290671
        ],
        [
          -114.2275335081,
          -122.64532594322,
          -18.769693190757
        ],
        [
          -114.37328164653,
          -122.64351586937,
          -15.773236090842
        ],
        [
          -114.51902930812,
          -122.64170579551,
          -12.776779467765
        ],
        [
          -114.66477744655,
          -122.63989381431,
          -9.7803223678502
        ],
        [
          -114.81052558497,
          -122.63808374046,
          -6.7838656255635
        ],
        [
          -114.95627324656,
          -122.63627366661,
          -3.7874086448583
        ],
        [
          -115.10202138499,
          -122.63446168541,
          -0.7909515449437
        ],
        [
          -115.24776952342,
          -122.63265161155,
          2.2055050781337
        ],
        [
          -115.39351718501,
          -122.6308415377,
          5.2019626548854
        ],
        [
          -115.53926532344,
          -122.62903146385,
          8.1984188011256
        ],
        [
          -115.68501298503,
          -122.62721948265,
          11.194876854714
        ],
        [
          -115.83076112346,
          -122.62540940879,
          14.191333000955
        ],
        [
          -115.97650926188,
          -122.62359933494,
          17.187789147195
        ],
        [
          -116.12225692347,
          -122.62178735374,
          20.184247200784
        ],
        [
          -116.2680050619,
          -122.61997727989,
          23.180703347024
        ],
        [
          -116.41375272349,
          -122.61816720604,
          26.177161400613
        ],
        [
          -116.55950086192,
          -122.61635713218,
          29.173617546853
        ],
        [
          -116.70524900035,
          -122.61454515098,
          32.170073693093
        ],
        [
          -116.85099666194,
          -122.61273507713,
          35.166529839334
        ],
        [
          -116.99674480037,
          -122.61092500328,
          38.162989800271
        ],
        [
          -117.14249246196,
          -122.60911302208,
          41.159445946511
        ],
        [
          -117.28824060038,
          -122.60730294822,
          44.155902092752
        ],
        [
          -117.43398873881,
          -122.60549287437,
          47.152358238992
        ],
        [
          -117.5797364004,
          -122.60368089317,
          50.148818199929
        ],
        [
          -117.72548453883,
          -122.60187081932,
          53.14527434617
        ]
      ],
      "InstanceCreationTime": [
        "162117.990000",
        "162117.930000",
        "162117.992000",
        "162117.933000",
        "162117.994000",
        "162117.935000",
        "162117.996000",
        "162117.937000",
        "162117.998000",
        "162117.944000",
        "162118.002000",
        "162117.946000",
        "162118.004000",
        "162117.948000",
        "162118.006000",
        "162117.950000",
        "162118.008000",
        "162117.953000",
        "162118.010000",
        "162117.955000",
        "162118.012000",
        "162117.966000",
        "162118.014000",
        "162117.968000",
        "162118.016000",
        "162117.970000",
        "162118.018000",
        "162117.972000",
        "162118.020000",
        "162117.974000",
        "162118.023000",
        "162117.977000",
        "162118.025000",
        "162117.979000",
        "162118.027000",
        "162117.982000",
        "162118.029000",
        "162117.984000",
        "162118.031000",
        "162117.986000",
        "162118.033000",
        "162117.988000"
      ],
      "InstanceNumber": [
        1,
        2,
        3,
        4,
        5,
        6,
        7,
        8,
        9,
        10,
        11,
        12,
        13,
        14,
        15,
        16,
        17,
        18,
        19,
        20,
        21,
        22,
        23,
        24,
        25,
        26,
        27,
        28,
        29,
        30,
        31,
        32,
        33,
        34,
        35,
        36,
        37,
        38,
        39,
        40,
        41,
        42
      ],
      "LargestImagePixelValue": [
        4094,
        4093,
        4090,
        4095,
        4089,
        4093,
        4094,
        4085,
        4085,
        4092,
        4093,
        4085,
        4087,
        4092,
        4090,
        4090,
        4091,
        4091,
        4091,
        4088,
        4087,
        4090,
        4095,
        4086,
        4062,
        4082,
        4069,
        4074,
        4092,
        4083,
        4086,
        4085,
        4093,
        4084,
        4091,
        4092,
        4090,
        4086,
        4094,
        4095,
        4090,
        4092
      ],
      "SliceLocation": [
        -64.272071918782,
        -61.272072724938,
        -58.272069720902,
        -55.272070525907,
        -52.272071320479,
        -49.272072126635,
        -46.27207293164,
        -43.272069927604,
        -40.272070722177,
        -37.272071528333,
        -34.272072333338,
        -31.272071234398,
        -28.272072040554,
        -25.272070928879,
        -22.272071746618,
        -19.272070636095,
        -16.272071429517,
        -13.272071294708,
        -10.272071136733,
        -7.2720714781978,
        -4.2720713190715,
        -1.272071518302,
        1.7279284974386,
        4.7279286565648,
        7.7279283382659,
        10.727928949349,
        13.727928154776,
        16.727929243284,
        19.727928448711,
        22.727927654138,
        25.727928742647,
        28.727927948074,
        31.727929035431,
        34.727928240858,
        37.727927447436,
        40.727926629697,
        43.727929645316,
        46.727928828728,
        49.727928034156,
        52.727927239583,
        55.727930233187,
        58.727929438614
      ],
      "SmallestImagePixelValue": [
        2,
        1,
        0,
        0,
        7,
        7,
        2,
        0,
        1,
        20,
        2,
        22,
        3,
        7,
        0,
        4,
        12,
        24,
        4,
        18,
        3,
        15,
        0,
        32,
        10,
        11,
        0,
        13,
        18,
        18,
        11,
        11,
        2,
        8,
        4,
        0,
        0,
        1,
        4,
        0,
        0,
        0
      ],
      "WindowCenter": [
        -234.0,
        -212.0,
        -74.0,
        -40.0,
        -84.0,
        -138.0,
        -96.0,
        -152.0,
        -184.0,
        -186.0,
        -46.0,
        -20.0,
        -34.0,
        -196.0,
        -222.0,
        -124.0,
        -278.0,
        -152.0,
        -270.0,
        -246.0,
        -220.0,
        -206.0,
        -188.0,
        -196.0,
        -200.0,
        -184.0,
        -144.0,
        -120.0,
        -104.0,
        -118.0,
        -126.0,
        -134.0,
        -158.0,
        -148.0,
        -168.0,
        -174.0,
        -18.0,
        -218.0,
        -138.0,
        -168.0,
        -182.0,
        -204.0
      ],
      "WindowWidth": [
        6092.0,
        6044.0,
        6070.0,
        5982.0,
        5934.0,
        5794.0,
        5808.0,
        5570.0,
        5474.0,
        4988.0,
        5428.0,
        5484.0,
        5382.0,
        4542.0,
        4554.0,
        5050.0,
        4576.0,
        4974.0,
        4564.0,
        4542.0,
        4524.0,
        4502.0,
        4500.0,
        4504.0,
        4512.0,
        4498.0,
        4486.0,
        4474.0,
        4474.0,
        4504.0,
        4508.0,
        4520.0,
        4554.0,
        4552.0,
        4570.0,
        4592.0,
        5310.0,
        4696.0,
        5354.0,
        5472.0,
        5822.0,
        5916.0
      ]
    }
  }
}