{
  "AcquisitionMatrixPE": 70,
  "AcquisitionNumber": 1,
  "AcquisitionTime": "16:15:19.792500",
  "BaseResolution": 70,
  "BodyPartExamined": "BRAIN",
  "CoilCombinationMethod": "Sum of Squares",
  "ConsistencyInfo": "N4_VE11C_LATEST_20160120",
  "ConversionSoftware": "dcm2niix",
  "ConversionSoftwareVersion": "v1.0.20211006",
  "DeviceSerialNumber": "166011",
  "EchoNumber": 2,
  "EchoTime": 0.00738,
  "EchoTime1": 0.00492,
  "EchoTime2": 0.00738,
  "FlipAngle": 60,
  "ImageOrientationPatientDICOM": [
    0.999333,
    -0.0258222,
    0.0258217,
    0.0268666,
    0.9988,
    -0.0409546
  ],
  "ImageType": [
    "ORIGINAL",
    "PRIMARY",
    "P",
    "ND",
    "PHASE"
  ],
  "ImagingFrequency": 123.26,
  "InPlanePhaseEncodingDirectionDICOM": "ROW",
  "InstitutionAddress": "West 130th Street 610,NY,NYC,US,10025",
  "InstitutionName": "MBBI",
  "IntendedFor": [
    "ses-1/func/sub-159_ses-1_task-catLoc_run-01_bold.nii.gz",
    "ses-1/func/sub-159_ses-1_task-catLoc_run-02_bold.nii.gz",
    "ses-1/func/sub-159_ses-1_task-vwfate_run-01_bold.nii.gz",
    "ses-1/func/sub-159_ses-1_task-vwfate_run-02_bold.nii.gz",
    "ses-1/func/sub-159_ses-1_task-vwfate_run-03_bold.nii.gz",
    "ses-1/func/sub-159_ses-1_task-vwfate_run-04_bold.nii.gz",
    "ses-1/func/sub-159_ses-1_task-vwfate_run-05_bold.nii.gz",
    "ses-1/func/sub-159_ses-1_task-vwfate_run-06_bold.nii.gz"
  ],
  "MRAcquisitionType": "2D",
  "MagneticFieldStrength": 3,
  "Manufacturer": "Siemens",
  "ManufacturersModelName": "Prisma",
  "MatrixCoilMode": "SENSE",
  "Modality": "MR",
  "PartialFourier": 1,
  "PatientPosition": "HFS",
  "PercentPhaseFOV": 100,
  "PercentSampling": 100,
  "PhaseEncodingDirection": "i",
  "PhaseEncodingSteps": 70,
  "PhaseResolution": 1,
  "PixelBandwidth": 595,
  "ProcedureStepDescription": "White^Word_recognition",
  "ProtocolName": "fmap_gre_field_mapping",
  "PulseSequenceDetails": "%SiemensSeq%\\gre_field_mapping",
  "ReceiveCoilActiveElements": "HC1-7",
  "ReceiveCoilName": "HeadNeck_64",
  "ReconMatrixPE": 70,
  "RepetitionTime": 0.52,
  "SAR": 0.0831774,
  "ScanningSequence": "GR",
  "SequenceName": "*fm2d2r",
  "SequenceVariant": "SP",
  "SeriesDescription": "fmap_gre_field_mapping",
  "SeriesNumber": 17,
  "ShimSetting": [
    -1142,
    -1361,
    673,
    558,
    -79,
    -79,
    136,
    11
  ],
  "SliceThickness": 3,
  "SliceTiming": [
    0.26562,
    0,
    0.28125,
    0.01562,
    0.28125,
    0.03125,
    0.29688,
    0.03125,
    0.3125,
    0.04688,
    0.32812,
    0.0625,
    0.34375,
    0.07812,
    0.34375,
    0.09375,
    0.35938,
    0.09375,
    0.375,
    0.10938,
    0.39062,
    0.125,
    0.40625,
    0.14062,
    0.40625,
    0.15625,
    0.42188,
    0.15625,
    0.4375,
    0.17188,
    0.45312,
    0.1875,
    0.46875,
    0.20312,
    0.46875,
    0.21875,
    0.48438,
    0.21875,
    0.5,
    0.23438,
    0.51562,
    0.25
  ],
  "SoftwareVersions": "syngo MR E11",
  "SpacingBetweenSlices": 3,
  "StationName": "AWP166011",
  "TxRefAmp": 228.68,
  "dcmmeta_affine": [
    [
      -2.9979989528656006,
      0.0805998370051384,
      0.07419967651367188,
      105.35188293457031
    ],
    [
      0.07746649533510208,
      2.996399164199829,
      -0.1248626708984375,
      -72.41492462158203
    ],
    [
      0.07746519893407822,
      0.12286388874053955,
      2.996479034423828,
      -67.89646911621094
    ],
    [
      0.0,
      0.0,
      0.0,
      1.0
    ]
  ],
  "dcmmeta_reorient_transform": [
    [
      0.0,
      -1.0,
      0.0,
      69.0
    ],
    [
      1.0,
      0.0,
      0.0,
      0.0
    ],
    [
      0.0,
      0.0,
      -1.0,
      41.0
    ],
    [
      0.0,
      0.0,
      0.0,
      1.0
    ]
  ],
  "dcmmeta_shape": [
    70,
    70,
    42
  ],
  "dcmmeta_slice_dim": 2,
  "dcmmeta_version": 0.6,
  "global": {
    "const": {
      "AcquisitionMatrix": [
        0,
        70,
        70,
        0
      ],
      "AcquisitionNumber": 1,
      "AngioFlag": "N",
      "BitsAllocated": 16,
      "BitsStored": 12,
      "BodyPartExamined": "BRAIN",
      "Columns": 70,
      "EchoNumbers": 2,
      "EchoTime": 7.38,
      "EchoTrainLength": 0,
      "FlipAngle": 60.0,
      "HighBit": 11,
      "ImageOrientationPatient": [
        0.99933300445954,
        -0.025822165796,
        0.02582173409116,
        0.02686661171538,
        0.99879973144207,
        -0.0409546291179
      ],
      "ImageType": [
        "ORIGINAL",
        "PRIMARY",
        "P",
        "ND"
      ],
      "ImagedNucleus": "1H",
      "ImagingFrequency": 123.259507,
      "InPlanePhaseEncodingDirection": "ROW",
      "MRAcquisitionType": "2D",
      "MagneticFieldStrength": 3.0,
      "Manufacturer": "SIEMENS",
      "ManufacturerModelName": "Prisma",
      "Modality": "MR",
      "NumberOfAverages": 1.0,
      "NumberOfPhaseEncodingSteps": 70,
      "PercentPhaseFieldOfView": 100.0,
      "PercentSampling": 100.0,
      "PerformedProcedureStepStartTime": "150624.384000",
      "PhotometricInterpretation": "MONOCHROME2",
      "PixelBandwidth": 595.0,
      "PixelRepresentation": 0,
      "PixelSpacing": [
        3.0,
        3.0
      ],
      "ProtocolName": "fmap_gre_field_mapping",
      "RepetitionTime": 520.0,
      "RescaleIntercept": -4096.0,
      "RescaleSlope": 2.0,
      "RescaleType": "US",
      "Rows": 70,
      "SAR": 0.08317740870507,
      "SamplesPerPixel": 1,
      "ScanningSequence": "GR",
      "SequenceName": "*fm2d2r",
      "SequenceVariant": "SP",
      "SeriesDescription": "fmap_gre_field_mapping",
      "SeriesNumber": 17,
      "SeriesTime": "161632.381000",
      "SliceThickness": 3.0,
      "SoftwareVersions": "syngo MR E11",
      "SpacingBetweenSlices": 3.0,
      "SpecificCharacterSet": "ISO_IR 100",
      "StudyID": "1",
      "StudyTime": "150624.300000",
      "TransmitCoilName": "Body",
      "VariableFlipAngleFlag": "N",
      "WindowCenterWidthExplanation": "Algo1",
      "dBdt": 0.0
    },
    "slices": {
      "AcquisitionTime": [
        "161519.792500",
        "161519.532500",
        "161519.805000",
        "161519.545000",
        "161519.817500",
        "161519.557500",
        "161519.830000",
        "161519.570000",
        "161519.842500",
        "161519.582500",
        "161519.855000",
        "161519.595000",
        "161519.867500",
        "161519.607500",
        "161519.880000",
        "161519.620000",
        "161519.892500",
        "161519.632500",
        "161519.905000",
        "161519.645000",
        "161519.917500",
        "161519.657500",
        "161519.930000",
        "161519.670000",
        "161519.942500",
        "161519.682500",
        "161519.955000",
        "161519.695000",
        "161519.967500",
        "161519.707500",
        "161519.980000",
        "161519.720000",
        "161519.992500",
        "161519.732500",
        "161520.005000",
        "161519.745000",
        "161520.017500",
        "161519.757500",
        "161520.030000",
        "161519.770000",
        "161520.040000",
        "161519.780000"
      ],
      "ContentTime": [
        "161632.447000",
        "161632.389000",
        "161632.449000",
        "161632.392000",
        "161632.451000",
        "161632.394000",
        "161632.453000",
        "161632.396000",
        "161632.455000",
        "161632.404000",
        "161632.457000",
        "161632.407000",
        "161632.459000",
        "161632.409000",
        "161632.462000",
        "161632.411000",
        "161632.464000",
        "161632.413000",
        "161632.466000",
        "161632.421000",
        "161632.468000",
        "161632.423000",
        "161632.470000",
        "161632.425000",
        "161632.472000",
        "161632.427000",
        "161632.475000",
        "161632.429000",
        "161632.477000",
        "161632.431000",
        "161632.479000",
        "161632.434000",
        "161632.481000",
        "161632.436000",
        "161632.483000",
        "161632.438000",
        "161632.485000",
        "161632.440000",
        "161632.488000",
        "161632.442000",
        "161632.490000",
        "161632.444000"
      ],
      "CsaImage.ICE_Dims": [
        "X_2_1_1_1_1_1_22_1_1_1_1_94",
        "X_2_1_1_1_1_1_1_1_1_2_1_94",
        "X_2_1_1_1_1_1_23_1_1_3_1_94",
        "X_2_1_1_1_1_1_2_1_1_4_1_94",
        "X_2_1_1_1_1_1_24_1_1_5_1_94",
        "X_2_1_1_1_1_1_3_1_1_6_1_94",
        "X_2_1_1_1_1_1_25_1_1_7_1_94",
        "X_2_1_1_1_1_1_4_1_1_8_1_94",
        "X_2_1_1_1_1_1_26_1_1_9_1_94",
        "X_2_1_1_1_1_1_5_1_1_10_1_94",
        "X_2_1_1_1_1_1_27_1_1_11_1_94",
        "X_2_1_1_1_1_1_6_1_1_12_1_94",
        "X_2_1_1_1_1_1_28_1_1_13_1_94",
        "X_2_1_1_1_1_1_7_1_1_14_1_94",
        "X_2_1_1_1_1_1_29_1_1_15_1_94",
        "X_2_1_1_1_1_1_8_1_1_16_1_94",
        "X_2_1_1_1_1_1_30_1_1_17_1_94",
        "X_2_1_1_1_1_1_9_1_1_18_1_94",
        "X_2_1_1_1_1_1_31_1_1_19_1_94",
        "X_2_1_1_1_1_1_10_1_1_20_1_94",
        "X_2_1_1_1_1_1_32_1_1_21_1_94",
        "X_2_1_1_1_1_1_11_1_1_22_1_94",
        "X_2_1_1_1_1_1_33_1_1_23_1_94",
        "X_2_1_1_1_1_1_12_1_1_24_1_94",
        "X_2_1_1_1_1_1_34_1_1_25_1_94",
        "X_2_1_1_1_1_1_13_1_1_26_1_94",
        "X_2_1_1_1_1_1_35_1_1_27_1_94",
        "X_2_1_1_1_1_1_14_1_1_28_1_94",
        "X_2_1_1_1_1_1_36_1_1_29_1_94",
        "X_2_1_1_1_1_1_15_1_1_30_1_94",
        "X_2_1_1_1_1_1_37_1_1_31_1_94",
        "X_2_1_1_1_1_1_16_1_1_32_1_94",
        "X_2_1_1_1_1_1_38_1_1_33_1_94",
        "X_2_1_1_1_1_1_17_1_1_34_1_94",
        "X_2_1_1_1_1_1_39_1_1_35_1_94",
        "X_2_1_1_1_1_1_18_1_1_36_1_94",
        "X_2_1_1_1_1_1_40_1_1_37_1_94",
        "X_2_1_1_1_1_1_19_1_1_38_1_94",
        "X_2_1_1_1_1_1_41_1_1_39_1_94",
        "X_2_1_1_1_1_1_20_1_1_40_1_94",
        "X_2_1_1_1_1_1_42_1_1_41_1_94",
        "X_2_1_1_1_1_1_21_1_1_42_1_94"
      ],
      "CsaImage.ProtocolSliceNumber": [
        0,
        1,
        2,
        3,
        4,
        5,
        6,
        7,
        8,
        9,
        10,
        11,
        12,
        13,
        14,
        15,
        16,
        17,
        18,
        19,
        20,
        21,
        22,
        23,
        24,
        25,
        26,
        27,
        28,
        29,
        30,
        31,
        32,
        33,
        34,
        35,
        36,
        37,
        38,
        39,
        40,
        41
      ],
      "CsaImage.SlicePosition_PCS": [
        [
          -110.91327054,
          -134.33664036,
          -59.41897678
        ],
        [
          -110.98747021,
          -134.21177769,
          -56.42249393
        ],
        [
          -111.06166965,
          -134.08691312,
          -53.42601489
        ],
        [
          -111.13586933,
          -133.96205044,
          -50.42953205
        ],
        [
          -111.210069,
          -133.83718587,
          -47.4330492
        ],
        [
          -111.28426844,
          -133.7123232,
          -44.43656635
        ],
        [
          -111.35846812,
          -133.58746052,
          -41.44008731
        ],
        [
          -111.4326678,
          -133.46259785,
          -38.44360446
        ],
        [
          -111.50686747,
          -133.33773328,
          -35.44712161
        ],
        [
          -111.58106691,
          -133.2128706,
          -32.45063877
        ],
        [
          -111.65526659,
          -133.08800793,
          -29.45415782
        ],
        [
          -111.72946626,
          -132.96314336,
          -26.45767688
        ],
        [
          -111.80366594,
          -132.83828068,
          -23.46119403
        ],
        [
          -111.87786562,
          -132.71341801,
          -20.46471309
        ],
        [
          -111.95206529,
          -132.58855534,
          -17.46823024
        ],
        [
          -112.02626449,
          -132.46369076,
          -14.4717493
        ],
        [
          -112.10046417,
          -132.33882809,
          -11.4752674
        ],
        [
          -112.17466385,
          -132.21396542,
          -8.47878551
        ],
        [
          -112.24886352,
          -132.08910275,
          -5.48230314
        ],
        [
          -112.3230632,
          -131.96423817,
          -2.48582124
        ],
        [
          -112.39726288,
          -131.8393755,
          0.51066042
        ],
        [
          -112.47146255,
          -131.71451283,
          3.50714231
        ],
        [
          -112.54566223,
          -131.58965016,
          6.50362397
        ],
        [
          -112.61986143,
          -131.46478558,
          9.50010586
        ],
        [
          -112.6940611,
          -131.33992291,
          12.49658776
        ],
        [
          -112.76826078,
          -131.21506024,
          15.49306965
        ],
        [
          -112.84246046,
          -131.09019757,
          18.4895525
        ],
        [
          -112.91666013,
          -130.96533299,
          21.48603345
        ],
        [
          -112.99085981,
          -130.84047032,
          24.48251629
        ],
        [
          -113.06505949,
          -130.71560765,
          27.47899724
        ],
        [
          -113.13925869,
          -130.59074498,
          30.47548009
        ],
        [
          -113.21345836,
          -130.4658804,
          33.47196103
        ],
        [
          -113.28765804,
          -130.34101773,
          36.46844388
        ],
        [
          -113.36185772,
          -130.21615506,
          39.46492291
        ],
        [
          -113.43605739,
          -130.09129239,
          42.46140576
        ],
        [
          -113.51025707,
          -129.96642781,
          45.45788861
        ],
        [
          -113.58445675,
          -129.84156514,
          48.45437146
        ],
        [
          -113.65865642,
          -129.71670247,
          51.45085049
        ],
        [
          -113.73285562,
          -129.59183789,
          54.44733334
        ],
        [
          -113.8070553,
          -129.46697522,
          57.44381619
        ],
        [
          -113.88125498,
          -129.34211255,
          60.44029904
        ],
        [
          -113.95545465,
          -129.21724988,
          63.43677807
        ]
      ],
      "CsaImage.TimeAfterStart": [
        0.7825,
        0.5225,
        0.795,
        0.535,
        0.8075,
        0.5475,
        0.82,
        0.56,
        0.8325,
        0.5725,
        0.845,
        0.585,
        0.8575,
        0.5975,
        0.87,
        0.61,
        0.8825,
        0.6225,
        0.895,
        0.635,
        0.9075,
        0.6475,
        0.92,
        0.66,
        0.9325,
        0.6725,
        0.945,
        0.685,
        0.9575,
        0.6975,
        0.97,
        0.71,
        0.9825,
        0.7225,
        0.995,
        0.735,
        1.0075,
        0.7475,
        1.02,
        0.76,
        1.03,
        0.77
      ],
      "ImagePositionPatient": [
        [
          -110.91327053707,
          -134.33664036452,
          -59.418976777804
        ],
        [
          -110.98747021358,
          -134.21177769362,
          -56.422493928683
        ],
        [
          -111.06166965167,
          -134.08691311537,
          -53.426014894259
        ],
        [
          -111.13586932819,
          -133.96205044447,
          -50.429532045138
        ],
        [
          -111.2100690047,
          -133.83718586623,
          -47.433049196017
        ],
        [
          -111.2842684428,
          -133.71232319533,
          -44.436566346896
        ],
        [
          -111.35846811931,
          -133.58746052443,
          -41.440087312472
        ],
        [
          -111.43266779582,
          -133.46259785353,
          -38.443604463351
        ],
        [
          -111.50686747234,
          -133.33773327528,
          -35.44712161423
        ],
        [
          -111.58106691043,
          -133.21287060439,
          -32.450638765108
        ],
        [
          -111.65526658695,
          -133.08800793349,
          -29.454157823336
        ],
        [
          -111.72946626346,
          -132.96314335524,
          -26.457676881564
        ],
        [
          -111.80366593997,
          -132.83828068434,
          -23.461194032442
        ],
        [
          -111.87786561649,
          -132.71341801344,
          -20.46471309067
        ],
        [
          -111.952065293,
          -132.58855534254,
          -17.468230241549
        ],
        [
          -112.02626449268,
          -132.4636907643,
          -14.471749299776
        ],
        [
          -112.10046416919,
          -132.3388280934,
          -11.47526740433
        ],
        [
          -112.17466384571,
          -132.2139654225,
          -8.4787855088829
        ],
        [
          -112.24886352222,
          -132.0891027516,
          -5.4823031365989
        ],
        [
          -112.32306319873,
          -131.96423817336,
          -2.4858212411521
        ],
        [
          -112.39726287525,
          -131.83937550246,
          0.51066041587606
        ],
        [
          -112.47146255176,
          -131.71451283156,
          3.5071423113228
        ],
        [
          -112.54566222827,
          -131.58965016066,
          6.503623968351
        ],
        [
          -112.61986142795,
          -131.46478558241,
          9.5001058637978
        ],
        [
          -112.69406110446,
          -131.33992291151,
          12.496587759245
        ],
        [
          -112.76826078098,
          -131.21506024062,
          15.493069654691
        ],
        [
          -112.84246045749,
          -131.09019756972,
          18.489552503812
        ],
        [
          -112.91666013401,
          -130.96533299147,
          21.486033445585
        ],
        [
          -112.99085981052,
          -130.84047032057,
          24.482516294706
        ],
        [
          -113.06505948703,
          -130.71560764967,
          27.478997236478
        ],
        [
          -113.13925868671,
          -130.59074497878,
          30.4754800856
        ],
        [
          -113.21345836322,
          -130.46588040053,
          33.471961027372
        ],
        [
          -113.28765803974,
          -130.34101772963,
          36.468443876493
        ],
        [
          -113.36185771625,
          -130.21615505873,
          39.464922910917
        ],
        [
          -113.43605739276,
          -130.09129238783,
          42.461405760038
        ],
        [
          -113.51025706928,
          -129.96642780959,
          45.457888609159
        ],
        [
          -113.58445674579,
          -129.84156513869,
          48.45437145828
        ],
        [
          -113.6586564223,
          -129.71670246779,
          51.450850492704
        ],
        [
          -113.73285562198,
          -129.59183788954,
          54.447333341825
        ],
        [
          -113.80705529849,
          -129.46697521864,
          57.443816190946
        ],
        [
          -113.88125497501,
          -129.34211254774,
          60.440299040067
        ],
        [
          -113.95545465152,
          -129.21724987685,
          63.436778074491
        ]
      ],
      "InstanceCreationTime": [
        "161632.447000",
        "161632.389000",
        "161632.449000",
        "161632.392000",
        "161632.451000",
        "161632.394000",
        "161632.453000",
        "161632.396000",
        "161632.455000",
        "161632.404000",
        "161632.457000",
        "161632.407000",
        "161632.459000",
        "161632.409000",
        "161632.462000",
        "161632.411000",
        "161632.464000",
        "161632.413000",
        "161632.466000",
        "161632.421000",
        "161632.468000",
        "161632.423000",
        "161632.470000",
        "161632.425000",
        "161632.472000",
        "161632.427000",
        "161632.475000",
        "161632.429000",
        "161632.477000",
        "161632.431000",
        "161632.479000",
        "161632.434000",
        "161632.481000",
        "161632.436000",
        "161632.483000",
        "161632.438000",
        "161632.485000",
        "161632.440000",
        "161632.488000",
        "161632.442000",
        "161632.490000",
        "161632.444000"
      ],
      "InstanceNumber": [
        1,
        2,
        3,
        4,
        5,
        6,
        7,
        8,
        9,
        10,
        11,
        12,
        13,
        14,
        15,
        16,
        17,
        18,
        19,
        20,
        21,
        22,
        23,
        24,
        25,
        26,
        27,
        28,
        29,
        30,
        31,
        32,
        33,
        34,
        35,
        36,
        37,
        38,
        39,
        40,
        41,
        42
      ],
      "LargestImagePixelValue": [
        4092,
        4092,
        4094,
        4078,
        4093,
        4091,
        4092,
        4079,
        4093,
        4094,
        4091,
        4093,
        4068,
        4072,
        4085,
        4084,
        4058,
        4056,
        4090,
        4088,
        4092,
        4068,
        4040,
        4075,
        4092,
        4070,
        4086,
        4092,
        4089,
        4082,
        4074,
        4084,
        4094,
        4087,
        4090,
        4091,
        4095,
        4093,
        4089,
        4092,
        4092,
        4095
      ],
      "SliceLocation": [
        -62.197287759801,
        -59.197286802525,
        -56.197289581984,
        -53.197288624708,
        -50.197287588047,
        -47.197286636668,
        -44.197289489616,
        -41.19728853234,
        -38.197287495679,
        -35.1972865443,
        -32.197287492136,
        -29.197288360586,
        -26.197287403311,
        -23.197288351147,
        -20.197287393871,
        -17.197288274115,
        -14.197288269395,
        -11.197288264676,
        -8.1972877836778,
        -5.1972876995721,
        -2.1972879329913,
        0.80271207172845,
        3.8027118383093,
        6.8027119106212,
        9.802711915341,
        12.802711920061,
        15.802712877336,
        18.802712008886,
        21.802712966162,
        24.802712018326,
        27.802712963808,
        30.802712095357,
        33.802713052633,
        36.802710199685,
        39.802711156961,
        42.802712193622,
        45.802713150898,
        48.80271029795,
        51.802711322818,
        54.802712280094,
        57.802713237369,
        60.802710384421
      ],
      "SmallestImagePixelValue": [
        2,
        0,
        0,
        9,
        11,
        20,
        0,
        0,
        0,
        0,
        26,
        26,
        16,
        11,
        7,
        14,
        15,
        14,
        4,
        9,
        5,
        13,
        9,
        8,
        38,
        2,
        0,
        12,
        3,
        2,
        4,
        5,
        0,
        10,
        4,
        2,
        0,
        2,
        1,
        0,
        1,
        1
      ],
      "WindowCenter": [
        -200.0,
        -234.0,
        -250.0,
        -246.0,
        -206.0,
        -156.0,
        -156.0,
        -194.0,
        -232.0,
        -232.0,
        -286.0,
        -426.0,
        -380.0,
        -338.0,
        -274.0,
        -104.0,
        -84.0,
        -94.0,
        -52.0,
        -22.0,
        4.0,
        0.0,
        -8.0,
        -160.0,
        -156.0,
        -166.0,
        -174.0,
        -60.0,
        -228.0,
        -240.0,
        -156.0,
        -312.0,
        -116.0,
        -154.0,
        -138.0,
        -154.0,
        -212.0,
        -180.0,
        -202.0,
        -216.0,
        -280.0,
        -304.0
      ],
      "WindowWidth": [
        5932.0,
        5868.0,
        5710.0,
        5700.0,
        5708.0,
        5740.0,
        5664.0,
        5534.0,
        5398.0,
        5558.0,
        5400.0,
        4752.0,
        4698.0,
        4656.0,
        4596.0,
        5186.0,
        5196.0,
        4950.0,
        5046.0,
        5062.0,
        4956.0,
        5002.0,
        5044.0,
        4486.0,
        4496.0,
        4520.0,
        4538.0,
        5234.0,
        4594.0,
        4600.0,
        5152.0,
        4680.0,
        5594.0,
        5606.0,
        5750.0,
        5820.0,
        5894.0,
        5944.0,
        6042.0,
        6116.0,
        6110.0,
        6200.0
      ]
    }
  }
}