{
  "AcquisitionMatrixPE": 72,
  "AcquisitionNumber": 1,
  "AcquisitionTime": "14:46:52.542500",
  "BandwidthPerPixelPhaseEncode": 17.943,
  "BaseResolution": 96,
  "BodyPartExamined": "BRAIN",
  "CoilCombinationMethod": "Sum of Squares",
  "ConsistencyInfo": "N4_VE11C_LATEST_20160120",
  "ConversionSoftware": "dcm2niix",
  "ConversionSoftwareVersion": "v1.0.20211006",
  "DerivedVendorReportedEchoSpacing": 0.000552897,
  "DeviceSerialNumber": "166011",
  "EchoTime": 0.03,
  "EchoTrainLength": 58,
  "EffectiveEchoSpacing": 0.000580542,
  "FlipAngle": 62,
  "ImageOrientationPatientDICOM": [0.998285, -0.0509035, -0.0289046, 0.0483003, 0.995247, -0.0845553],
  "ImageType": [
    "ORIGINAL",
    "PRIMARY",
    "M",
    "ND",
    "MOSAIC"
],
  "ImagingFrequency": 123.259,
  "InPlanePhaseEncodingDirectionDICOM": "COL",
  "InstitutionAddress": "West 130th Street 610,NY,NYC,US,10025",
  "InstitutionName": "MBBI",
  "MRAcquisitionType": "2D",
  "MagneticFieldStrength": 3,
  "Manufacturer": "Siemens",
  "ManufacturersModelName": "Prisma",
  "Modality": "MR",
  "MultibandAccelerationFactor": 3,
  "PartialFourier": 0.75,
  "PatientPosition": "HFS",
  "PercentPhaseFOV": 100,
  "PercentSampling": 75,
  "PhaseEncodingDirection": "j-",
  "PhaseEncodingSteps": 58,
  "PhaseOversampling": 0.05,
  "PhaseResolution": 0.75,
  "PixelBandwidth": 2265,
  "ProcedureStepDescription": "White^Word_recognition",
  "ProtocolName": "func_language_run1",
  "PulseSequenceDetails": "%SiemensSeq%\\ep2d_bold",
  "ReceiveCoilActiveElements": "HC1-7",
  "ReceiveCoilName": "HeadNeck_64",
  "ReconMatrixPE": 96,
  "RefLinesPE": 40,
  "RepetitionTime": 1.5,
  "SAR": 0.0549547,
  "ScanOptions": "PFP\\FS",
  "ScanningSequence": "EP",
  "SequenceName": "*epfid2d1_72",
  "SequenceVariant": "SK\\OSP",
  "SeriesDescription": "func_language_run1",
  "SeriesNumber": 11,
  "ShimSetting": [-1147, -1371, 719, 576, -90, 40, 79, 18],
  "SliceThickness": 2,
  "SliceTiming": [1.075, 0, 0.74, 0.0675, 0.8075, 0.1325, 0.8725, 0.2, 0.94, 0.2675, 1.0075, 0.4025, 1.1425, 0.47, 1.21, 0.5375, 1.2775, 0.605, 1.345, 0.6725, 1.4125, 0.335, 1.075, 0, 0.74, 0.0675, 0.8075, 0.1325, 0.8725, 0.2, 0.94, 0.2675, 1.0075, 0.4025, 1.1425, 0.47, 1.21, 0.5375, 1.2775, 0.605, 1.345, 0.6725, 1.4125, 0.335, 1.075, 0, 0.74, 0.0675, 0.8075, 0.1325, 0.8725, 0.2, 0.94, 0.2675, 1.0075, 0.4025, 1.1425, 0.47, 1.21, 0.5375, 1.2775, 0.605, 1.345, 0.6725, 1.4125, 0.335],
  "SoftwareVersions": "syngo MR E11",
  "SpacingBetweenSlices": 2,
  "StationName": "AWP166011",
  "TaskName": "langLoc",
  "TotalReadoutTime": 0.0551515,
  "TxRefAmp": 226.56,
  "dcmmeta_affine": [
    [-1.9965704679489136, 0.09660068154335022, -0.06614277511835098, 95.80487823486328],
    [0.10180695354938507, 1.9904948472976685, -0.1660284399986267, -67.62619018554688],
    [-0.05780920013785362, 0.16911064088344574, 1.9919989109039307, -55.34726333618164],
    [0.0, 0.0, 0.0, 1.0]
],
  "dcmmeta_reorient_transform": [
    [0.0, -1.0, 0.0, 95.0],
    [1.0, 0.0, 0.0, 0.0],
    [0.0, 0.0, 1.0, 0.0],
    [0.0, 0.0, 0.0, 1.0]
],
  "dcmmeta_shape": [96, 96, 66, 239],
  "dcmmeta_slice_dim": 2,
  "dcmmeta_version": 0.6,
  "global": {
    "const": {
      "AcquisitionMatrix": [96, 0, 0, 72],
      "AngioFlag": "N",
      "BitsAllocated": 16,
      "BitsStored": 12,
      "BodyPartExamined": "BRAIN",
      "Columns": 864,
      "EchoNumbers": 1,
      "EchoTime": 30.0,
      "EchoTrainLength": 58,
      "FlipAngle": 62.0,
      "HighBit": 11,
      "ImageOrientationPatient": [0.99828520982126, -0.0509034765491, -0.028904600453, 0.04830034212717, 0.99524744398236, -0.0845553203351],
      "ImagePositionPatient": [-908.75964436147, -846.72699439614, 47.855467141988],
      "ImageType": [
        "ORIGINAL",
        "PRIMARY",
        "M",
        "ND",
        "MOSAIC"
],
      "ImagedNucleus": "1H",
      "ImagingFrequency": 123.259479,
      "InPlanePhaseEncodingDirection": "COL",
      "MRAcquisitionType": "2D",
      "MagneticFieldStrength": 3.0,
      "Manufacturer": "SIEMENS",
      "ManufacturerModelName": "Prisma",
      "Modality": "MR",
      "NumberOfAverages": 1.0,
      "NumberOfPhaseEncodingSteps": 58,
      "PercentPhaseFieldOfView": 100.0,
      "PercentSampling": 75.0,
      "PerformedProcedureStepStartTime": "140204.993000",
      "PhotometricInterpretation": "MONOCHROME2",
      "PixelBandwidth": 2265.0,
      "PixelRepresentation": 0,
      "PixelSpacing": [2.0, 2.0],
      "ProtocolName": "func_language_run1",
      "RepetitionTime": 1500.0,
      "Rows": 864,
      "SAR": 0.0549547486315,
      "SamplesPerPixel": 1,
      "ScanOptions": [
        "PFP",
        "FS"
],
      "ScanningSequence": "EP",
      "SequenceName": "*epfid2d1_72",
      "SequenceVariant": [
        "SK",
        "OSP"
],
      "SeriesDescription": "func_language_run1",
      "SeriesNumber": 11,
      "SeriesTime": "144733.143000",
      "SliceLocation": -52.680308825603,
      "SliceThickness": 2.0,
      "SmallestImagePixelValue": 0,
      "SoftwareVersions": "syngo MR E11",
      "SpacingBetweenSlices": 1.9999999607778,
      "SpecificCharacterSet": "ISO_IR 100",
      "StudyID": "2",
      "StudyTime": "140204.927000",
      "TransmitCoilName": "Body",
      "VariableFlipAngleFlag": "N",
      "WindowCenterWidthExplanation": "Algo1",
      "dBdt": 0.0},
    "slices": {}
  },
  "time": {
    "samples": {
      "AcquisitionNumber": [1, 2, 3, 4, 5, 6, 7, 8, 9, 10, 11, 12, 13, 14, 15, 16, 17, 18, 19, 20, 21, 22, 23, 24, 25, 26, 27, 28, 29, 30, 31, 32, 33, 34, 35, 36, 37, 38, 39, 40, 41, 42, 43, 44, 45, 46, 47, 48, 49, 50, 51, 52, 53, 54, 55, 56, 57, 58, 59, 60, 61, 62, 63, 64, 65, 66, 67, 68, 69, 70, 71, 72, 73, 74, 75, 76, 77, 78, 79, 80, 81, 82, 83, 84, 85, 86, 87, 88, 89, 90, 91, 92, 93, 94, 95, 96, 97, 98, 99, 100, 101, 102, 103, 104, 105, 106, 107, 108, 109, 110, 111, 112, 113, 114, 115, 116, 117, 118, 119, 120, 121, 122, 123, 124, 125, 126, 127, 128, 129, 130, 131, 132, 133, 134, 135, 136, 137, 138, 139, 140, 141, 142, 143, 144, 145, 146, 147, 148, 149, 150, 151, 152, 153, 154, 155, 156, 157, 158, 159, 160, 161, 162, 163, 164, 165, 166, 167, 168, 169, 170, 171, 172, 173, 174, 175, 176, 177, 178, 179, 180, 181, 182, 183, 184, 185, 186, 187, 188, 189, 190, 191, 192, 193, 194, 195, 196, 197, 198, 199, 200, 201, 202, 203, 204, 205, 206, 207, 208, 209, 210, 211, 212, 213, 214, 215, 216, 217, 218, 219, 220, 221, 222, 223, 224, 225, 226, 227, 228, 229, 230, 231, 232, 233, 234, 235, 236, 237, 238, 239],
      "AcquisitionTime": ["144652.542500", "144654.042500", "144655.542500", "144657.042500", "144658.542500", "144700.042500", "144701.542500", "144703.042500", "144704.542500", "144706.042500", "144707.542500", "144709.042500", "144710.542500", "144712.042500", "144713.542500", "144715.042500", "144716.542500", "144718.042500", "144719.542500", "144721.042500", "144722.542500", "144724.042500", "144725.542500", "144727.042500", "144728.542500", "144730.042500", "144731.542500", "144733.042500", "144734.542500", "144736.042500", "144737.542500", "144739.042500", "144740.542500", "144742.042500", "144743.542500", "144745.042500", "144746.542500", "144748.042500", "144749.542500", "144751.042500", "144752.542500", "144754.042500", "144755.542500", "144757.042500", "144758.542500", "144800.042500", "144801.542500", "144803.042500", "144804.542500", "144806.042500", "144807.542500", "144809.042500", "144810.542500", "144812.042500", "144813.542500", "144815.042500", "144816.542500", "144818.042500", "144819.542500", "144821.042500", "144822.542500", "144824.042500", "144825.542500", "144827.042500", "144828.542500", "144830.042500", "144831.542500", "144833.042500", "144834.542500", "144836.042500", "144837.542500", "144839.042500", "144840.542500", "144842.042500", "144843.542500", "144845.042500", "144846.542500", "144848.042500", "144849.542500", "144851.042500", "144852.542500", "144854.042500", "144855.542500", "144857.042500", "144858.542500", "144900.042500", "144901.542500", "144903.042500", "144904.542500", "144906.042500", "144907.542500", "144909.042500", "144910.542500", "144912.042500", "144913.542500", "144915.042500", "144916.542500", "144918.042500", "144919.542500", "144921.042500", "144922.542500", "144924.042500", "144925.542500", "144927.042500", "144928.542500", "144930.042500", "144931.542500", "144933.042500", "144934.542500", "144936.042500", "144937.542500", "144939.042500", "144940.542500", "144942.042500", "144943.542500", "144945.042500", "144946.542500", "144948.042500", "144949.542500", "144951.042500", "144952.542500", "144954.042500", "144955.542500", "144957.042500", "144958.542500", "145000.042500", "145001.542500", "145003.042500", "145004.542500", "145006.042500", "145007.542500", "145009.042500", "145010.542500", "145012.042500", "145013.542500", "145015.042500", "145016.542500", "145018.042500", "145019.542500", "145021.042500", "145022.542500", "145024.042500", "145025.542500", "145027.042500", "145028.542500", "145030.042500", "145031.542500", "145033.042500", "145034.542500", "145036.042500", "145037.542500", "145039.042500", "145040.542500", "145042.042500", "145043.542500", "145045.042500", "145046.542500", "145048.042500", "145049.542500", "145051.042500", "145052.542500", "145054.042500", "145055.542500", "145057.042500", "145058.542500", "145100.042500", "145101.542500", "145103.042500", "145104.542500", "145106.042500", "145107.542500", "145109.042500", "145110.542500", "145112.042500", "145113.542500", "145115.042500", "145116.542500", "145118.042500", "145119.542500", "145121.042500", "145122.542500", "145124.042500", "145125.542500", "145127.042500", "145128.542500", "145130.042500", "145131.542500", "145133.042500", "145134.542500", "145136.042500", "145137.542500", "145139.042500", "145140.542500", "145142.042500", "145143.542500", "145145.042500", "145146.542500", "145148.042500", "145149.542500", "145151.042500", "145152.542500", "145154.042500", "145155.542500", "145157.042500", "145158.542500", "145200.042500", "145201.542500", "145203.042500", "145204.542500", "145206.042500", "145207.542500", "145209.042500", "145210.542500", "145212.042500", "145213.542500", "145215.042500", "145216.542500", "145218.042500", "145219.542500", "145221.042500", "145222.542500", "145224.042500", "145225.542500", "145227.042500", "145228.542500", "145230.042500", "145231.542500", "145233.042500", "145234.542500", "145236.042500", "145237.542500", "145239.042500", "145240.542500", "145242.042500", "145243.542500", "145245.042500", "145246.542500", "145248.042500", "145249.542500"],
      "ContentTime": ["144733.147000", "144733.151000", "144733.154000", "144733.157000", "144733.169000", "144733.172000", "144733.175000", "144733.178000", "144733.181000", "144733.184000", "144733.187000", "144733.191000", "144733.194000", "144733.197000", "144733.200000", "144733.203000", "144733.206000", "144733.214000", "144733.217000", "144733.220000", "144733.223000", "144733.226000", "144733.229000", "144733.232000", "144733.235000", "144733.238000", "144733.241000", "144813.141000", "144813.145000", "144813.148000", "144813.151000", "144813.154000", "144813.157000", "144813.160000", "144813.163000", "144813.166000", "144813.169000", "144813.172000", "144813.175000", "144813.178000", "144813.182000", "144813.185000", "144813.189000", "144813.192000", "144813.195000", "144813.198000", "144813.201000", "144813.204000", "144813.207000", "144813.211000", "144813.214000", "144813.217000", "144813.220000", "144853.142000", "144853.145000", "144853.148000", "144853.151000", "144853.154000", "144853.158000", "144853.161000", "144853.164000", "144853.167000", "144853.170000", "144853.173000", "144853.186000", "144853.189000", "144853.192000", "144853.195000", "144853.198000", "144853.201000", "144853.204000", "144853.207000", "144853.210000", "144853.213000", "144853.216000", "144853.219000", "144853.222000", "144853.225000", "144853.228000", "144853.231000", "144933.142000", "144933.145000", "144933.148000", "144933.151000", "144933.154000", "144933.157000", "144933.161000", "144933.164000", "144933.167000", "144933.170000", "144933.173000", "144933.176000", "144933.179000", "144933.182000", "144933.185000", "144933.188000", "144933.199000", "144933.202000", "144933.205000", "144933.209000", "144933.212000", "144933.215000", "144933.218000", "144933.221000", "144933.224000", "144933.227000", "144933.230000", "145013.141000", "145013.145000", "145013.148000", "145013.151000", "145013.154000", "145013.157000", "145013.160000", "145013.163000", "145013.166000", "145013.169000", "145013.172000", "145013.175000", "145013.178000", "145013.182000", "145013.186000", "145013.189000", "145013.192000", "145013.195000", "145013.198000", "145013.201000", "145013.204000", "145013.208000", "145013.211000", "145013.214000", "145013.217000", "145013.220000", "145053.141000", "145053.145000", "145053.148000", "145053.151000", "145053.154000", "145053.157000", "145053.160000", "145053.163000", "145053.166000", "145053.169000", "145053.172000", "145053.175000", "145053.178000", "145053.182000", "145053.185000", "145053.188000", "145053.199000", "145053.202000", "145053.205000", "145053.208000", "145053.211000", "145053.215000", "145053.218000", "145053.221000", "145053.224000", "145053.227000", "145053.230000", "145133.142000", "145133.145000", "145133.149000", "145133.152000", "145133.155000", "145133.158000", "145133.161000", "145133.164000", "145133.167000", "145133.170000", "145133.173000", "145133.176000", "145133.179000", "145133.183000", "145133.186000", "145133.189000", "145133.192000", "145133.195000", "145133.198000", "145133.201000", "145133.204000", "145133.207000", "145133.210000", "145133.213000", "145133.217000", "145133.220000", "145133.223000", "145213.142000", "145213.146000", "145213.149000", "145213.152000", "145213.155000", "145213.158000", "145213.161000", "145213.164000", "145213.167000", "145213.170000", "145213.173000", "145213.176000", "145213.179000", "145213.184000", "145213.187000", "145213.190000", "145213.193000", "145213.196000", "145213.199000", "145213.202000", "145213.205000", "145213.208000", "145213.211000", "145213.214000", "145213.218000", "145213.221000", "145250.954000", "145250.957000", "145250.961000", "145250.964000", "145250.967000", "145250.970000", "145250.974000", "145250.977000", "145250.980000", "145250.984000", "145250.987000", "145250.990000", "145250.994000", "145250.997000", "145251.002000", "145251.005000", "145251.008000", "145251.011000", "145251.015000", "145251.018000", "145251.021000", "145251.024000", "145251.027000", "145251.030000", "145251.033000", "145251.036000"],
      "InstanceCreationTime": ["144733.147000", "144733.151000", "144733.154000", "144733.157000", "144733.169000", "144733.172000", "144733.175000", "144733.178000", "144733.181000", "144733.184000", "144733.187000", "144733.191000", "144733.194000", "144733.197000", "144733.200000", "144733.203000", "144733.206000", "144733.214000", "144733.217000", "144733.220000", "144733.223000", "144733.226000", "144733.229000", "144733.232000", "144733.235000", "144733.238000", "144733.241000", "144813.141000", "144813.145000", "144813.148000", "144813.151000", "144813.154000", "144813.157000", "144813.160000", "144813.163000", "144813.166000", "144813.169000", "144813.172000", "144813.175000", "144813.178000", "144813.182000", "144813.185000", "144813.189000", "144813.192000", "144813.195000", "144813.198000", "144813.201000", "144813.204000", "144813.207000", "144813.211000", "144813.214000", "144813.217000", "144813.220000", "144853.142000", "144853.145000", "144853.148000", "144853.151000", "144853.154000", "144853.158000", "144853.161000", "144853.164000", "144853.167000", "144853.170000", "144853.173000", "144853.186000", "144853.189000", "144853.192000", "144853.195000", "144853.198000", "144853.201000", "144853.204000", "144853.207000", "144853.210000", "144853.213000", "144853.216000", "144853.219000", "144853.222000", "144853.225000", "144853.228000", "144853.231000", "144933.142000", "144933.145000", "144933.148000", "144933.151000", "144933.154000", "144933.157000", "144933.161000", "144933.164000", "144933.167000", "144933.170000", "144933.173000", "144933.176000", "144933.179000", "144933.182000", "144933.185000", "144933.188000", "144933.199000", "144933.202000", "144933.205000", "144933.209000", "144933.212000", "144933.215000", "144933.218000", "144933.221000", "144933.224000", "144933.227000", "144933.230000", "145013.141000", "145013.145000", "145013.148000", "145013.151000", "145013.154000", "145013.157000", "145013.160000", "145013.163000", "145013.166000", "145013.169000", "145013.172000", "145013.175000", "145013.178000", "145013.182000", "145013.186000", "145013.189000", "145013.192000", "145013.195000", "145013.198000", "145013.201000", "145013.204000", "145013.208000", "145013.211000", "145013.214000", "145013.217000", "145013.220000", "145053.141000", "145053.145000", "145053.148000", "145053.151000", "145053.154000", "145053.157000", "145053.160000", "145053.163000", "145053.166000", "145053.169000", "145053.172000", "145053.175000", "145053.178000", "145053.182000", "145053.185000", "145053.188000", "145053.199000", "145053.202000", "145053.205000", "145053.208000", "145053.211000", "145053.215000", "145053.218000", "145053.221000", "145053.224000", "145053.227000", "145053.230000", "145133.142000", "145133.145000", "145133.149000", "145133.152000", "145133.155000", "145133.158000", "145133.161000", "145133.164000", "145133.167000", "145133.170000", "145133.173000", "145133.176000", "145133.179000", "145133.183000", "145133.186000", "145133.189000", "145133.192000", "145133.195000", "145133.198000", "145133.201000", "145133.204000", "145133.207000", "145133.210000", "145133.213000", "145133.217000", "145133.220000", "145133.223000", "145213.142000", "145213.146000", "145213.149000", "145213.152000", "145213.155000", "145213.158000", "145213.161000", "145213.164000", "145213.167000", "145213.170000", "145213.173000", "145213.176000", "145213.179000", "145213.184000", "145213.187000", "145213.190000", "145213.193000", "145213.196000", "145213.199000", "145213.202000", "145213.205000", "145213.208000", "145213.211000", "145213.214000", "145213.218000", "145213.221000", "145250.954000", "145250.957000", "145250.961000", "145250.964000", "145250.967000", "145250.970000", "145250.974000", "145250.977000", "145250.980000", "145250.984000", "145250.987000", "145250.990000", "145250.994000", "145250.997000", "145251.002000", "145251.005000", "145251.008000", "145251.011000", "145251.015000", "145251.018000", "145251.021000", "145251.024000", "145251.027000", "145251.030000", "145251.033000", "145251.036000"],
      "InstanceNumber": [1, 2, 3, 4, 5, 6, 7, 8, 9, 10, 11, 12, 13, 14, 15, 16, 17, 18, 19, 20, 21, 22, 23, 24, 25, 26, 27, 28, 29, 30, 31, 32, 33, 34, 35, 36, 37, 38, 39, 40, 41, 42, 43, 44, 45, 46, 47, 48, 49, 50, 51, 52, 53, 54, 55, 56, 57, 58, 59, 60, 61, 62, 63, 64, 65, 66, 67, 68, 69, 70, 71, 72, 73, 74, 75, 76, 77, 78, 79, 80, 81, 82, 83, 84, 85, 86, 87, 88, 89, 90, 91, 92, 93, 94, 95, 96, 97, 98, 99, 100, 101, 102, 103, 104, 105, 106, 107, 108, 109, 110, 111, 112, 113, 114, 115, 116, 117, 118, 119, 120, 121, 122, 123, 124, 125, 126, 127, 128, 129, 130, 131, 132, 133, 134, 135, 136, 137, 138, 139, 140, 141, 142, 143, 144, 145, 146, 147, 148, 149, 150, 151, 152, 153, 154, 155, 156, 157, 158, 159, 160, 161, 162, 163, 164, 165, 166, 167, 168, 169, 170, 171, 172, 173, 174, 175, 176, 177, 178, 179, 180, 181, 182, 183, 184, 185, 186, 187, 188, 189, 190, 191, 192, 193, 194, 195, 196, 197, 198, 199, 200, 201, 202, 203, 204, 205, 206, 207, 208, 209, 210, 211, 212, 213, 214, 215, 216, 217, 218, 219, 220, 221, 222, 223, 224, 225, 226, 227, 228, 229, 230, 231, 232, 233, 234, 235, 236, 237, 238, 239],
      "LargestImagePixelValue": [2841, 2776, 2757, 2691, 2709, 2678, 2703, 2695, 2704, 2690, 2685, 2702, 2699, 2699, 2626, 2679, 2627, 2661, 2584, 2613, 2625, 2674, 2588, 2600, 2602, 2576, 2584, 2548, 2565, 2558, 2585, 2557, 2575, 2534, 2566, 2539, 2554, 2551, 2547, 2567, 2529, 2562, 2560, 2537, 2565, 2527, 2577, 2552, 2583, 2532, 2568, 2568, 2589, 2538, 2583, 2554, 2560, 2553, 2578, 2588, 2581, 2602, 2542, 2583, 2554, 2596, 2551, 2578, 2567, 2592, 2556, 2565, 2558, 2584, 2552, 2576, 2600, 2541, 2578, 2542, 2580, 2597, 2711, 2655, 2527, 2599, 2579, 2626, 2618, 2621, 2618, 2638, 2640, 2631, 2619, 2631, 2655, 2614, 2611, 2641, 2631, 2656, 2610, 2656, 2640, 2645, 2635, 2627, 2632, 2630, 2628, 2614, 2633, 2622, 2619, 2603, 2684, 2676, 2678, 2642, 2647, 2656, 2631, 2662, 2635, 2686, 2689, 2671, 2669, 2597, 2564, 2556, 2519, 2565, 2531, 2553, 2547, 2607, 2717, 2680, 2689, 2703, 2672, 2682, 2671, 2679, 2703, 2679, 2701, 2696, 2680, 2687, 2689, 2703, 2695, 2703, 2688, 2693, 2704, 2699, 2692, 2686, 2698, 2678, 2673, 2711, 2703, 2710, 2692, 2699, 2687, 2750, 2714, 2754, 2711, 2715, 2697, 2788, 2721, 2679, 2643, 2598, 2645, 2633, 2635, 2647, 2523, 2721, 2693, 2590, 2543, 2542, 2522, 2548, 2541, 2576, 2566, 2591, 2562, 2590, 2615, 2614, 2626, 2608, 2630, 2603, 2603, 2554, 2501, 2511, 2512, 2604, 2577, 2582, 2586, 2596, 2592, 2612, 2585, 2556, 2555, 2552, 2583, 2579, 2563, 2562, 2576, 2565, 2560, 2594, 2588, 2561, 2592, 2577, 2567, 2691, 2644, 2523, 2366],
      "WindowCenter": [674.0, 672.0, 672.0, 672.0, 673.0, 672.0, 672.0, 672.0, 672.0, 671.0, 671.0, 671.0, 671.0, 672.0, 672.0, 674.0, 673.0, 674.0, 673.0, 673.0, 673.0, 673.0, 672.0, 673.0, 672.0, 672.0, 671.0, 671.0, 672.0, 672.0, 672.0, 671.0, 671.0, 671.0, 671.0, 672.0, 673.0, 673.0, 672.0, 672.0, 672.0, 672.0, 672.0, 671.0, 671.0, 670.0, 671.0, 671.0, 672.0, 672.0, 672.0, 672.0, 673.0, 673.0, 673.0, 673.0, 672.0, 672.0, 672.0, 672.0, 673.0, 673.0, 672.0, 671.0, 670.0, 670.0, 671.0, 672.0, 672.0, 672.0, 671.0, 671.0, 671.0, 672.0, 672.0, 673.0, 673.0, 672.0, 671.0, 671.0, 671.0, 670.0, 670.0, 671.0, 670.0, 671.0, 670.0, 668.0, 666.0, 664.0, 664.0, 665.0, 665.0, 666.0, 666.0, 668.0, 669.0, 670.0, 670.0, 670.0, 671.0, 671.0, 671.0, 671.0, 672.0, 672.0, 672.0, 672.0, 672.0, 672.0, 672.0, 671.0, 671.0, 671.0, 671.0, 672.0, 673.0, 673.0, 673.0, 674.0, 672.0, 671.0, 670.0, 670.0, 670.0, 670.0, 671.0, 671.0, 672.0, 673.0, 673.0, 672.0, 672.0, 672.0, 672.0, 672.0, 671.0, 671.0, 671.0, 670.0, 671.0, 672.0, 671.0, 672.0, 671.0, 670.0, 671.0, 671.0, 671.0, 671.0, 670.0, 670.0, 670.0, 670.0, 671.0, 672.0, 671.0, 671.0, 670.0, 671.0, 672.0, 672.0, 672.0, 672.0, 671.0, 671.0, 671.0, 672.0, 671.0, 670.0, 670.0, 670.0, 669.0, 670.0, 670.0, 670.0, 670.0, 672.0, 674.0, 673.0, 672.0, 671.0, 670.0, 671.0, 671.0, 670.0, 666.0, 669.0, 670.0, 671.0, 670.0, 670.0, 668.0, 666.0, 664.0, 665.0, 665.0, 666.0, 666.0, 667.0, 668.0, 669.0, 669.0, 670.0, 671.0, 670.0, 670.0, 671.0, 672.0, 672.0, 672.0, 671.0, 670.0, 669.0, 668.0, 668.0, 669.0, 669.0, 668.0, 669.0, 671.0, 670.0, 671.0, 669.0, 668.0, 667.0, 668.0, 668.0, 668.0, 668.0, 667.0, 668.0, 669.0, 670.0, 670.0, 674.0, 675.0, 669.0, 661.0],
      "WindowWidth": [1444.0, 1440.0, 1438.0, 1438.0, 1439.0, 1439.0, 1438.0, 1437.0, 1437.0, 1436.0, 1434.0, 1434.0, 1435.0, 1437.0, 1437.0, 1444.0, 1442.0, 1442.0, 1440.0, 1441.0, 1440.0, 1440.0, 1439.0, 1440.0, 1439.0, 1438.0, 1437.0, 1437.0, 1438.0, 1438.0, 1438.0, 1437.0, 1436.0, 1436.0, 1437.0, 1439.0, 1442.0, 1440.0, 1437.0, 1437.0, 1437.0, 1438.0, 1438.0, 1437.0, 1436.0, 1434.0, 1435.0, 1436.0, 1438.0, 1439.0, 1439.0, 1439.0, 1440.0, 1440.0, 1441.0, 1440.0, 1439.0, 1438.0, 1437.0, 1437.0, 1440.0, 1441.0, 1438.0, 1435.0, 1433.0, 1433.0, 1435.0, 1437.0, 1438.0, 1439.0, 1437.0, 1435.0, 1434.0, 1437.0, 1439.0, 1440.0, 1440.0, 1438.0, 1436.0, 1435.0, 1435.0, 1432.0, 1433.0, 1436.0, 1433.0, 1435.0, 1433.0, 1429.0, 1423.0, 1418.0, 1416.0, 1419.0, 1420.0, 1422.0, 1424.0, 1426.0, 1429.0, 1432.0, 1433.0, 1433.0, 1435.0, 1436.0, 1436.0, 1436.0, 1437.0, 1438.0, 1437.0, 1437.0, 1437.0, 1437.0, 1437.0, 1434.0, 1434.0, 1435.0, 1435.0, 1437.0, 1440.0, 1439.0, 1440.0, 1443.0, 1438.0, 1435.0, 1432.0, 1432.0, 1432.0, 1433.0, 1434.0, 1435.0, 1438.0, 1440.0, 1440.0, 1439.0, 1437.0, 1437.0, 1437.0, 1438.0, 1436.0, 1434.0, 1435.0, 1433.0, 1435.0, 1437.0, 1436.0, 1437.0, 1435.0, 1433.0, 1435.0, 1435.0, 1436.0, 1434.0, 1433.0, 1432.0, 1431.0, 1433.0, 1435.0, 1437.0, 1435.0, 1434.0, 1433.0, 1435.0, 1437.0, 1439.0, 1439.0, 1437.0, 1435.0, 1434.0, 1436.0, 1437.0, 1435.0, 1433.0, 1432.0, 1432.0, 1431.0, 1431.0, 1431.0, 1433.0, 1431.0, 1437.0, 1443.0, 1440.0, 1438.0, 1435.0, 1434.0, 1435.0, 1435.0, 1433.0, 1423.0, 1430.0, 1432.0, 1434.0, 1434.0, 1433.0, 1428.0, 1423.0, 1418.0, 1419.0, 1420.0, 1421.0, 1423.0, 1426.0, 1428.0, 1429.0, 1431.0, 1433.0, 1435.0, 1434.0, 1431.0, 1436.0, 1438.0, 1438.0, 1437.0, 1436.0, 1431.0, 1429.0, 1428.0, 1428.0, 1429.0, 1430.0, 1427.0, 1429.0, 1434.0, 1433.0, 1434.0, 1431.0, 1428.0, 1425.0, 1427.0, 1428.0, 1428.0, 1427.0, 1426.0, 1427.0, 1431.0, 1433.0, 1432.0, 1442.0, 1445.0, 1431.0, 1410.0]
    },
    "slices": {}
  }
}