{
  "AcquisitionMatrixPE": 72,
  "AcquisitionNumber": 1,
  "AcquisitionTime": "18:42:16.877500",
  "BandwidthPerPixelPhaseEncode": 17.943,
  "BaseResolution": 96,
  "BodyPartExamined": "BRAIN",
  "CoilCombinationMethod": "Sum of Squares",
  "ConsistencyInfo": "N4_VE11C_LATEST_20160120",
  "ConversionSoftware": "dcm2niix",
  "ConversionSoftwareVersion": "v1.0.20211006",
  "DerivedVendorReportedEchoSpacing": 0.000552897,
  "DeviceSerialNumber": "166011",
  "EchoTime": 0.03,
  "EchoTrainLength": 58,
  "EffectiveEchoSpacing": 0.000580542,
  "FlipAngle": 62,
  "ImageOrientationPatientDICOM": [0.997759, -0.00788598, 0.0664503, 0.016545, 0.991273, -0.130786],
  "ImageType": [
    "ORIGINAL",
    "PRIMARY",
    "M",
    "ND",
    "MOSAIC"
],
  "ImagingFrequency": 123.26,
  "InPlanePhaseEncodingDirectionDICOM": "COL",
  "InstitutionAddress": "West 130th Street 610,NY,NYC,US,10025",
  "InstitutionName": "MBBI",
  "MRAcquisitionType": "2D",
  "MagneticFieldStrength": 3,
  "Manufacturer": "Siemens",
  "ManufacturersModelName": "Prisma",
  "Modality": "MR",
  "MultibandAccelerationFactor": 3,
  "PartialFourier": 0.75,
  "PatientPosition": "HFS",
  "PercentPhaseFOV": 100,
  "PercentSampling": 75,
  "PhaseEncodingDirection": "j-",
  "PhaseEncodingSteps": 58,
  "PhaseOversampling": 0.05,
  "PhaseResolution": 0.75,
  "PixelBandwidth": 2265,
  "ProcedureStepDescription": "White^Word_recognition",
  "ProtocolName": "func_vwfate_run8",
  "PulseSequenceDetails": "%SiemensSeq%\\ep2d_bold",
  "ReceiveCoilActiveElements": "HC1-7",
  "ReceiveCoilName": "HeadNeck_64",
  "ReconMatrixPE": 96,
  "RefLinesPE": 40,
  "RepetitionTime": 1.5,
  "SAR": 0.0426563,
  "ScanOptions": "PFP\\FS",
  "ScanningSequence": "EP",
  "SequenceName": "*epfid2d1_72",
  "SequenceVariant": "SK\\OSP",
  "SeriesDescription": "func_vwfate_run8",
  "SeriesNumber": 9,
  "ShimSetting": [-1132, -1375, 673, 597, -69, 23, -91, -40],
  "SliceThickness": 2,
  "SliceTiming": [1.075, 0, 0.74, 0.065, 0.805, 0.1325, 0.8725, 0.2, 0.94, 0.2675, 1.0075, 0.4025, 1.1425, 0.47, 1.21, 0.5375, 1.2775, 0.605, 1.345, 0.6725, 1.4125, 0.335, 1.075, 0, 0.74, 0.065, 0.805, 0.1325, 0.8725, 0.2, 0.94, 0.2675, 1.0075, 0.4025, 1.1425, 0.47, 1.21, 0.5375, 1.2775, 0.605, 1.345, 0.6725, 1.4125, 0.335, 1.075, 0, 0.74, 0.065, 0.805, 0.1325, 0.8725, 0.2, 0.94, 0.2675, 1.0075, 0.4025, 1.1425, 0.47, 1.21, 0.5375, 1.2775, 0.605, 1.345, 0.6725, 1.4125, 0.335],
  "SoftwareVersions": "syngo MR E11",
  "SpacingBetweenSlices": 2,
  "StationName": "AWP166011",
  "TaskName": "vwfate",
  "TotalReadoutTime": 0.0551515,
  "TxRefAmp": 216.195,
  "dcmmeta_affine": [
    [-1.9955171346664429, 0.033089958131313324, 0.1296779364347458, 95.30524444580078],
    [0.01577196642756462, 1.982545256614685, -0.2631836235523224, -70.84117889404297],
    [0.13290055096149445, 0.26157107949256897, 1.9783625602722168, -80.67530822753906],
    [0.0, 0.0, 0.0, 1.0]
],
  "dcmmeta_reorient_transform": [
    [0.0, -1.0, 0.0, 95.0],
    [1.0, 0.0, 0.0, 0.0],
    [0.0, 0.0, 1.0, 0.0],
    [0.0, 0.0, 0.0, 1.0]
],
  "dcmmeta_shape": [96, 96, 66, 164],
  "dcmmeta_slice_dim": 2,
  "dcmmeta_version": 0.6,
  "global": {
    "const": {
      "AcquisitionMatrix": [96, 0, 0, 72],
      "AngioFlag": "N",
      "BitsAllocated": 16,
      "BitsStored": 12,
      "BodyPartExamined": "BRAIN",
      "Columns": 864,
      "EchoNumbers": 1,
      "EchoTime": 30.0,
      "EchoTrainLength": 58,
      "FlipAngle": 62.0,
      "HighBit": 11,
      "ImageOrientationPatient": [0.99775857389171, -0.0078859830859, 0.06645027837673, 0.01654497895572, 0.99127261960221, -0.1307855393319],
      "ImagePositionPatient": [-877.43391939849, -872.74155298881, -6.416573762041],
      "ImageType": [
        "ORIGINAL",
        "PRIMARY",
        "M",
        "ND",
        "MOSAIC"
],
      "ImagedNucleus": "1H",
      "ImagingFrequency": 123.259536,
      "InPlanePhaseEncodingDirection": "COL",
      "MRAcquisitionType": "2D",
      "MagneticFieldStrength": 3.0,
      "Manufacturer": "SIEMENS",
      "ManufacturerModelName": "Prisma",
      "Modality": "MR",
      "NumberOfAverages": 1.0,
      "NumberOfPhaseEncodingSteps": 58,
      "PercentPhaseFieldOfView": 100.0,
      "PercentSampling": 75.0,
      "PerformedProcedureStepStartTime": "181558.666000",
      "PhotometricInterpretation": "MONOCHROME2",
      "PixelBandwidth": 2265.0,
      "PixelRepresentation": 0,
      "PixelSpacing": [2.0, 2.0],
      "ProtocolName": "func_vwfate_run8",
      "RepetitionTime": 1500.0,
      "Rows": 864,
      "SAR": 0.04265625007314,
      "SamplesPerPixel": 1,
      "ScanOptions": [
        "PFP",
        "FS"
],
      "ScanningSequence": "EP",
      "SequenceName": "*epfid2d1_72",
      "SequenceVariant": [
        "SK",
        "OSP"
],
      "SeriesDescription": "func_vwfate_run8",
      "SeriesNumber": 9,
      "SeriesTime": "184259.017000",
      "SliceLocation": -64.300885720631,
      "SliceThickness": 2.0,
      "SmallestImagePixelValue": 0,
      "SoftwareVersions": "syngo MR E11",
      "SpacingBetweenSlices": 2.0000000502021,
      "SpecificCharacterSet": "ISO_IR 100",
      "StudyID": "2",
      "StudyTime": "181558.613000",
      "TransmitCoilName": "Body",
      "VariableFlipAngleFlag": "N",
      "WindowCenterWidthExplanation": "Algo1",
      "dBdt": 0.0},
    "slices": {}
  },
  "time": {
    "samples": {
      "AcquisitionNumber": [1, 2, 3, 4, 5, 6, 7, 8, 9, 10, 11, 12, 13, 14, 15, 16, 17, 18, 19, 20, 21, 22, 23, 24, 25, 26, 27, 28, 29, 30, 31, 32, 33, 34, 35, 36, 37, 38, 39, 40, 41, 42, 43, 44, 45, 46, 47, 48, 49, 50, 51, 52, 53, 54, 55, 56, 57, 58, 59, 60, 61, 62, 63, 64, 65, 66, 67, 68, 69, 70, 71, 72, 73, 74, 75, 76, 77, 78, 79, 80, 81, 82, 83, 84, 85, 86, 87, 88, 89, 90, 91, 92, 93, 94, 95, 96, 97, 98, 99, 100, 101, 102, 103, 104, 105, 106, 107, 108, 109, 110, 111, 112, 113, 114, 115, 116, 117, 118, 119, 120, 121, 122, 123, 124, 125, 126, 127, 128, 129, 130, 131, 132, 133, 134, 135, 136, 137, 138, 139, 140, 141, 142, 143, 144, 145, 146, 147, 148, 149, 150, 151, 152, 153, 154, 155, 156, 157, 158, 159, 160, 161, 162, 163, 164],
      "AcquisitionTime": ["184216.877500", "184218.377500", "184219.877500", "184221.377500", "184222.877500", "184224.377500", "184225.877500", "184227.377500", "184228.877500", "184230.377500", "184231.877500", "184233.377500", "184234.877500", "184236.377500", "184237.877500", "184239.377500", "184240.877500", "184242.377500", "184243.877500", "184245.377500", "184246.877500", "184248.377500", "184249.877500", "184251.377500", "184252.877500", "184254.377500", "184255.877500", "184257.377500", "184258.877500", "184300.377500", "184301.877500", "184303.377500", "184304.877500", "184306.377500", "184307.877500", "184309.377500", "184310.877500", "184312.377500", "184313.877500", "184315.377500", "184316.877500", "184318.377500", "184319.877500", "184321.377500", "184322.877500", "184324.377500", "184325.877500", "184327.377500", "184328.877500", "184330.377500", "184331.877500", "184333.377500", "184334.877500", "184336.377500", "184337.877500", "184339.377500", "184340.877500", "184342.377500", "184343.877500", "184345.377500", "184346.877500", "184348.377500", "184349.877500", "184351.377500", "184352.877500", "184354.377500", "184355.877500", "184357.377500", "184358.877500", "184400.377500", "184401.877500", "184403.377500", "184404.877500", "184406.377500", "184407.877500", "184409.377500", "184410.877500", "184412.377500", "184413.877500", "184415.377500", "184416.877500", "184418.377500", "184419.877500", "184421.377500", "184422.877500", "184424.377500", "184425.877500", "184427.377500", "184428.877500", "184430.377500", "184431.877500", "184433.377500", "184434.877500", "184436.377500", "184437.877500", "184439.377500", "184440.877500", "184442.377500", "184443.877500", "184445.377500", "184446.877500", "184448.377500", "184449.877500", "184451.377500", "184452.877500", "184454.377500", "184455.877500", "184457.377500", "184458.877500", "184500.377500", "184501.877500", "184503.377500", "184504.877500", "184506.377500", "184507.877500", "184509.377500", "184510.877500", "184512.377500", "184513.877500", "184515.377500", "184516.877500", "184518.377500", "184519.877500", "184521.377500", "184522.877500", "184524.377500", "184525.877500", "184527.377500", "184528.877500", "184530.377500", "184531.877500", "184533.377500", "184534.877500", "184536.377500", "184537.877500", "184539.377500", "184540.877500", "184542.377500", "184543.877500", "184545.377500", "184546.877500", "184548.377500", "184549.877500", "184551.377500", "184552.877500", "184554.377500", "184555.877500", "184557.377500", "184558.877500", "184600.377500", "184601.877500", "184603.377500", "184604.877500", "184606.377500", "184607.877500", "184609.377500", "184610.877500", "184612.377500", "184613.877500", "184615.377500", "184616.877500", "184618.377500", "184619.877500", "184621.377500"],
      "ContentTime": ["184259.021000", "184259.025000", "184259.028000", "184259.032000", "184259.035000", "184259.038000", "184259.041000", "184259.044000", "184259.047000", "184259.050000", "184259.053000", "184259.056000", "184259.070000", "184259.073000", "184259.076000", "184259.079000", "184259.083000", "184259.086000", "184259.093000", "184259.096000", "184259.099000", "184259.107000", "184259.110000", "184259.113000", "184259.116000", "184259.119000", "184259.122000", "184259.126000", "184339.002000", "184339.005000", "184339.008000", "184339.011000", "184339.015000", "184339.018000", "184339.021000", "184339.024000", "184339.027000", "184339.030000", "184339.033000", "184339.036000", "184339.039000", "184339.042000", "184339.050000", "184339.053000", "184339.056000", "184339.059000", "184339.062000", "184339.065000", "184339.068000", "184339.071000", "184339.074000", "184339.077000", "184339.081000", "184339.084000", "184339.087000", "184419.002000", "184419.006000", "184419.009000", "184419.012000", "184419.015000", "184419.018000", "184419.021000", "184419.024000", "184419.027000", "184419.030000", "184419.033000", "184419.036000", "184419.039000", "184419.055000", "184419.058000", "184419.061000", "184419.064000", "184419.067000", "184419.070000", "184419.073000", "184419.076000", "184419.079000", "184419.082000", "184419.085000", "184419.088000", "184419.091000", "184459.002000", "184459.006000", "184459.009000", "184459.012000", "184459.015000", "184459.018000", "184459.021000", "184459.024000", "184459.027000", "184459.030000", "184459.033000", "184459.036000", "184459.039000", "184459.042000", "184459.045000", "184459.048000", "184459.051000", "184459.055000", "184459.058000", "184459.061000", "184459.064000", "184459.067000", "184459.070000", "184459.073000", "184459.076000", "184459.079000", "184459.090000", "184539.002000", "184539.005000", "184539.008000", "184539.011000", "184539.014000", "184539.018000", "184539.021000", "184539.024000", "184539.027000", "184539.030000", "184539.033000", "184539.036000", "184539.039000", "184539.042000", "184539.045000", "184539.048000", "184539.051000", "184539.054000", "184539.057000", "184539.060000", "184539.063000", "184539.066000", "184539.069000", "184539.072000", "184539.075000", "184539.079000", "184539.082000", "184619.003000", "184619.007000", "184619.010000", "184619.013000", "184619.016000", "184619.019000", "184619.022000", "184619.025000", "184619.028000", "184619.031000", "184619.034000", "184619.037000", "184619.040000", "184619.044000", "184619.048000", "184619.051000", "184619.054000", "184619.057000", "184619.060000", "184619.063000", "184619.066000", "184619.069000", "184619.072000", "184619.075000", "184619.078000", "184619.081000", "184622.320000", "184622.323000", "184622.327000"],
      "InstanceCreationTime": ["184259.021000", "184259.025000", "184259.028000", "184259.032000", "184259.035000", "184259.038000", "184259.041000", "184259.044000", "184259.047000", "184259.050000", "184259.053000", "184259.056000", "184259.070000", "184259.073000", "184259.076000", "184259.079000", "184259.083000", "184259.086000", "184259.093000", "184259.096000", "184259.099000", "184259.107000", "184259.110000", "184259.113000", "184259.116000", "184259.119000", "184259.122000", "184259.126000", "184339.002000", "184339.005000", "184339.008000", "184339.011000", "184339.015000", "184339.018000", "184339.021000", "184339.024000", "184339.027000", "184339.030000", "184339.033000", "184339.036000", "184339.039000", "184339.042000", "184339.050000", "184339.053000", "184339.056000", "184339.059000", "184339.062000", "184339.065000", "184339.068000", "184339.071000", "184339.074000", "184339.077000", "184339.081000", "184339.084000", "184339.087000", "184419.002000", "184419.006000", "184419.009000", "184419.012000", "184419.015000", "184419.018000", "184419.021000", "184419.024000", "184419.027000", "184419.030000", "184419.033000", "184419.036000", "184419.039000", "184419.055000", "184419.058000", "184419.061000", "184419.064000", "184419.067000", "184419.070000", "184419.073000", "184419.076000", "184419.079000", "184419.082000", "184419.085000", "184419.088000", "184419.091000", "184459.002000", "184459.006000", "184459.009000", "184459.012000", "184459.015000", "184459.018000", "184459.021000", "184459.024000", "184459.027000", "184459.030000", "184459.033000", "184459.036000", "184459.039000", "184459.042000", "184459.045000", "184459.048000", "184459.051000", "184459.055000", "184459.058000", "184459.061000", "184459.064000", "184459.067000", "184459.070000", "184459.073000", "184459.076000", "184459.079000", "184459.090000", "184539.002000", "184539.005000", "184539.008000", "184539.011000", "184539.014000", "184539.018000", "184539.021000", "184539.024000", "184539.027000", "184539.030000", "184539.033000", "184539.036000", "184539.039000", "184539.042000", "184539.045000", "184539.048000", "184539.051000", "184539.054000", "184539.057000", "184539.060000", "184539.063000", "184539.066000", "184539.069000", "184539.072000", "184539.075000", "184539.079000", "184539.082000", "184619.003000", "184619.007000", "184619.010000", "184619.013000", "184619.016000", "184619.019000", "184619.022000", "184619.025000", "184619.028000", "184619.031000", "184619.034000", "184619.037000", "184619.040000", "184619.044000", "184619.048000", "184619.051000", "184619.054000", "184619.057000", "184619.060000", "184619.063000", "184619.066000", "184619.069000", "184619.072000", "184619.075000", "184619.078000", "184619.081000", "184622.320000", "184622.323000", "184622.327000"],
      "InstanceNumber": [1, 2, 3, 4, 5, 6, 7, 8, 9, 10, 11, 12, 13, 14, 15, 16, 17, 18, 19, 20, 21, 22, 23, 24, 25, 26, 27, 28, 29, 30, 31, 32, 33, 34, 35, 36, 37, 38, 39, 40, 41, 42, 43, 44, 45, 46, 47, 48, 49, 50, 51, 52, 53, 54, 55, 56, 57, 58, 59, 60, 61, 62, 63, 64, 65, 66, 67, 68, 69, 70, 71, 72, 73, 74, 75, 76, 77, 78, 79, 80, 81, 82, 83, 84, 85, 86, 87, 88, 89, 90, 91, 92, 93, 94, 95, 96, 97, 98, 99, 100, 101, 102, 103, 104, 105, 106, 107, 108, 109, 110, 111, 112, 113, 114, 115, 116, 117, 118, 119, 120, 121, 122, 123, 124, 125, 126, 127, 128, 129, 130, 131, 132, 133, 134, 135, 136, 137, 138, 139, 140, 141, 142, 143, 144, 145, 146, 147, 148, 149, 150, 151, 152, 153, 154, 155, 156, 157, 158, 159, 160, 161, 162, 163, 164],
      "LargestImagePixelValue": [2492, 2438, 2460, 2431, 2433, 2416, 2427, 2397, 2397, 2386, 2415, 2400, 2410, 2432, 2413, 2396, 2402, 2416, 2404, 2410, 2423, 2418, 2408, 2422, 2427, 2440, 2420, 2406, 2416, 2407, 2409, 2402, 2417, 2410, 2426, 2418, 2379, 2380, 2389, 2382, 2414, 2409, 2404, 2402, 2407, 2397, 2390, 2397, 2421, 2397, 2388, 2407, 2403, 2391, 2380, 2387, 2366, 2367, 2387, 2359, 2353, 2351, 2349, 2365, 2366, 2374, 2406, 2367, 2371, 2364, 2333, 2388, 2375, 2380, 2384, 2357, 2340, 2322, 2344, 2357, 2376, 2372, 2390, 2374, 2356, 2365, 2365, 2375, 2372, 2375, 2389, 2399, 2362, 2365, 2365, 2363, 2367, 2415, 2392, 2379, 2356, 2376, 2386, 2383, 2372, 2373, 2374, 2395, 2377, 2373, 2363, 2339, 2346, 2361, 2359, 2360, 2342, 2336, 2322, 2339, 2357, 2344, 2344, 2330, 2343, 2352, 2343, 2339, 2351, 2352, 2357, 2328, 2335, 2342, 2355, 2339, 2366, 2371, 2353, 2357, 2361, 2352, 2384, 2349, 2379, 2362, 2352, 2324, 2338, 2336, 2337, 2343, 2355, 2345, 2363, 2353, 2343, 2353, 2367, 2348, 2368, 2366, 2353, 2350],
      "WindowCenter": [710.0, 706.0, 706.0, 706.0, 706.0, 706.0, 706.0, 705.0, 705.0, 705.0, 705.0, 705.0, 707.0, 707.0, 705.0, 703.0, 703.0, 703.0, 704.0, 704.0, 704.0, 704.0, 704.0, 704.0, 704.0, 704.0, 704.0, 704.0, 705.0, 704.0, 704.0, 703.0, 703.0, 703.0, 703.0, 704.0, 704.0, 704.0, 704.0, 704.0, 704.0, 704.0, 704.0, 704.0, 705.0, 705.0, 704.0, 704.0, 705.0, 706.0, 705.0, 705.0, 704.0, 704.0, 704.0, 704.0, 704.0, 704.0, 704.0, 704.0, 704.0, 704.0, 705.0, 705.0, 704.0, 704.0, 704.0, 705.0, 705.0, 704.0, 703.0, 703.0, 703.0, 704.0, 705.0, 703.0, 703.0, 702.0, 702.0, 703.0, 704.0, 707.0, 707.0, 705.0, 704.0, 704.0, 703.0, 704.0, 704.0, 704.0, 704.0, 706.0, 706.0, 704.0, 703.0, 703.0, 704.0, 706.0, 706.0, 706.0, 705.0, 704.0, 705.0, 705.0, 705.0, 706.0, 705.0, 705.0, 704.0, 704.0, 704.0, 704.0, 704.0, 706.0, 707.0, 707.0, 705.0, 704.0, 704.0, 704.0, 705.0, 705.0, 704.0, 704.0, 703.0, 704.0, 704.0, 704.0, 704.0, 704.0, 705.0, 705.0, 705.0, 705.0, 704.0, 704.0, 705.0, 706.0, 706.0, 706.0, 705.0, 704.0, 706.0, 706.0, 706.0, 705.0, 704.0, 704.0, 704.0, 704.0, 704.0, 704.0, 704.0, 704.0, 704.0, 704.0, 704.0, 704.0, 704.0, 704.0, 705.0, 705.0, 705.0, 705.0],
      "WindowWidth": [1526.0, 1517.0, 1515.0, 1515.0, 1515.0, 1516.0, 1515.0, 1514.0, 1513.0, 1512.0, 1514.0, 1513.0, 1519.0, 1517.0, 1513.0, 1509.0, 1508.0, 1509.0, 1509.0, 1511.0, 1511.0, 1511.0, 1510.0, 1510.0, 1510.0, 1512.0, 1511.0, 1512.0, 1512.0, 1511.0, 1510.0, 1509.0, 1507.0, 1508.0, 1508.0, 1510.0, 1510.0, 1510.0, 1510.0, 1510.0, 1511.0, 1510.0, 1510.0, 1511.0, 1512.0, 1513.0, 1511.0, 1511.0, 1514.0, 1516.0, 1515.0, 1512.0, 1510.0, 1510.0, 1510.0, 1512.0, 1512.0, 1511.0, 1511.0, 1511.0, 1511.0, 1512.0, 1513.0, 1514.0, 1512.0, 1511.0, 1510.0, 1513.0, 1513.0, 1512.0, 1507.0, 1508.0, 1509.0, 1511.0, 1513.0, 1508.0, 1507.0, 1506.0, 1506.0, 1508.0, 1512.0, 1518.0, 1520.0, 1514.0, 1511.0, 1510.0, 1510.0, 1512.0, 1512.0, 1511.0, 1510.0, 1516.0, 1516.0, 1511.0, 1508.0, 1507.0, 1510.0, 1515.0, 1516.0, 1516.0, 1513.0, 1512.0, 1512.0, 1514.0, 1514.0, 1515.0, 1513.0, 1512.0, 1511.0, 1511.0, 1510.0, 1510.0, 1512.0, 1516.0, 1518.0, 1518.0, 1515.0, 1511.0, 1510.0, 1512.0, 1514.0, 1513.0, 1511.0, 1510.0, 1510.0, 1510.0, 1510.0, 1510.0, 1511.0, 1512.0, 1515.0, 1514.0, 1514.0, 1513.0, 1512.0, 1512.0, 1513.0, 1518.0, 1517.0, 1516.0, 1513.0, 1512.0, 1515.0, 1517.0, 1516.0, 1514.0, 1511.0, 1510.0, 1511.0, 1511.0, 1511.0, 1511.0, 1511.0, 1510.0, 1511.0, 1511.0, 1510.0, 1510.0, 1512.0, 1512.0, 1514.0, 1514.0, 1514.0, 1514.0]
    },
    "slices": {}
  }
}