{
  "AcquisitionMatrixPE": 72,
  "AcquisitionNumber": 1,
  "AcquisitionTime": "19:13:55.477500",
  "BandwidthPerPixelPhaseEncode": 17.943,
  "BaseResolution": 96,
  "BodyPartExamined": "BRAIN",
  "CoilCombinationMethod": "Sum of Squares",
  "ConsistencyInfo": "N4_VE11C_LATEST_20160120",
  "ConversionSoftware": "dcm2niix",
  "ConversionSoftwareVersion": "v1.0.20211006",
  "DerivedVendorReportedEchoSpacing": 0.000552897,
  "DeviceSerialNumber": "166011",
  "EchoTime": 0.03,
  "EchoTrainLength": 58,
  "EffectiveEchoSpacing": 0.000580542,
  "FlipAngle": 62,
  "ImageOrientationPatientDICOM": [0.997759, -0.00788598, 0.0664503, 0.016545, 0.991273, -0.130786],
  "ImageType": [
    "ORIGINAL",
    "PRIMARY",
    "M",
    "ND",
    "MOSAIC"
],
  "ImagingFrequency": 123.26,
  "InPlanePhaseEncodingDirectionDICOM": "COL",
  "InstitutionAddress": "West 130th Street 610,NY,NYC,US,10025",
  "InstitutionName": "MBBI",
  "MRAcquisitionType": "2D",
  "MagneticFieldStrength": 3,
  "Manufacturer": "Siemens",
  "ManufacturersModelName": "Prisma",
  "Modality": "MR",
  "MultibandAccelerationFactor": 3,
  "PartialFourier": 0.75,
  "PatientPosition": "HFS",
  "PercentPhaseFOV": 100,
  "PercentSampling": 75,
  "PhaseEncodingDirection": "j-",
  "PhaseEncodingSteps": 58,
  "PhaseOversampling": 0.05,
  "PhaseResolution": 0.75,
  "PixelBandwidth": 2265,
  "ProcedureStepDescription": "White^Word_recognition",
  "ProtocolName": "func_vwfate_run11",
  "PulseSequenceDetails": "%SiemensSeq%\\ep2d_bold",
  "ReceiveCoilActiveElements": "HC1-7",
  "ReceiveCoilName": "HeadNeck_64",
  "ReconMatrixPE": 96,
  "RefLinesPE": 40,
  "RepetitionTime": 1.5,
  "SAR": 0.0426563,
  "ScanOptions": "PFP\\FS",
  "ScanningSequence": "EP",
  "SequenceName": "*epfid2d1_72",
  "SequenceVariant": "SK\\OSP",
  "SeriesDescription": "func_vwfate_run11",
  "SeriesNumber": 14,
  "ShimSetting": [-1132, -1375, 673, 597, -69, 23, -91, -40],
  "SliceThickness": 2,
  "SliceTiming": [1.075, 0, 0.74, 0.0675, 0.8075, 0.135, 0.875, 0.2, 0.94, 0.2675, 1.0075, 0.4025, 1.1425, 0.47, 1.21, 0.5375, 1.2775, 0.605, 1.345, 0.6725, 1.4125, 0.335, 1.075, 0, 0.74, 0.0675, 0.8075, 0.135, 0.875, 0.2, 0.94, 0.2675, 1.0075, 0.4025, 1.1425, 0.47, 1.21, 0.5375, 1.2775, 0.605, 1.345, 0.6725, 1.4125, 0.335, 1.075, 0, 0.74, 0.0675, 0.8075, 0.135, 0.875, 0.2, 0.94, 0.2675, 1.0075, 0.4025, 1.1425, 0.47, 1.21, 0.5375, 1.2775, 0.605, 1.345, 0.6725, 1.4125, 0.335],
  "SoftwareVersions": "syngo MR E11",
  "SpacingBetweenSlices": 2,
  "StationName": "AWP166011",
  "TaskName": "vwfate",
  "TotalReadoutTime": 0.0551515,
  "TxRefAmp": 216.195,
  "dcmmeta_affine": [
    [-1.9955171346664429, 0.033089958131313324, 0.1296779364347458, 95.30524444580078],
    [0.01577196642756462, 1.982545256614685, -0.2631836235523224, -70.84117889404297],
    [0.13290055096149445, 0.26157107949256897, 1.9783625602722168, -80.67530822753906],
    [0.0, 0.0, 0.0, 1.0]
],
  "dcmmeta_reorient_transform": [
    [0.0, -1.0, 0.0, 95.0],
    [1.0, 0.0, 0.0, 0.0],
    [0.0, 0.0, 1.0, 0.0],
    [0.0, 0.0, 0.0, 1.0]
],
  "dcmmeta_shape": [96, 96, 66, 164],
  "dcmmeta_slice_dim": 2,
  "dcmmeta_version": 0.6,
  "global": {
    "const": {
      "AcquisitionMatrix": [96, 0, 0, 72],
      "AngioFlag": "N",
      "BitsAllocated": 16,
      "BitsStored": 12,
      "BodyPartExamined": "BRAIN",
      "Columns": 864,
      "EchoNumbers": 1,
      "EchoTime": 30.0,
      "EchoTrainLength": 58,
      "FlipAngle": 62.0,
      "HighBit": 11,
      "ImageOrientationPatient": [0.99775857389171, -0.0078859830859, 0.06645027837673, 0.01654497895572, 0.99127261960221, -0.1307855393319],
      "ImagePositionPatient": [-877.43391939849, -872.74155298881, -6.416573762041],
      "ImageType": [
        "ORIGINAL",
        "PRIMARY",
        "M",
        "ND",
        "MOSAIC"
],
      "ImagedNucleus": "1H",
      "ImagingFrequency": 123.259544,
      "InPlanePhaseEncodingDirection": "COL",
      "MRAcquisitionType": "2D",
      "MagneticFieldStrength": 3.0,
      "Manufacturer": "SIEMENS",
      "ManufacturerModelName": "Prisma",
      "Modality": "MR",
      "NumberOfAverages": 1.0,
      "NumberOfPhaseEncodingSteps": 58,
      "PercentPhaseFieldOfView": 100.0,
      "PercentSampling": 75.0,
      "PerformedProcedureStepStartTime": "181558.666000",
      "PhotometricInterpretation": "MONOCHROME2",
      "PixelBandwidth": 2265.0,
      "PixelRepresentation": 0,
      "PixelSpacing": [2.0, 2.0],
      "ProtocolName": "func_vwfate_run11",
      "RepetitionTime": 1500.0,
      "Rows": 864,
      "SAR": 0.04265625007314,
      "SamplesPerPixel": 1,
      "ScanOptions": [
        "PFP",
        "FS"
],
      "ScanningSequence": "EP",
      "SequenceName": "*epfid2d1_72",
      "SequenceVariant": [
        "SK",
        "OSP"
],
      "SeriesDescription": "func_vwfate_run11",
      "SeriesNumber": 14,
      "SeriesTime": "191438.907000",
      "SliceLocation": -64.300885720631,
      "SliceThickness": 2.0,
      "SmallestImagePixelValue": 0,
      "SoftwareVersions": "syngo MR E11",
      "SpacingBetweenSlices": 2.0000000502021,
      "SpecificCharacterSet": "ISO_IR 100",
      "StudyID": "2",
      "StudyTime": "181558.613000",
      "TransmitCoilName": "Body",
      "VariableFlipAngleFlag": "N",
      "WindowCenterWidthExplanation": "Algo1",
      "dBdt": 0.0},
    "slices": {}
  },
  "time": {
    "samples": {
      "AcquisitionNumber": [1, 2, 3, 4, 5, 6, 7, 8, 9, 10, 11, 12, 13, 14, 15, 16, 17, 18, 19, 20, 21, 22, 23, 24, 25, 26, 27, 28, 29, 30, 31, 32, 33, 34, 35, 36, 37, 38, 39, 40, 41, 42, 43, 44, 45, 46, 47, 48, 49, 50, 51, 52, 53, 54, 55, 56, 57, 58, 59, 60, 61, 62, 63, 64, 65, 66, 67, 68, 69, 70, 71, 72, 73, 74, 75, 76, 77, 78, 79, 80, 81, 82, 83, 84, 85, 86, 87, 88, 89, 90, 91, 92, 93, 94, 95, 96, 97, 98, 99, 100, 101, 102, 103, 104, 105, 106, 107, 108, 109, 110, 111, 112, 113, 114, 115, 116, 117, 118, 119, 120, 121, 122, 123, 124, 125, 126, 127, 128, 129, 130, 131, 132, 133, 134, 135, 136, 137, 138, 139, 140, 141, 142, 143, 144, 145, 146, 147, 148, 149, 150, 151, 152, 153, 154, 155, 156, 157, 158, 159, 160, 161, 162, 163, 164],
      "AcquisitionTime": ["191355.477500", "191356.977500", "191358.477500", "191359.977500", "191401.477500", "191402.977500", "191404.477500", "191405.977500", "191407.477500", "191408.977500", "191410.477500", "191411.977500", "191413.477500", "191414.977500", "191416.477500", "191417.977500", "191419.477500", "191420.977500", "191422.477500", "191423.977500", "191425.477500", "191426.977500", "191428.477500", "191429.977500", "191431.477500", "191432.977500", "191434.477500", "191435.977500", "191437.477500", "191438.977500", "191440.477500", "191441.977500", "191443.477500", "191444.977500", "191446.477500", "191447.977500", "191449.477500", "191450.977500", "191452.477500", "191453.977500", "191455.477500", "191456.977500", "191458.477500", "191459.977500", "191501.477500", "191502.977500", "191504.477500", "191505.977500", "191507.477500", "191508.977500", "191510.477500", "191511.977500", "191513.477500", "191514.977500", "191516.477500", "191517.977500", "191519.477500", "191520.977500", "191522.477500", "191523.977500", "191525.477500", "191526.977500", "191528.477500", "191529.977500", "191531.477500", "191532.977500", "191534.477500", "191535.977500", "191537.477500", "191538.977500", "191540.477500", "191541.977500", "191543.477500", "191544.977500", "191546.477500", "191547.977500", "191549.477500", "191550.977500", "191552.477500", "191553.977500", "191555.477500", "191556.977500", "191558.477500", "191559.977500", "191601.477500", "191602.977500", "191604.477500", "191605.977500", "191607.477500", "191608.977500", "191610.477500", "191611.977500", "191613.477500", "191614.977500", "191616.477500", "191617.977500", "191619.477500", "191620.977500", "191622.477500", "191623.977500", "191625.477500", "191626.977500", "191628.477500", "191629.977500", "191631.477500", "191632.977500", "191634.477500", "191635.977500", "191637.477500", "191638.977500", "191640.477500", "191641.977500", "191643.477500", "191644.977500", "191646.477500", "191647.977500", "191649.477500", "191650.977500", "191652.477500", "191653.977500", "191655.477500", "191656.977500", "191658.477500", "191659.977500", "191701.477500", "191702.977500", "191704.477500", "191705.977500", "191707.477500", "191708.977500", "191710.477500", "191711.977500", "191713.477500", "191714.977500", "191716.477500", "191717.977500", "191719.477500", "191720.977500", "191722.477500", "191723.977500", "191725.477500", "191726.977500", "191728.477500", "191729.977500", "191731.477500", "191732.977500", "191734.477500", "191735.977500", "191737.477500", "191738.977500", "191740.477500", "191741.977500", "191743.477500", "191744.977500", "191746.477500", "191747.977500", "191749.477500", "191750.977500", "191752.477500", "191753.977500", "191755.477500", "191756.977500", "191758.477500", "191759.977500"],
      "ContentTime": ["191438.911000", "191438.915000", "191438.918000", "191438.921000", "191438.924000", "191438.927000", "191438.930000", "191438.933000", "191438.936000", "191438.940000", "191438.943000", "191438.946000", "191438.949000", "191438.952000", "191438.955000", "191438.958000", "191438.961000", "191438.965000", "191438.968000", "191438.975000", "191438.978000", "191438.981000", "191438.984000", "191438.987000", "191438.990000", "191438.993000", "191438.996000", "191439.000000", "191439.004000", "191518.906000", "191518.909000", "191518.912000", "191518.915000", "191518.918000", "191518.921000", "191518.924000", "191518.927000", "191518.931000", "191518.934000", "191518.937000", "191518.940000", "191518.943000", "191518.946000", "191518.949000", "191518.952000", "191518.961000", "191518.964000", "191518.967000", "191518.970000", "191518.973000", "191518.976000", "191518.979000", "191518.982000", "191518.985000", "191518.988000", "191518.991000", "191558.906000", "191558.909000", "191558.912000", "191558.915000", "191558.918000", "191558.922000", "191558.925000", "191558.928000", "191558.931000", "191558.934000", "191558.937000", "191558.940000", "191558.943000", "191558.946000", "191558.949000", "191558.952000", "191558.955000", "191558.958000", "191558.961000", "191558.964000", "191558.967000", "191558.970000", "191558.973000", "191558.976000", "191558.980000", "191558.984000", "191618.907000", "191618.910000", "191618.913000", "191618.916000", "191618.920000", "191618.923000", "191618.926000", "191618.929000", "191618.932000", "191618.935000", "191618.938000", "191618.941000", "191618.944000", "191618.947000", "191658.906000", "191658.909000", "191658.912000", "191658.916000", "191658.919000", "191658.922000", "191658.925000", "191658.928000", "191658.931000", "191658.934000", "191658.937000", "191658.940000", "191658.943000", "191658.946000", "191658.949000", "191658.952000", "191658.955000", "191658.958000", "191658.962000", "191658.965000", "191658.968000", "191658.970000", "191658.974000", "191658.977000", "191658.980000", "191658.984000", "191738.906000", "191738.909000", "191738.926000", "191738.929000", "191738.932000", "191738.935000", "191738.939000", "191738.942000", "191738.945000", "191738.948000", "191738.951000", "191738.954000", "191738.957000", "191738.960000", "191738.963000", "191738.966000", "191738.969000", "191738.973000", "191738.976000", "191738.979000", "191738.982000", "191738.985000", "191738.988000", "191738.991000", "191738.994000", "191738.997000", "191739.002000", "191800.766000", "191800.770000", "191800.773000", "191800.776000", "191800.779000", "191800.783000", "191800.786000", "191800.789000", "191800.792000", "191800.796000", "191800.799000", "191800.802000", "191800.806000", "191800.810000", "191800.814000"],
      "InstanceCreationTime": ["191438.911000", "191438.915000", "191438.918000", "191438.921000", "191438.924000", "191438.927000", "191438.930000", "191438.933000", "191438.936000", "191438.940000", "191438.943000", "191438.946000", "191438.949000", "191438.952000", "191438.955000", "191438.958000", "191438.961000", "191438.965000", "191438.968000", "191438.975000", "191438.978000", "191438.981000", "191438.984000", "191438.987000", "191438.990000", "191438.993000", "191438.996000", "191439.000000", "191439.004000", "191518.906000", "191518.909000", "191518.912000", "191518.915000", "191518.918000", "191518.921000", "191518.924000", "191518.927000", "191518.931000", "191518.934000", "191518.937000", "191518.940000", "191518.943000", "191518.946000", "191518.949000", "191518.952000", "191518.961000", "191518.964000", "191518.967000", "191518.970000", "191518.973000", "191518.976000", "191518.979000", "191518.982000", "191518.985000", "191518.988000", "191518.991000", "191558.906000", "191558.909000", "191558.912000", "191558.915000", "191558.918000", "191558.922000", "191558.925000", "191558.928000", "191558.931000", "191558.934000", "191558.937000", "191558.940000", "191558.943000", "191558.946000", "191558.949000", "191558.952000", "191558.955000", "191558.958000", "191558.961000", "191558.964000", "191558.967000", "191558.970000", "191558.973000", "191558.976000", "191558.980000", "191558.984000", "191618.907000", "191618.910000", "191618.913000", "191618.916000", "191618.920000", "191618.923000", "191618.926000", "191618.929000", "191618.932000", "191618.935000", "191618.938000", "191618.941000", "191618.944000", "191618.947000", "191658.906000", "191658.909000", "191658.912000", "191658.916000", "191658.919000", "191658.922000", "191658.925000", "191658.928000", "191658.931000", "191658.934000", "191658.937000", "191658.940000", "191658.943000", "191658.946000", "191658.949000", "191658.952000", "191658.955000", "191658.958000", "191658.962000", "191658.965000", "191658.968000", "191658.970000", "191658.974000", "191658.977000", "191658.980000", "191658.984000", "191738.906000", "191738.909000", "191738.926000", "191738.929000", "191738.932000", "191738.935000", "191738.939000", "191738.942000", "191738.945000", "191738.948000", "191738.951000", "191738.954000", "191738.957000", "191738.960000", "191738.963000", "191738.966000", "191738.969000", "191738.973000", "191738.976000", "191738.979000", "191738.982000", "191738.985000", "191738.988000", "191738.991000", "191738.994000", "191738.997000", "191739.002000", "191800.766000", "191800.770000", "191800.773000", "191800.776000", "191800.779000", "191800.783000", "191800.786000", "191800.789000", "191800.792000", "191800.796000", "191800.799000", "191800.802000", "191800.806000", "191800.810000", "191800.814000"],
      "InstanceNumber": [1, 2, 3, 4, 5, 6, 7, 8, 9, 10, 11, 12, 13, 14, 15, 16, 17, 18, 19, 20, 21, 22, 23, 24, 25, 26, 27, 28, 29, 30, 31, 32, 33, 34, 35, 36, 37, 38, 39, 40, 41, 42, 43, 44, 45, 46, 47, 48, 49, 50, 51, 52, 53, 54, 55, 56, 57, 58, 59, 60, 61, 62, 63, 64, 65, 66, 67, 68, 69, 70, 71, 72, 73, 74, 75, 76, 77, 78, 79, 80, 81, 82, 83, 84, 85, 86, 87, 88, 89, 90, 91, 92, 93, 94, 95, 96, 97, 98, 99, 100, 101, 102, 103, 104, 105, 106, 107, 108, 109, 110, 111, 112, 113, 114, 115, 116, 117, 118, 119, 120, 121, 122, 123, 124, 125, 126, 127, 128, 129, 130, 131, 132, 133, 134, 135, 136, 137, 138, 139, 140, 141, 142, 143, 144, 145, 146, 147, 148, 149, 150, 151, 152, 153, 154, 155, 156, 157, 158, 159, 160, 161, 162, 163, 164],
      "LargestImagePixelValue": [2536, 2370, 2330, 2427, 2398, 2395, 2369, 2398, 2374, 2419, 2386, 2389, 2366, 2373, 2384, 2381, 2378, 2400, 2389, 2360, 2375, 2355, 2382, 2388, 2387, 2386, 2367, 2361, 2365, 2402, 2396, 2405, 2382, 2370, 2380, 2359, 2370, 2368, 2381, 2373, 2394, 2378, 2406, 2363, 2381, 2395, 2373, 2361, 2379, 2367, 2372, 2344, 2364, 2371, 2377, 2360, 2405, 2283, 2325, 2330, 2319, 2293, 2303, 2294, 2319, 2294, 2288, 2294, 2288, 2293, 2300, 2302, 2314, 2308, 2281, 2302, 2306, 2316, 2298, 2317, 2307, 2308, 2323, 2303, 2302, 2287, 2309, 2317, 2329, 2306, 2304, 2283, 2313, 2307, 2306, 2314, 2313, 2318, 2321, 2301, 2314, 2314, 2309, 2281, 2313, 2316, 2309, 2291, 2296, 2301, 2303, 2315, 2272, 2271, 2291, 2246, 2259, 2279, 2273, 2293, 2286, 2272, 2279, 2283, 2297, 2269, 2260, 2309, 2303, 2303, 2281, 2311, 2305, 2301, 2299, 2314, 2298, 2318, 2302, 2297, 2313, 2284, 2304, 2285, 2386, 2335, 2377, 2364, 2346, 2332, 2323, 2312, 2341, 2329, 2330, 2308, 2322, 2298, 2301, 2328, 2304, 2342, 2300, 2299],
      "WindowCenter": [710.0, 709.0, 707.0, 707.0, 705.0, 703.0, 702.0, 703.0, 703.0, 704.0, 704.0, 704.0, 704.0, 704.0, 704.0, 704.0, 704.0, 705.0, 705.0, 705.0, 705.0, 705.0, 704.0, 705.0, 705.0, 705.0, 705.0, 706.0, 705.0, 706.0, 707.0, 706.0, 705.0, 704.0, 704.0, 704.0, 705.0, 705.0, 704.0, 704.0, 704.0, 704.0, 704.0, 705.0, 705.0, 705.0, 704.0, 703.0, 703.0, 704.0, 706.0, 705.0, 704.0, 703.0, 703.0, 703.0, 707.0, 706.0, 706.0, 707.0, 706.0, 705.0, 703.0, 703.0, 704.0, 704.0, 704.0, 704.0, 704.0, 704.0, 704.0, 705.0, 705.0, 705.0, 704.0, 705.0, 706.0, 707.0, 708.0, 708.0, 707.0, 707.0, 708.0, 707.0, 706.0, 704.0, 705.0, 705.0, 706.0, 706.0, 706.0, 706.0, 706.0, 706.0, 706.0, 708.0, 708.0, 706.0, 705.0, 705.0, 706.0, 705.0, 704.0, 703.0, 704.0, 703.0, 703.0, 703.0, 706.0, 708.0, 707.0, 706.0, 706.0, 705.0, 705.0, 704.0, 703.0, 704.0, 705.0, 705.0, 705.0, 704.0, 703.0, 703.0, 703.0, 703.0, 704.0, 704.0, 706.0, 707.0, 706.0, 705.0, 704.0, 703.0, 704.0, 705.0, 705.0, 705.0, 706.0, 707.0, 708.0, 707.0, 706.0, 703.0, 704.0, 704.0, 706.0, 706.0, 705.0, 704.0, 704.0, 703.0, 704.0, 704.0, 704.0, 703.0, 703.0, 704.0, 704.0, 704.0, 704.0, 706.0, 707.0, 706.0],
      "WindowWidth": [1530.0, 1524.0, 1520.0, 1520.0, 1514.0, 1509.0, 1506.0, 1508.0, 1508.0, 1511.0, 1511.0, 1512.0, 1511.0, 1512.0, 1511.0, 1512.0, 1510.0, 1513.0, 1513.0, 1513.0, 1513.0, 1513.0, 1511.0, 1512.0, 1513.0, 1513.0, 1514.0, 1515.0, 1514.0, 1518.0, 1519.0, 1516.0, 1513.0, 1511.0, 1510.0, 1512.0, 1514.0, 1512.0, 1511.0, 1510.0, 1510.0, 1511.0, 1512.0, 1512.0, 1513.0, 1513.0, 1511.0, 1509.0, 1509.0, 1511.0, 1515.0, 1514.0, 1511.0, 1509.0, 1508.0, 1508.0, 1518.0, 1517.0, 1517.0, 1519.0, 1517.0, 1513.0, 1509.0, 1508.0, 1510.0, 1511.0, 1512.0, 1511.0, 1512.0, 1512.0, 1512.0, 1513.0, 1514.0, 1513.0, 1512.0, 1513.0, 1516.0, 1519.0, 1521.0, 1521.0, 1518.0, 1518.0, 1521.0, 1519.0, 1516.0, 1511.0, 1513.0, 1512.0, 1515.0, 1516.0, 1515.0, 1515.0, 1516.0, 1516.0, 1517.0, 1521.0, 1521.0, 1516.0, 1514.0, 1514.0, 1517.0, 1514.0, 1510.0, 1509.0, 1510.0, 1509.0, 1509.0, 1509.0, 1516.0, 1522.0, 1519.0, 1516.0, 1517.0, 1514.0, 1512.0, 1509.0, 1509.0, 1511.0, 1514.0, 1514.0, 1513.0, 1512.0, 1509.0, 1508.0, 1508.0, 1508.0, 1510.0, 1511.0, 1516.0, 1519.0, 1518.0, 1513.0, 1510.0, 1509.0, 1510.0, 1513.0, 1514.0, 1514.0, 1515.0, 1519.0, 1521.0, 1518.0, 1515.0, 1509.0, 1512.0, 1511.0, 1515.0, 1516.0, 1513.0, 1511.0, 1510.0, 1509.0, 1511.0, 1510.0, 1510.0, 1509.0, 1509.0, 1511.0, 1512.0, 1511.0, 1511.0, 1517.0, 1517.0, 1515.0]
    },
    "slices": {}
  }
}