{
  "AcquisitionMatrixPE": 72,
  "AcquisitionNumber": 1,
  "AcquisitionTime": "18:48:54.452500",
  "BandwidthPerPixelPhaseEncode": 17.943,
  "BaseResolution": 96,
  "BodyPartExamined": "BRAIN",
  "CoilCombinationMethod": "Sum of Squares",
  "ConsistencyInfo": "N4_VE11C_LATEST_20160120",
  "ConversionSoftware": "dcm2niix",
  "ConversionSoftwareVersion": "v1.0.20211006",
  "DerivedVendorReportedEchoSpacing": 0.000552897,
  "DeviceSerialNumber": "166011",
  "EchoTime": 0.03,
  "EchoTrainLength": 58,
  "EffectiveEchoSpacing": 0.000580542,
  "FlipAngle": 62,
  "ImageOrientationPatientDICOM": [0.997759, -0.00788598, 0.0664503, 0.016545, 0.991273, -0.130786],
  "ImageType": [
    "ORIGINAL",
    "PRIMARY",
    "M",
    "ND",
    "MOSAIC"
],
  "ImagingFrequency": 123.26,
  "InPlanePhaseEncodingDirectionDICOM": "COL",
  "InstitutionAddress": "West 130th Street 610,NY,NYC,US,10025",
  "InstitutionName": "MBBI",
  "MRAcquisitionType": "2D",
  "MagneticFieldStrength": 3,
  "Manufacturer": "Siemens",
  "ManufacturersModelName": "Prisma",
  "Modality": "MR",
  "MultibandAccelerationFactor": 3,
  "PartialFourier": 0.75,
  "PatientPosition": "HFS",
  "PercentPhaseFOV": 100,
  "PercentSampling": 75,
  "PhaseEncodingDirection": "j-",
  "PhaseEncodingSteps": 58,
  "PhaseOversampling": 0.05,
  "PhaseResolution": 0.75,
  "PixelBandwidth": 2265,
  "ProcedureStepDescription": "White^Word_recognition",
  "ProtocolName": "func_catLoc_run3",
  "PulseSequenceDetails": "%SiemensSeq%\\ep2d_bold",
  "ReceiveCoilActiveElements": "HC1-7",
  "ReceiveCoilName": "HeadNeck_64",
  "ReconMatrixPE": 96,
  "RefLinesPE": 40,
  "RepetitionTime": 1.5,
  "SAR": 0.0427897,
  "ScanOptions": "PFP\\FS",
  "ScanningSequence": "EP",
  "SequenceName": "*epfid2d1_72",
  "SequenceVariant": "SK\\OSP",
  "SeriesDescription": "func_catLoc_run3",
  "SeriesNumber": 10,
  "ShimSetting": [-1132, -1375, 673, 597, -69, 23, -91, -40],
  "SliceThickness": 2,
  "SliceTiming": [1.075, 0, 0.74, 0.0675, 0.8075, 0.135, 0.875, 0.2, 0.94, 0.2675, 1.0075, 0.4025, 1.1425, 0.47, 1.21, 0.5375, 1.2775, 0.605, 1.345, 0.6725, 1.4125, 0.335, 1.075, 0, 0.74, 0.0675, 0.8075, 0.135, 0.875, 0.2, 0.94, 0.2675, 1.0075, 0.4025, 1.1425, 0.47, 1.21, 0.5375, 1.2775, 0.605, 1.345, 0.6725, 1.4125, 0.335, 1.075, 0, 0.74, 0.0675, 0.8075, 0.135, 0.875, 0.2, 0.94, 0.2675, 1.0075, 0.4025, 1.1425, 0.47, 1.21, 0.5375, 1.2775, 0.605, 1.345, 0.6725, 1.4125, 0.335],
  "SoftwareVersions": "syngo MR E11",
  "SpacingBetweenSlices": 2,
  "StationName": "AWP166011",
  "TaskName": "catLoc",
  "TotalReadoutTime": 0.0551515,
  "TxRefAmp": 216.195,
  "dcmmeta_affine": [
    [-1.9955171346664429, 0.033089958131313324, 0.1296779364347458, 95.30524444580078],
    [0.01577196642756462, 1.982545256614685, -0.2631836235523224, -70.84117889404297],
    [0.13290055096149445, 0.26157107949256897, 1.9783625602722168, -80.67530822753906],
    [0.0, 0.0, 0.0, 1.0]
],
  "dcmmeta_reorient_transform": [
    [0.0, -1.0, 0.0, 95.0],
    [1.0, 0.0, 0.0, 0.0],
    [0.0, 0.0, 1.0, 0.0],
    [0.0, 0.0, 0.0, 1.0]
],
  "dcmmeta_shape": [96, 96, 66, 214],
  "dcmmeta_slice_dim": 2,
  "dcmmeta_version": 0.6,
  "global": {
    "const": {
      "AcquisitionMatrix": [96, 0, 0, 72],
      "AngioFlag": "N",
      "BitsAllocated": 16,
      "BitsStored": 12,
      "BodyPartExamined": "BRAIN",
      "Columns": 864,
      "EchoNumbers": 1,
      "EchoTime": 30.0,
      "EchoTrainLength": 58,
      "FlipAngle": 62.0,
      "HighBit": 11,
      "ImageOrientationPatient": [0.99775857389171, -0.0078859830859, 0.06645027837673, 0.01654497895572, 0.99127261960221, -0.1307855393319],
      "ImagePositionPatient": [-877.43391939849, -872.74155298881, -6.416573762041],
      "ImageType": [
        "ORIGINAL",
        "PRIMARY",
        "M",
        "ND",
        "MOSAIC"
],
      "ImagedNucleus": "1H",
      "ImagingFrequency": 123.259539,
      "InPlanePhaseEncodingDirection": "COL",
      "MRAcquisitionType": "2D",
      "MagneticFieldStrength": 3.0,
      "Manufacturer": "SIEMENS",
      "ManufacturerModelName": "Prisma",
      "Modality": "MR",
      "NumberOfAverages": 1.0,
      "NumberOfPhaseEncodingSteps": 58,
      "PercentPhaseFieldOfView": 100.0,
      "PercentSampling": 75.0,
      "PerformedProcedureStepStartTime": "181558.666000",
      "PhotometricInterpretation": "MONOCHROME2",
      "PixelBandwidth": 2265.0,
      "PixelRepresentation": 0,
      "PixelSpacing": [2.0, 2.0],
      "ProtocolName": "func_catLoc_run3",
      "RepetitionTime": 1500.0,
      "Rows": 864,
      "SAR": 0.04278974196706,
      "SamplesPerPixel": 1,
      "ScanOptions": [
        "PFP",
        "FS"
],
      "ScanningSequence": "EP",
      "SequenceName": "*epfid2d1_72",
      "SequenceVariant": [
        "SK",
        "OSP"
],
      "SeriesDescription": "func_catLoc_run3",
      "SeriesNumber": 10,
      "SeriesTime": "184942.616000",
      "SliceLocation": -64.300885720631,
      "SliceThickness": 2.0,
      "SmallestImagePixelValue": 0,
      "SoftwareVersions": "syngo MR E11",
      "SpacingBetweenSlices": 2.0000000502021,
      "SpecificCharacterSet": "ISO_IR 100",
      "StudyID": "2",
      "StudyTime": "181558.613000",
      "TransmitCoilName": "Body",
      "VariableFlipAngleFlag": "N",
      "WindowCenterWidthExplanation": "Algo1",
      "dBdt": 0.0},
    "slices": {}
  },
  "time": {
    "samples": {
      "AcquisitionNumber": [1, 2, 3, 4, 5, 6, 7, 8, 9, 10, 11, 12, 13, 14, 15, 16, 17, 18, 19, 20, 21, 22, 23, 24, 25, 26, 27, 28, 29, 30, 31, 32, 33, 34, 35, 36, 37, 38, 39, 40, 41, 42, 43, 44, 45, 46, 47, 48, 49, 50, 51, 52, 53, 54, 55, 56, 57, 58, 59, 60, 61, 62, 63, 64, 65, 66, 67, 68, 69, 70, 71, 72, 73, 74, 75, 76, 77, 78, 79, 80, 81, 82, 83, 84, 85, 86, 87, 88, 89, 90, 91, 92, 93, 94, 95, 96, 97, 98, 99, 100, 101, 102, 103, 104, 105, 106, 107, 108, 109, 110, 111, 112, 113, 114, 115, 116, 117, 118, 119, 120, 121, 122, 123, 124, 125, 126, 127, 128, 129, 130, 131, 132, 133, 134, 135, 136, 137, 138, 139, 140, 141, 142, 143, 144, 145, 146, 147, 148, 149, 150, 151, 152, 153, 154, 155, 156, 157, 158, 159, 160, 161, 162, 163, 164, 165, 166, 167, 168, 169, 170, 171, 172, 173, 174, 175, 176, 177, 178, 179, 180, 181, 182, 183, 184, 185, 186, 187, 188, 189, 190, 191, 192, 193, 194, 195, 196, 197, 198, 199, 200, 201, 202, 203, 204, 205, 206, 207, 208, 209, 210, 211, 212, 213, 214],
      "AcquisitionTime": ["184854.452500", "184855.952500", "184857.452500", "184858.952500", "184900.452500", "184901.952500", "184903.452500", "184904.952500", "184906.452500", "184907.952500", "184909.452500", "184910.952500", "184912.452500", "184913.952500", "184915.452500", "184916.952500", "184918.452500", "184919.952500", "184921.452500", "184922.952500", "184924.452500", "184925.952500", "184927.452500", "184928.952500", "184930.452500", "184931.952500", "184933.452500", "184934.952500", "184936.452500", "184937.952500", "184939.452500", "184940.952500", "184942.452500", "184943.952500", "184945.452500", "184946.952500", "184948.452500", "184949.952500", "184951.452500", "184952.952500", "184954.452500", "184955.952500", "184957.452500", "184958.952500", "185000.452500", "185001.952500", "185003.452500", "185004.952500", "185006.452500", "185007.952500", "185009.452500", "185010.952500", "185012.452500", "185013.952500", "185015.452500", "185016.952500", "185018.452500", "185019.952500", "185021.452500", "185022.952500", "185024.452500", "185025.952500", "185027.452500", "185028.952500", "185030.452500", "185031.952500", "185033.452500", "185034.952500", "185036.452500", "185037.952500", "185039.452500", "185040.952500", "185042.452500", "185043.952500", "185045.452500", "185046.952500", "185048.452500", "185049.952500", "185051.452500", "185052.952500", "185054.452500", "185055.952500", "185057.452500", "185058.952500", "185100.452500", "185101.952500", "185103.452500", "185104.952500", "185106.452500", "185107.952500", "185109.452500", "185110.952500", "185112.452500", "185113.952500", "185115.452500", "185116.952500", "185118.452500", "185119.952500", "185121.452500", "185122.952500", "185124.452500", "185125.952500", "185127.452500", "185128.952500", "185130.452500", "185131.952500", "185133.452500", "185134.952500", "185136.452500", "185137.952500", "185139.452500", "185140.952500", "185142.452500", "185143.952500", "185145.452500", "185146.952500", "185148.452500", "185149.952500", "185151.452500", "185152.952500", "185154.452500", "185155.952500", "185157.452500", "185158.952500", "185200.452500", "185201.952500", "185203.452500", "185204.952500", "185206.452500", "185207.952500", "185209.452500", "185210.952500", "185212.452500", "185213.952500", "185215.452500", "185216.952500", "185218.452500", "185219.952500", "185221.452500", "185222.952500", "185224.452500", "185225.952500", "185227.452500", "185228.952500", "185230.452500", "185231.952500", "185233.452500", "185234.952500", "185236.452500", "185237.952500", "185239.452500", "185240.952500", "185242.452500", "185243.952500", "185245.452500", "185246.952500", "185248.452500", "185249.952500", "185251.452500", "185252.952500", "185254.452500", "185255.952500", "185257.452500", "185258.952500", "185300.452500", "185301.952500", "185303.452500", "185304.952500", "185306.452500", "185307.952500", "185309.452500", "185310.952500", "185312.452500", "185313.952500", "185315.452500", "185316.952500", "185318.452500", "185319.952500", "185321.452500", "185322.952500", "185324.452500", "185325.952500", "185327.452500", "185328.952500", "185330.452500", "185331.952500", "185333.452500", "185334.952500", "185336.452500", "185337.952500", "185339.452500", "185340.952500", "185342.452500", "185343.952500", "185345.452500", "185346.952500", "185348.452500", "185349.952500", "185351.452500", "185352.952500", "185354.452500", "185355.952500", "185357.452500", "185358.952500", "185400.452500", "185401.952500", "185403.452500", "185404.952500", "185406.452500", "185407.952500", "185409.452500", "185410.952500", "185412.452500", "185413.952500"],
      "ContentTime": ["184942.620000", "184942.624000", "184942.627000", "184942.638000", "184942.641000", "184942.644000", "184942.647000", "184942.650000", "184942.653000", "184942.656000", "184942.659000", "184942.662000", "184942.665000", "184942.670000", "184942.673000", "184942.676000", "184942.679000", "184942.682000", "184942.685000", "184942.688000", "184942.691000", "184942.695000", "184942.698000", "184942.701000", "184942.704000", "184942.707000", "184942.710000", "184942.713000", "184942.716000", "184942.719000", "184942.722000", "184942.725000", "185022.615000", "185022.618000", "185022.621000", "185022.624000", "185022.628000", "185022.631000", "185022.634000", "185022.637000", "185022.640000", "185022.643000", "185022.646000", "185022.649000", "185022.657000", "185022.660000", "185022.663000", "185022.666000", "185022.669000", "185022.672000", "185022.675000", "185022.678000", "185022.681000", "185022.684000", "185022.687000", "185022.690000", "185022.693000", "185022.696000", "185022.699000", "185102.615000", "185102.629000", "185102.632000", "185102.635000", "185102.638000", "185102.641000", "185102.644000", "185102.647000", "185102.650000", "185102.654000", "185102.657000", "185102.660000", "185102.663000", "185102.666000", "185102.669000", "185102.672000", "185102.675000", "185102.678000", "185102.681000", "185102.684000", "185102.687000", "185102.691000", "185102.695000", "185102.698000", "185102.701000", "185102.705000", "185142.615000", "185142.619000", "185142.622000", "185142.625000", "185142.628000", "185142.631000", "185142.634000", "185142.637000", "185142.640000", "185142.643000", "185142.646000", "185142.649000", "185142.652000", "185142.655000", "185142.658000", "185142.661000", "185142.664000", "185142.667000", "185142.670000", "185142.673000", "185142.676000", "185142.680000", "185142.683000", "185142.686000", "185142.689000", "185142.692000", "185142.695000", "185222.615000", "185222.618000", "185222.621000", "185222.624000", "185222.628000", "185222.631000", "185222.634000", "185222.637000", "185222.640000", "185222.643000", "185222.646000", "185222.649000", "185222.676000", "185222.679000", "185222.683000", "185222.686000", "185222.691000", "185222.694000", "185222.697000", "185222.700000", "185222.703000", "185222.706000", "185222.709000", "185222.712000", "185222.715000", "185222.719000", "185222.721000", "185302.615000", "185302.619000", "185302.622000", "185302.625000", "185302.628000", "185302.631000", "185302.634000", "185302.637000", "185302.640000", "185302.643000", "185302.646000", "185302.649000", "185302.652000", "185302.656000", "185302.659000", "185302.662000", "185302.665000", "185302.668000", "185302.671000", "185302.674000", "185302.677000", "185302.680000", "185302.683000", "185302.686000", "185302.689000", "185302.692000", "185342.615000", "185342.618000", "185342.621000", "185342.625000", "185342.628000", "185342.631000", "185342.634000", "185342.637000", "185342.640000", "185342.644000", "185342.647000", "185342.650000", "185342.653000", "185342.656000", "185342.659000", "185342.662000", "185342.665000", "185342.668000", "185342.671000", "185342.674000", "185342.677000", "185342.681000", "185342.684000", "185342.687000", "185342.690000", "185342.693000", "185342.696000", "185414.704000", "185414.707000", "185414.711000", "185414.714000", "185414.717000", "185414.720000", "185414.724000", "185414.727000", "185414.730000", "185414.733000", "185414.736000", "185414.739000", "185414.742000", "185414.746000", "185414.749000", "185414.752000", "185414.755000", "185414.758000", "185414.762000", "185414.765000", "185414.768000", "185414.772000"],
      "InstanceCreationTime": ["184942.620000", "184942.624000", "184942.627000", "184942.638000", "184942.641000", "184942.644000", "184942.647000", "184942.650000", "184942.653000", "184942.656000", "184942.659000", "184942.662000", "184942.665000", "184942.670000", "184942.673000", "184942.676000", "184942.679000", "184942.682000", "184942.685000", "184942.688000", "184942.691000", "184942.695000", "184942.698000", "184942.701000", "184942.704000", "184942.707000", "184942.710000", "184942.713000", "184942.716000", "184942.719000", "184942.722000", "184942.725000", "185022.615000", "185022.618000", "185022.621000", "185022.624000", "185022.628000", "185022.631000", "185022.634000", "185022.637000", "185022.640000", "185022.643000", "185022.646000", "185022.649000", "185022.657000", "185022.660000", "185022.663000", "185022.666000", "185022.669000", "185022.672000", "185022.675000", "185022.678000", "185022.681000", "185022.684000", "185022.687000", "185022.690000", "185022.693000", "185022.696000", "185022.699000", "185102.615000", "185102.629000", "185102.632000", "185102.635000", "185102.638000", "185102.641000", "185102.644000", "185102.647000", "185102.650000", "185102.654000", "185102.657000", "185102.660000", "185102.663000", "185102.666000", "185102.669000", "185102.672000", "185102.675000", "185102.678000", "185102.681000", "185102.684000", "185102.687000", "185102.691000", "185102.695000", "185102.698000", "185102.701000", "185102.705000", "185142.615000", "185142.619000", "185142.622000", "185142.625000", "185142.628000", "185142.631000", "185142.634000", "185142.637000", "185142.640000", "185142.643000", "185142.646000", "185142.649000", "185142.652000", "185142.655000", "185142.658000", "185142.661000", "185142.664000", "185142.667000", "185142.670000", "185142.673000", "185142.676000", "185142.680000", "185142.683000", "185142.686000", "185142.689000", "185142.692000", "185142.695000", "185222.615000", "185222.618000", "185222.621000", "185222.624000", "185222.628000", "185222.631000", "185222.634000", "185222.637000", "185222.640000", "185222.643000", "185222.646000", "185222.649000", "185222.676000", "185222.679000", "185222.683000", "185222.686000", "185222.691000", "185222.694000", "185222.697000", "185222.700000", "185222.703000", "185222.706000", "185222.709000", "185222.712000", "185222.715000", "185222.719000", "185222.721000", "185302.615000", "185302.619000", "185302.622000", "185302.625000", "185302.628000", "185302.631000", "185302.634000", "185302.637000", "185302.640000", "185302.643000", "185302.646000", "185302.649000", "185302.652000", "185302.656000", "185302.659000", "185302.662000", "185302.665000", "185302.668000", "185302.671000", "185302.674000", "185302.677000", "185302.680000", "185302.683000", "185302.686000", "185302.689000", "185302.692000", "185342.615000", "185342.618000", "185342.621000", "185342.625000", "185342.628000", "185342.631000", "185342.634000", "185342.637000", "185342.640000", "185342.644000", "185342.647000", "185342.650000", "185342.653000", "185342.656000", "185342.659000", "185342.662000", "185342.665000", "185342.668000", "185342.671000", "185342.674000", "185342.677000", "185342.681000", "185342.684000", "185342.687000", "185342.690000", "185342.693000", "185342.696000", "185414.704000", "185414.707000", "185414.711000", "185414.714000", "185414.717000", "185414.720000", "185414.724000", "185414.727000", "185414.730000", "185414.733000", "185414.736000", "185414.739000", "185414.742000", "185414.746000", "185414.749000", "185414.752000", "185414.755000", "185414.758000", "185414.762000", "185414.765000", "185414.768000", "185414.772000"],
      "InstanceNumber": [1, 2, 3, 4, 5, 6, 7, 8, 9, 10, 11, 12, 13, 14, 15, 16, 17, 18, 19, 20, 21, 22, 23, 24, 25, 26, 27, 28, 29, 30, 31, 32, 33, 34, 35, 36, 37, 38, 39, 40, 41, 42, 43, 44, 45, 46, 47, 48, 49, 50, 51, 52, 53, 54, 55, 56, 57, 58, 59, 60, 61, 62, 63, 64, 65, 66, 67, 68, 69, 70, 71, 72, 73, 74, 75, 76, 77, 78, 79, 80, 81, 82, 83, 84, 85, 86, 87, 88, 89, 90, 91, 92, 93, 94, 95, 96, 97, 98, 99, 100, 101, 102, 103, 104, 105, 106, 107, 108, 109, 110, 111, 112, 113, 114, 115, 116, 117, 118, 119, 120, 121, 122, 123, 124, 125, 126, 127, 128, 129, 130, 131, 132, 133, 134, 135, 136, 137, 138, 139, 140, 141, 142, 143, 144, 145, 146, 147, 148, 149, 150, 151, 152, 153, 154, 155, 156, 157, 158, 159, 160, 161, 162, 163, 164, 165, 166, 167, 168, 169, 170, 171, 172, 173, 174, 175, 176, 177, 178, 179, 180, 181, 182, 183, 184, 185, 186, 187, 188, 189, 190, 191, 192, 193, 194, 195, 196, 197, 198, 199, 200, 201, 202, 203, 204, 205, 206, 207, 208, 209, 210, 211, 212, 213, 214],
      "LargestImagePixelValue": [2507, 2461, 2450, 2430, 2443, 2411, 2440, 2438, 2434, 2413, 2434, 2460, 2455, 2442, 2446, 2407, 2436, 2433, 2447, 2445, 2456, 2433, 2394, 2430, 2450, 2444, 2444, 2441, 2438, 2452, 2411, 2419, 2416, 2429, 2415, 2451, 2398, 2415, 2410, 2417, 2415, 2398, 2396, 2411, 2409, 2384, 2386, 2379, 2382, 2396, 2400, 2390, 2390, 2407, 2418, 2414, 2411, 2394, 2408, 2358, 2376, 2391, 2382, 2403, 2380, 2370, 2353, 2369, 2339, 2352, 2355, 2347, 2343, 2365, 2349, 2345, 2387, 2354, 2350, 2356, 2388, 2355, 2384, 2384, 2371, 2370, 2352, 2339, 2331, 2344, 2325, 2353, 2340, 2353, 2365, 2365, 2326, 2337, 2342, 2364, 2348, 2380, 2363, 2346, 2344, 2331, 2351, 2354, 2348, 2332, 2331, 2341, 2348, 2362, 2322, 2336, 2354, 2368, 2402, 2416, 2425, 2416, 2397, 2424, 2439, 2447, 2432, 2446, 2433, 2455, 2438, 2445, 2443, 2439, 2465, 2445, 2463, 2461, 2452, 2433, 2442, 2454, 2468, 2447, 2446, 2424, 2422, 2417, 2433, 2437, 2440, 2473, 2470, 2446, 2453, 2464, 2471, 2452, 2457, 2476, 2470, 2475, 2468, 2436, 2481, 2469, 2479, 2476, 2467, 2455, 2447, 2470, 2462, 2443, 2463, 2471, 2475, 2457, 2433, 2446, 2470, 2460, 2459, 2430, 2430, 2462, 2440, 2438, 2445, 2434, 2446, 2464, 2464, 2441, 2457, 2470, 2463, 2470, 2455, 2470, 2449, 2461, 2474, 2476, 2492, 2490, 2472, 2452, 2470, 2495, 2474, 2502, 2473, 2483],
      "WindowCenter": [707.0, 704.0, 703.0, 702.0, 702.0, 703.0, 703.0, 704.0, 704.0, 704.0, 704.0, 705.0, 705.0, 704.0, 703.0, 703.0, 704.0, 704.0, 705.0, 704.0, 704.0, 704.0, 704.0, 704.0, 705.0, 706.0, 705.0, 704.0, 704.0, 705.0, 705.0, 705.0, 705.0, 705.0, 705.0, 705.0, 704.0, 707.0, 706.0, 705.0, 703.0, 703.0, 703.0, 705.0, 706.0, 706.0, 704.0, 703.0, 703.0, 704.0, 704.0, 704.0, 704.0, 704.0, 706.0, 708.0, 706.0, 705.0, 704.0, 703.0, 703.0, 704.0, 705.0, 706.0, 706.0, 705.0, 704.0, 704.0, 704.0, 704.0, 703.0, 703.0, 703.0, 703.0, 704.0, 704.0, 705.0, 704.0, 703.0, 702.0, 702.0, 703.0, 704.0, 706.0, 706.0, 704.0, 702.0, 702.0, 701.0, 701.0, 702.0, 703.0, 704.0, 704.0, 704.0, 704.0, 703.0, 703.0, 703.0, 702.0, 703.0, 703.0, 705.0, 704.0, 703.0, 702.0, 701.0, 702.0, 702.0, 703.0, 704.0, 704.0, 704.0, 705.0, 703.0, 703.0, 703.0, 704.0, 707.0, 707.0, 706.0, 704.0, 702.0, 703.0, 704.0, 704.0, 703.0, 704.0, 704.0, 704.0, 704.0, 704.0, 704.0, 704.0, 704.0, 704.0, 704.0, 705.0, 705.0, 705.0, 705.0, 705.0, 705.0, 704.0, 704.0, 704.0, 703.0, 703.0, 703.0, 703.0, 703.0, 704.0, 706.0, 707.0, 705.0, 703.0, 703.0, 703.0, 703.0, 705.0, 705.0, 705.0, 703.0, 703.0, 703.0, 704.0, 705.0, 705.0, 704.0, 703.0, 703.0, 702.0, 702.0, 702.0, 703.0, 704.0, 705.0, 704.0, 703.0, 703.0, 704.0, 705.0, 706.0, 704.0, 702.0, 702.0, 702.0, 702.0, 703.0, 703.0, 703.0, 703.0, 703.0, 703.0, 703.0, 703.0, 703.0, 703.0, 703.0, 704.0, 704.0, 704.0, 704.0, 703.0, 703.0, 704.0, 705.0, 705.0, 705.0, 704.0, 704.0, 704.0, 704.0, 703.0],
      "WindowWidth": [1518.0, 1511.0, 1508.0, 1506.0, 1506.0, 1507.0, 1509.0, 1510.0, 1510.0, 1510.0, 1511.0, 1512.0, 1512.0, 1510.0, 1509.0, 1508.0, 1510.0, 1512.0, 1512.0, 1511.0, 1511.0, 1510.0, 1510.0, 1511.0, 1514.0, 1515.0, 1514.0, 1512.0, 1512.0, 1513.0, 1513.0, 1513.0, 1513.0, 1513.0, 1513.0, 1514.0, 1512.0, 1520.0, 1516.0, 1512.0, 1508.0, 1507.0, 1509.0, 1514.0, 1517.0, 1515.0, 1511.0, 1509.0, 1508.0, 1510.0, 1511.0, 1511.0, 1511.0, 1511.0, 1515.0, 1520.0, 1516.0, 1512.0, 1510.0, 1508.0, 1510.0, 1512.0, 1514.0, 1516.0, 1515.0, 1514.0, 1512.0, 1512.0, 1510.0, 1510.0, 1509.0, 1508.0, 1508.0, 1509.0, 1510.0, 1511.0, 1514.0, 1512.0, 1509.0, 1506.0, 1507.0, 1507.0, 1510.0, 1517.0, 1516.0, 1511.0, 1506.0, 1504.0, 1504.0, 1504.0, 1506.0, 1509.0, 1511.0, 1511.0, 1510.0, 1510.0, 1509.0, 1509.0, 1508.0, 1507.0, 1508.0, 1508.0, 1514.0, 1511.0, 1508.0, 1505.0, 1504.0, 1504.0, 1507.0, 1508.0, 1510.0, 1511.0, 1511.0, 1512.0, 1508.0, 1507.0, 1509.0, 1511.0, 1519.0, 1519.0, 1516.0, 1510.0, 1507.0, 1508.0, 1510.0, 1512.0, 1509.0, 1512.0, 1512.0, 1511.0, 1510.0, 1510.0, 1510.0, 1510.0, 1511.0, 1511.0, 1511.0, 1513.0, 1515.0, 1514.0, 1514.0, 1513.0, 1513.0, 1511.0, 1511.0, 1511.0, 1509.0, 1509.0, 1509.0, 1508.0, 1509.0, 1512.0, 1516.0, 1518.0, 1514.0, 1509.0, 1508.0, 1508.0, 1507.0, 1513.0, 1514.0, 1512.0, 1508.0, 1508.0, 1509.0, 1512.0, 1514.0, 1513.0, 1511.0, 1509.0, 1508.0, 1507.0, 1507.0, 1507.0, 1509.0, 1512.0, 1513.0, 1511.0, 1509.0, 1508.0, 1511.0, 1514.0, 1516.0, 1510.0, 1506.0, 1504.0, 1505.0, 1506.0, 1508.0, 1509.0, 1508.0, 1508.0, 1507.0, 1507.0, 1507.0, 1508.0, 1508.0, 1509.0, 1509.0, 1510.0, 1511.0, 1511.0, 1510.0, 1509.0, 1509.0, 1512.0, 1514.0, 1514.0, 1513.0, 1511.0, 1510.0, 1511.0, 1511.0, 1509.0]
    },
    "slices": {}
  }
}