{
  "AcquisitionMatrixPE": 72,
  "AcquisitionNumber": 1,
  "AcquisitionTime": "08:26:19.842500",
  "BandwidthPerPixelPhaseEncode": 17.943,
  "BaseResolution": 96,
  "BodyPartExamined": "BRAIN",
  "CoilCombinationMethod": "Sum of Squares",
  "ConsistencyInfo": "N4_VE11C_LATEST_20160120",
  "ConversionSoftware": "dcm2niix",
  "ConversionSoftwareVersion": "v1.0.20211006",
  "DerivedVendorReportedEchoSpacing": 0.000552897,
  "DeviceSerialNumber": "166011",
  "EchoTime": 0.03,
  "EchoTrainLength": 58,
  "EffectiveEchoSpacing": 0.000580542,
  "FlipAngle": 62,
  "ImageOrientationPatientDICOM": [0.999873, -0.0137172, -0.00810186, 0.01274, 0.993813, -0.110337],
  "ImageType": [
    "ORIGINAL",
    "PRIMARY",
    "M",
    "ND",
    "MOSAIC"
],
  "ImagingFrequency": 123.26,
  "InPlanePhaseEncodingDirectionDICOM": "COL",
  "InstitutionAddress": "West 130th Street 610,NY,NYC,US,10025",
  "InstitutionName": "MBBI",
  "MRAcquisitionType": "2D",
  "MagneticFieldStrength": 3,
  "Manufacturer": "Siemens",
  "ManufacturersModelName": "Prisma",
  "Modality": "MR",
  "MultibandAccelerationFactor": 3,
  "PartialFourier": 0.75,
  "PatientPosition": "HFS",
  "PercentPhaseFOV": 100,
  "PercentSampling": 75,
  "PhaseEncodingDirection": "j-",
  "PhaseEncodingSteps": 58,
  "PhaseOversampling": 0.05,
  "PhaseResolution": 0.75,
  "PixelBandwidth": 2265,
  "ProcedureStepDescription": "White^Word_recognition",
  "ProtocolName": "func_vwfate_run13",
  "PulseSequenceDetails": "%SiemensSeq%\\ep2d_bold",
  "ReceiveCoilActiveElements": "HC1-7",
  "ReceiveCoilName": "HeadNeck_64",
  "ReconMatrixPE": 96,
  "RefLinesPE": 40,
  "RepetitionTime": 1.5,
  "SAR": 0.0522684,
  "ScanOptions": "PFP\\FS",
  "ScanningSequence": "EP",
  "SequenceName": "*epfid2d1_72",
  "SequenceVariant": "SK\\OSP",
  "SeriesDescription": "func_vwfate_run13",
  "SeriesNumber": 8,
  "ShimSetting": [-1155, -1368, 682, 508, -46, 141, -26, -32],
  "SliceThickness": 2,
  "SliceTiming": [1.0775, 0, 0.74, 0.0675, 0.8075, 0.135, 0.875, 0.2025, 0.9425, 0.27, 1.01, 0.405, 1.145, 0.47, 1.21, 0.5375, 1.2775, 0.605, 1.345, 0.6725, 1.4125, 0.3375, 1.0775, 0, 0.74, 0.0675, 0.8075, 0.135, 0.875, 0.2025, 0.9425, 0.27, 1.01, 0.405, 1.145, 0.47, 1.21, 0.5375, 1.2775, 0.605, 1.345, 0.6725, 1.4125, 0.3375, 1.0775, 0, 0.74, 0.0675, 0.8075, 0.135, 0.875, 0.2025, 0.9425, 0.27, 1.01, 0.405, 1.145, 0.47, 1.21, 0.5375, 1.2775, 0.605, 1.345, 0.6725, 1.4125, 0.3375],
  "SoftwareVersions": "syngo MR E11",
  "SpacingBetweenSlices": 2,
  "StationName": "AWP166011",
  "TaskName": "vwfate",
  "TotalReadoutTime": 0.0551515,
  "TxRefAmp": 230.04,
  "dcmmeta_affine": [
    [-1.9997462034225464, 0.02547992579638958, -0.01913047581911087, 98.80683898925781],
    [0.02743431180715561, 1.9876251220703125, -0.22043980658054352, -67.00836944580078],
    [-0.016203712671995163, 0.22067424654960632, 1.987722396850586, -66.96204376220703],
    [0.0, 0.0, 0.0, 1.0]
],
  "dcmmeta_reorient_transform": [
    [0.0, -1.0, 0.0, 95.0],
    [1.0, 0.0, 0.0, 0.0],
    [0.0, 0.0, 1.0, 0.0],
    [0.0, 0.0, 0.0, 1.0]
],
  "dcmmeta_shape": [96, 96, 66, 164],
  "dcmmeta_slice_dim": 2,
  "dcmmeta_version": 0.6,
  "global": {
    "const": {
      "AcquisitionMatrix": [96, 0, 0, 72],
      "AngioFlag": "N",
      "BitsAllocated": 16,
      "BitsStored": 12,
      "BodyPartExamined": "BRAIN",
      "Columns": 864,
      "EchoNumbers": 1,
      "EchoTime": 30.0,
      "EchoTrainLength": 58,
      "FlipAngle": 62.0,
      "HighBit": 11,
      "ImageOrientationPatient": [0.99987309173489, -0.0137171554648, -0.0081018559892, 0.01273996273524, 0.9938125637261, -0.1103371267057],
      "ImagePositionPatient": [-878.91425535233, -874.52928896945, 44.963151318165],
      "ImageType": [
        "ORIGINAL",
        "PRIMARY",
        "M",
        "ND",
        "MOSAIC"
],
      "ImagedNucleus": "1H",
      "ImagingFrequency": 123.259537,
      "InPlanePhaseEncodingDirection": "COL",
      "MRAcquisitionType": "2D",
      "MagneticFieldStrength": 3.0,
      "Manufacturer": "SIEMENS",
      "ManufacturerModelName": "Prisma",
      "Modality": "MR",
      "NumberOfAverages": 1.0,
      "NumberOfPhaseEncodingSteps": 58,
      "PercentPhaseFieldOfView": 100.0,
      "PercentSampling": 75.0,
      "PerformedProcedureStepStartTime": "080209.993000",
      "PhotometricInterpretation": "MONOCHROME2",
      "PixelBandwidth": 2265.0,
      "PixelRepresentation": 0,
      "PixelSpacing": [2.0, 2.0],
      "ProtocolName": "func_vwfate_run13",
      "RepetitionTime": 1500.0,
      "Rows": 864,
      "SAR": 0.05226840492333,
      "SamplesPerPixel": 1,
      "ScanOptions": [
        "PFP",
        "FS"
],
      "ScanningSequence": "EP",
      "SequenceName": "*epfid2d1_72",
      "SequenceVariant": [
        "SK",
        "OSP"
],
      "SeriesDescription": "func_vwfate_run13",
      "SeriesNumber": 8,
      "SeriesTime": "082656.960000",
      "SliceLocation": -60.110429082238,
      "SliceThickness": 2.0,
      "SmallestImagePixelValue": 0,
      "SoftwareVersions": "syngo MR E11",
      "SpacingBetweenSlices": 1.9999999751871,
      "SpecificCharacterSet": "ISO_IR 100",
      "StudyID": "3",
      "StudyTime": "080209.926000",
      "TransmitCoilName": "Body",
      "VariableFlipAngleFlag": "N",
      "WindowCenterWidthExplanation": "Algo1",
      "dBdt": 0.0},
    "slices": {}
  },
  "time": {
    "samples": {
      "AcquisitionNumber": [1, 2, 3, 4, 5, 6, 7, 8, 9, 10, 11, 12, 13, 14, 15, 16, 17, 18, 19, 20, 21, 22, 23, 24, 25, 26, 27, 28, 29, 30, 31, 32, 33, 34, 35, 36, 37, 38, 39, 40, 41, 42, 43, 44, 45, 46, 47, 48, 49, 50, 51, 52, 53, 54, 55, 56, 57, 58, 59, 60, 61, 62, 63, 64, 65, 66, 67, 68, 69, 70, 71, 72, 73, 74, 75, 76, 77, 78, 79, 80, 81, 82, 83, 84, 85, 86, 87, 88, 89, 90, 91, 92, 93, 94, 95, 96, 97, 98, 99, 100, 101, 102, 103, 104, 105, 106, 107, 108, 109, 110, 111, 112, 113, 114, 115, 116, 117, 118, 119, 120, 121, 122, 123, 124, 125, 126, 127, 128, 129, 130, 131, 132, 133, 134, 135, 136, 137, 138, 139, 140, 141, 142, 143, 144, 145, 146, 147, 148, 149, 150, 151, 152, 153, 154, 155, 156, 157, 158, 159, 160, 161, 162, 163, 164],
      "AcquisitionTime": ["082619.842500", "082621.342500", "082622.842500", "082624.342500", "082625.842500", "082627.342500", "082628.842500", "082630.342500", "082631.842500", "082633.342500", "082634.842500", "082636.342500", "082637.842500", "082639.342500", "082640.842500", "082642.342500", "082643.842500", "082645.342500", "082646.842500", "082648.342500", "082649.842500", "082651.342500", "082652.842500", "082654.342500", "082655.842500", "082657.342500", "082658.842500", "082700.342500", "082701.842500", "082703.342500", "082704.842500", "082706.342500", "082707.842500", "082709.342500", "082710.842500", "082712.342500", "082713.842500", "082715.342500", "082716.842500", "082718.342500", "082719.842500", "082721.342500", "082722.842500", "082724.342500", "082725.842500", "082727.342500", "082728.842500", "082730.342500", "082731.842500", "082733.342500", "082734.842500", "082736.342500", "082737.842500", "082739.342500", "082740.842500", "082742.342500", "082743.842500", "082745.342500", "082746.842500", "082748.342500", "082749.842500", "082751.342500", "082752.842500", "082754.342500", "082755.842500", "082757.342500", "082758.842500", "082800.342500", "082801.842500", "082803.342500", "082804.842500", "082806.342500", "082807.842500", "082809.342500", "082810.842500", "082812.342500", "082813.842500", "082815.342500", "082816.842500", "082818.342500", "082819.842500", "082821.342500", "082822.842500", "082824.342500", "082825.842500", "082827.342500", "082828.842500", "082830.342500", "082831.842500", "082833.342500", "082834.842500", "082836.342500", "082837.842500", "082839.342500", "082840.842500", "082842.342500", "082843.842500", "082845.342500", "082846.842500", "082848.342500", "082849.842500", "082851.342500", "082852.842500", "082854.342500", "082855.842500", "082857.342500", "082858.842500", "082900.342500", "082901.842500", "082903.342500", "082904.842500", "082906.342500", "082907.842500", "082909.342500", "082910.842500", "082912.342500", "082913.842500", "082915.342500", "082916.842500", "082918.342500", "082919.842500", "082921.342500", "082922.842500", "082924.342500", "082925.842500", "082927.342500", "082928.842500", "082930.342500", "082931.842500", "082933.342500", "082934.842500", "082936.342500", "082937.842500", "082939.342500", "082940.842500", "082942.342500", "082943.842500", "082945.342500", "082946.842500", "082948.342500", "082949.842500", "082951.342500", "082952.842500", "082954.342500", "082955.842500", "082957.342500", "082958.842500", "083000.342500", "083001.842500", "083003.342500", "083004.842500", "083006.342500", "083007.842500", "083009.342500", "083010.842500", "083012.342500", "083013.842500", "083015.342500", "083016.842500", "083018.342500", "083019.842500", "083021.342500", "083022.842500", "083024.342500"],
      "ContentTime": ["082656.964000", "082656.968000", "082656.981000", "082656.984000", "082656.987000", "082656.990000", "082656.993000", "082656.996000", "082657.001000", "082657.004000", "082657.007000", "082657.010000", "082657.013000", "082657.016000", "082657.019000", "082657.022000", "082657.028000", "082657.032000", "082657.035000", "082657.040000", "082657.043000", "082657.046000", "082657.049000", "082657.052000", "082736.968000", "082736.972000", "082736.979000", "082736.982000", "082736.985000", "082736.988000", "082736.991000", "082736.994000", "082736.997000", "082737.002000", "082737.005000", "082737.008000", "082737.011000", "082737.014000", "082737.017000", "082737.020000", "082737.024000", "082737.027000", "082737.030000", "082737.033000", "082737.036000", "082737.039000", "082737.042000", "082737.045000", "082737.049000", "082737.056000", "082737.059000", "082816.959000", "082816.962000", "082816.965000", "082816.969000", "082816.972000", "082816.975000", "082816.978000", "082816.981000", "082816.984000", "082816.987000", "082816.990000", "082816.994000", "082816.997000", "082817.000000", "082817.003000", "082817.006000", "082817.009000", "082817.012000", "082817.015000", "082817.018000", "082817.021000", "082817.024000", "082817.028000", "082817.031000", "082817.044000", "082817.047000", "082817.050000", "082856.959000", "082856.962000", "082856.965000", "082856.968000", "082856.972000", "082856.975000", "082856.978000", "082856.981000", "082856.984000", "082856.987000", "082856.990000", "082856.993000", "082856.996000", "082857.001000", "082857.004000", "082857.007000", "082857.010000", "082857.013000", "082857.016000", "082857.019000", "082857.022000", "082857.025000", "082857.029000", "082857.032000", "082857.035000", "082857.038000", "082936.959000", "082936.962000", "082936.966000", "082936.969000", "082936.972000", "082936.975000", "082936.978000", "082936.981000", "082936.984000", "082936.987000", "082936.990000", "082936.993000", "082936.997000", "082937.000000", "082937.003000", "082937.006000", "082937.009000", "082937.012000", "082937.015000", "082937.018000", "082937.022000", "082937.025000", "082937.028000", "082937.031000", "082937.034000", "082937.037000", "082937.040000", "083016.959000", "083016.962000", "083016.965000", "083016.969000", "083016.972000", "083016.975000", "083016.978000", "083016.981000", "083016.984000", "083016.987000", "083016.990000", "083016.993000", "083016.996000", "083017.000000", "083017.004000", "083017.007000", "083017.010000", "083017.013000", "083017.016000", "083017.019000", "083017.022000", "083017.025000", "083017.028000", "083017.032000", "083017.035000", "083017.038000", "083017.041000", "083025.926000", "083025.929000", "083025.932000", "083025.936000", "083025.939000", "083025.943000"],
      "InstanceCreationTime": ["082656.964000", "082656.968000", "082656.981000", "082656.984000", "082656.987000", "082656.990000", "082656.993000", "082656.996000", "082657.001000", "082657.004000", "082657.007000", "082657.010000", "082657.013000", "082657.016000", "082657.019000", "082657.022000", "082657.028000", "082657.032000", "082657.035000", "082657.040000", "082657.043000", "082657.046000", "082657.049000", "082657.052000", "082736.968000", "082736.972000", "082736.979000", "082736.982000", "082736.985000", "082736.988000", "082736.991000", "082736.994000", "082736.997000", "082737.002000", "082737.005000", "082737.008000", "082737.011000", "082737.014000", "082737.017000", "082737.020000", "082737.024000", "082737.027000", "082737.030000", "082737.033000", "082737.036000", "082737.039000", "082737.042000", "082737.045000", "082737.049000", "082737.056000", "082737.059000", "082816.959000", "082816.962000", "082816.965000", "082816.969000", "082816.972000", "082816.975000", "082816.978000", "082816.981000", "082816.984000", "082816.987000", "082816.990000", "082816.994000", "082816.997000", "082817.000000", "082817.003000", "082817.006000", "082817.009000", "082817.012000", "082817.015000", "082817.018000", "082817.021000", "082817.024000", "082817.028000", "082817.031000", "082817.044000", "082817.047000", "082817.050000", "082856.959000", "082856.962000", "082856.965000", "082856.968000", "082856.972000", "082856.975000", "082856.978000", "082856.981000", "082856.984000", "082856.987000", "082856.990000", "082856.993000", "082856.996000", "082857.001000", "082857.004000", "082857.007000", "082857.010000", "082857.013000", "082857.016000", "082857.019000", "082857.022000", "082857.025000", "082857.029000", "082857.032000", "082857.035000", "082857.038000", "082936.959000", "082936.962000", "082936.966000", "082936.969000", "082936.972000", "082936.975000", "082936.978000", "082936.981000", "082936.984000", "082936.987000", "082936.990000", "082936.993000", "082936.997000", "082937.000000", "082937.003000", "082937.006000", "082937.009000", "082937.012000", "082937.015000", "082937.018000", "082937.022000", "082937.025000", "082937.028000", "082937.031000", "082937.034000", "082937.037000", "082937.040000", "083016.959000", "083016.962000", "083016.965000", "083016.969000", "083016.972000", "083016.975000", "083016.978000", "083016.981000", "083016.984000", "083016.987000", "083016.990000", "083016.993000", "083016.996000", "083017.000000", "083017.004000", "083017.007000", "083017.010000", "083017.013000", "083017.016000", "083017.019000", "083017.022000", "083017.025000", "083017.028000", "083017.032000", "083017.035000", "083017.038000", "083017.041000", "083025.926000", "083025.929000", "083025.932000", "083025.936000", "083025.939000", "083025.943000"],
      "InstanceNumber": [1, 2, 3, 4, 5, 6, 7, 8, 9, 10, 11, 12, 13, 14, 15, 16, 17, 18, 19, 20, 21, 22, 23, 24, 25, 26, 27, 28, 29, 30, 31, 32, 33, 34, 35, 36, 37, 38, 39, 40, 41, 42, 43, 44, 45, 46, 47, 48, 49, 50, 51, 52, 53, 54, 55, 56, 57, 58, 59, 60, 61, 62, 63, 64, 65, 66, 67, 68, 69, 70, 71, 72, 73, 74, 75, 76, 77, 78, 79, 80, 81, 82, 83, 84, 85, 86, 87, 88, 89, 90, 91, 92, 93, 94, 95, 96, 97, 98, 99, 100, 101, 102, 103, 104, 105, 106, 107, 108, 109, 110, 111, 112, 113, 114, 115, 116, 117, 118, 119, 120, 121, 122, 123, 124, 125, 126, 127, 128, 129, 130, 131, 132, 133, 134, 135, 136, 137, 138, 139, 140, 141, 142, 143, 144, 145, 146, 147, 148, 149, 150, 151, 152, 153, 154, 155, 156, 157, 158, 159, 160, 161, 162, 163, 164],
      "LargestImagePixelValue": [2865, 2814, 2795, 2777, 2788, 2788, 2783, 2771, 2775, 2783, 2781, 2776, 2738, 2760, 2764, 2759, 2756, 2745, 2773, 2763, 2773, 2767, 2770, 2765, 2743, 2778, 2761, 2739, 2774, 2765, 2763, 2787, 2767, 2773, 2763, 2776, 2789, 2767, 2770, 2761, 2782, 2746, 2776, 2783, 2773, 2768, 2783, 2764, 2757, 2786, 2740, 2756, 2766, 2769, 2771, 2774, 2777, 2757, 2758, 2787, 2775, 2801, 2772, 2775, 2778, 2761, 2770, 2768, 2765, 2775, 2774, 2754, 2771, 2763, 2773, 2772, 2772, 2782, 2778, 2778, 2781, 2759, 2765, 2774, 2773, 2771, 2788, 2766, 2791, 2801, 2790, 2776, 2777, 2779, 2771, 2808, 2812, 2780, 2795, 2771, 2772, 2781, 2759, 2792, 2765, 2759, 2760, 2775, 2778, 2753, 2773, 2769, 2770, 2767, 2761, 2792, 2775, 2781, 2782, 2773, 2794, 2753, 2762, 2764, 2760, 2739, 2771, 2773, 2743, 2752, 2778, 2795, 2786, 2774, 2779, 2777, 2770, 2789, 2758, 2766, 2763, 2758, 2778, 2773, 2756, 2779, 2752, 2747, 2758, 2771, 2777, 2771, 2783, 2761, 2778, 2771, 2762, 2757, 2758, 2761, 2756, 2758, 2776, 2758],
      "WindowCenter": [746.0, 743.0, 742.0, 742.0, 743.0, 743.0, 742.0, 742.0, 741.0, 741.0, 740.0, 740.0, 740.0, 740.0, 740.0, 740.0, 740.0, 740.0, 741.0, 740.0, 740.0, 739.0, 739.0, 740.0, 740.0, 742.0, 743.0, 743.0, 742.0, 741.0, 741.0, 742.0, 742.0, 743.0, 742.0, 742.0, 741.0, 741.0, 740.0, 740.0, 741.0, 742.0, 743.0, 744.0, 744.0, 743.0, 741.0, 740.0, 740.0, 740.0, 740.0, 741.0, 741.0, 740.0, 740.0, 740.0, 739.0, 740.0, 740.0, 741.0, 741.0, 742.0, 742.0, 743.0, 743.0, 742.0, 742.0, 741.0, 742.0, 742.0, 742.0, 741.0, 742.0, 742.0, 743.0, 743.0, 743.0, 743.0, 742.0, 742.0, 742.0, 743.0, 742.0, 742.0, 741.0, 741.0, 741.0, 741.0, 742.0, 742.0, 742.0, 742.0, 741.0, 740.0, 740.0, 740.0, 740.0, 740.0, 740.0, 741.0, 741.0, 740.0, 740.0, 740.0, 740.0, 740.0, 739.0, 739.0, 739.0, 739.0, 739.0, 740.0, 740.0, 740.0, 739.0, 739.0, 739.0, 739.0, 739.0, 740.0, 740.0, 740.0, 739.0, 739.0, 738.0, 739.0, 740.0, 741.0, 740.0, 740.0, 739.0, 739.0, 739.0, 739.0, 739.0, 740.0, 740.0, 740.0, 739.0, 739.0, 739.0, 740.0, 740.0, 741.0, 741.0, 740.0, 739.0, 739.0, 739.0, 740.0, 740.0, 740.0, 740.0, 740.0, 739.0, 739.0, 739.0, 739.0, 739.0, 739.0, 739.0, 740.0, 740.0, 741.0],
      "WindowWidth": [1596.0, 1588.0, 1586.0, 1585.0, 1587.0, 1586.0, 1585.0, 1585.0, 1583.0, 1581.0, 1580.0, 1580.0, 1581.0, 1580.0, 1581.0, 1581.0, 1581.0, 1581.0, 1581.0, 1579.0, 1578.0, 1578.0, 1578.0, 1579.0, 1580.0, 1584.0, 1588.0, 1586.0, 1585.0, 1583.0, 1583.0, 1584.0, 1585.0, 1586.0, 1585.0, 1585.0, 1582.0, 1581.0, 1580.0, 1581.0, 1582.0, 1584.0, 1587.0, 1589.0, 1588.0, 1585.0, 1582.0, 1580.0, 1579.0, 1578.0, 1580.0, 1581.0, 1581.0, 1579.0, 1578.0, 1578.0, 1578.0, 1579.0, 1579.0, 1580.0, 1582.0, 1584.0, 1585.0, 1588.0, 1586.0, 1585.0, 1584.0, 1583.0, 1583.0, 1584.0, 1583.0, 1582.0, 1583.0, 1585.0, 1586.0, 1588.0, 1587.0, 1586.0, 1583.0, 1584.0, 1585.0, 1587.0, 1585.0, 1584.0, 1582.0, 1581.0, 1580.0, 1582.0, 1584.0, 1584.0, 1584.0, 1583.0, 1582.0, 1580.0, 1579.0, 1579.0, 1579.0, 1579.0, 1580.0, 1581.0, 1581.0, 1580.0, 1579.0, 1579.0, 1578.0, 1579.0, 1577.0, 1576.0, 1576.0, 1576.0, 1577.0, 1579.0, 1579.0, 1578.0, 1577.0, 1576.0, 1576.0, 1576.0, 1576.0, 1579.0, 1580.0, 1578.0, 1577.0, 1576.0, 1575.0, 1576.0, 1579.0, 1582.0, 1579.0, 1578.0, 1575.0, 1576.0, 1575.0, 1576.0, 1577.0, 1578.0, 1578.0, 1578.0, 1577.0, 1577.0, 1576.0, 1578.0, 1579.0, 1581.0, 1580.0, 1578.0, 1577.0, 1577.0, 1577.0, 1577.0, 1577.0, 1577.0, 1579.0, 1577.0, 1576.0, 1577.0, 1577.0, 1577.0, 1575.0, 1576.0, 1576.0, 1578.0, 1579.0, 1580.0]
    },
    "slices": {}
  }
}