{
  "AcquisitionMatrixPE": 72,
  "AcquisitionNumber": 1,
  "AcquisitionTime": "08:36:30.620000",
  "BandwidthPerPixelPhaseEncode": 17.943,
  "BaseResolution": 96,
  "BodyPartExamined": "BRAIN",
  "CoilCombinationMethod": "Sum of Squares",
  "ConsistencyInfo": "N4_VE11C_LATEST_20160120",
  "ConversionSoftware": "dcm2niix",
  "ConversionSoftwareVersion": "v1.0.20211006",
  "DerivedVendorReportedEchoSpacing": 0.000552897,
  "DeviceSerialNumber": "166011",
  "EchoTime": 0.03,
  "EchoTrainLength": 58,
  "EffectiveEchoSpacing": 0.000580542,
  "FlipAngle": 62,
  "ImageOrientationPatientDICOM": [0.999873, -0.0137172, -0.00810186, 0.01274, 0.993813, -0.110337],
  "ImageType": [
    "ORIGINAL",
    "PRIMARY",
    "M",
    "ND",
    "MOSAIC"
],
  "ImagingFrequency": 123.26,
  "InPlanePhaseEncodingDirectionDICOM": "COL",
  "InstitutionAddress": "West 130th Street 610,NY,NYC,US,10025",
  "InstitutionName": "MBBI",
  "MRAcquisitionType": "2D",
  "MagneticFieldStrength": 3,
  "Manufacturer": "Siemens",
  "ManufacturersModelName": "Prisma",
  "Modality": "MR",
  "MultibandAccelerationFactor": 3,
  "PartialFourier": 0.75,
  "PatientPosition": "HFS",
  "PercentPhaseFOV": 100,
  "PercentSampling": 75,
  "PhaseEncodingDirection": "j-",
  "PhaseEncodingSteps": 58,
  "PhaseOversampling": 0.05,
  "PhaseResolution": 0.75,
  "PixelBandwidth": 2265,
  "ProcedureStepDescription": "White^Word_recognition",
  "ProtocolName": "func_vwfate_run15",
  "PulseSequenceDetails": "%SiemensSeq%\\ep2d_bold",
  "ReceiveCoilActiveElements": "HC1-7",
  "ReceiveCoilName": "HeadNeck_64",
  "ReconMatrixPE": 96,
  "RefLinesPE": 40,
  "RepetitionTime": 1.5,
  "SAR": 0.0522684,
  "ScanOptions": "PFP\\FS",
  "ScanningSequence": "EP",
  "SequenceName": "*epfid2d1_72",
  "SequenceVariant": "SK\\OSP",
  "SeriesDescription": "func_vwfate_run15",
  "SeriesNumber": 10,
  "ShimSetting": [-1155, -1368, 682, 508, -46, 141, -26, -32],
  "SliceThickness": 2,
  "SliceTiming": [1.0775, 0, 0.74, 0.0675, 0.8075, 0.135, 0.875, 0.2025, 0.9425, 0.27, 1.01, 0.405, 1.145, 0.4725, 1.2125, 0.54, 1.28, 0.605, 1.345, 0.6725, 1.4125, 0.3375, 1.0775, 0, 0.74, 0.0675, 0.8075, 0.135, 0.875, 0.2025, 0.9425, 0.27, 1.01, 0.405, 1.145, 0.4725, 1.2125, 0.54, 1.28, 0.605, 1.345, 0.6725, 1.4125, 0.3375, 1.0775, 0, 0.74, 0.0675, 0.8075, 0.135, 0.875, 0.2025, 0.9425, 0.27, 1.01, 0.405, 1.145, 0.4725, 1.2125, 0.54, 1.28, 0.605, 1.345, 0.6725, 1.4125, 0.3375],
  "SoftwareVersions": "syngo MR E11",
  "SpacingBetweenSlices": 2,
  "StationName": "AWP166011",
  "TaskName": "vwfate",
  "TotalReadoutTime": 0.0551515,
  "TxRefAmp": 230.04,
  "dcmmeta_affine": [
    [-1.9997462034225464, 0.02547992579638958, -0.01913047581911087, 98.80683898925781],
    [0.02743431180715561, 1.9876251220703125, -0.22043980658054352, -67.00836944580078],
    [-0.016203712671995163, 0.22067424654960632, 1.987722396850586, -66.96204376220703],
    [0.0, 0.0, 0.0, 1.0]
],
  "dcmmeta_reorient_transform": [
    [0.0, -1.0, 0.0, 95.0],
    [1.0, 0.0, 0.0, 0.0],
    [0.0, 0.0, 1.0, 0.0],
    [0.0, 0.0, 0.0, 1.0]
],
  "dcmmeta_shape": [96, 96, 66, 164],
  "dcmmeta_slice_dim": 2,
  "dcmmeta_version": 0.6,
  "global": {
    "const": {
      "AcquisitionMatrix": [96, 0, 0, 72],
      "AngioFlag": "N",
      "BitsAllocated": 16,
      "BitsStored": 12,
      "BodyPartExamined": "BRAIN",
      "Columns": 864,
      "EchoNumbers": 1,
      "EchoTime": 30.0,
      "EchoTrainLength": 58,
      "FlipAngle": 62.0,
      "HighBit": 11,
      "ImageOrientationPatient": [0.99987309173489, -0.0137171554648, -0.0081018559892, 0.01273996273524, 0.9938125637261, -0.1103371267057],
      "ImagePositionPatient": [-878.91425535233, -874.52928896945, 44.963151318165],
      "ImageType": [
        "ORIGINAL",
        "PRIMARY",
        "M",
        "ND",
        "MOSAIC"
],
      "ImagedNucleus": "1H",
      "ImagingFrequency": 123.259546,
      "InPlanePhaseEncodingDirection": "COL",
      "MRAcquisitionType": "2D",
      "MagneticFieldStrength": 3.0,
      "Manufacturer": "SIEMENS",
      "ManufacturerModelName": "Prisma",
      "Modality": "MR",
      "NumberOfAverages": 1.0,
      "NumberOfPhaseEncodingSteps": 58,
      "PercentPhaseFieldOfView": 100.0,
      "PercentSampling": 75.0,
      "PerformedProcedureStepStartTime": "080209.993000",
      "PhotometricInterpretation": "MONOCHROME2",
      "PixelBandwidth": 2265.0,
      "PixelRepresentation": 0,
      "PixelSpacing": [2.0, 2.0],
      "ProtocolName": "func_vwfate_run15",
      "RepetitionTime": 1500.0,
      "Rows": 864,
      "SAR": 0.05226840492333,
      "SamplesPerPixel": 1,
      "ScanOptions": [
        "PFP",
        "FS"
],
      "ScanningSequence": "EP",
      "SequenceName": "*epfid2d1_72",
      "SequenceVariant": [
        "SK",
        "OSP"
],
      "SeriesDescription": "func_vwfate_run15",
      "SeriesNumber": 10,
      "SeriesTime": "083716.887000",
      "SliceLocation": -60.110429082238,
      "SliceThickness": 2.0,
      "SmallestImagePixelValue": 0,
      "SoftwareVersions": "syngo MR E11",
      "SpacingBetweenSlices": 1.9999999751871,
      "SpecificCharacterSet": "ISO_IR 100",
      "StudyID": "3",
      "StudyTime": "080209.926000",
      "TransmitCoilName": "Body",
      "VariableFlipAngleFlag": "N",
      "WindowCenterWidthExplanation": "Algo1",
      "dBdt": 0.0},
    "slices": {}
  },
  "time": {
    "samples": {
      "AcquisitionNumber": [1, 2, 3, 4, 5, 6, 7, 8, 9, 10, 11, 12, 13, 14, 15, 16, 17, 18, 19, 20, 21, 22, 23, 24, 25, 26, 27, 28, 29, 30, 31, 32, 33, 34, 35, 36, 37, 38, 39, 40, 41, 42, 43, 44, 45, 46, 47, 48, 49, 50, 51, 52, 53, 54, 55, 56, 57, 58, 59, 60, 61, 62, 63, 64, 65, 66, 67, 68, 69, 70, 71, 72, 73, 74, 75, 76, 77, 78, 79, 80, 81, 82, 83, 84, 85, 86, 87, 88, 89, 90, 91, 92, 93, 94, 95, 96, 97, 98, 99, 100, 101, 102, 103, 104, 105, 106, 107, 108, 109, 110, 111, 112, 113, 114, 115, 116, 117, 118, 119, 120, 121, 122, 123, 124, 125, 126, 127, 128, 129, 130, 131, 132, 133, 134, 135, 136, 137, 138, 139, 140, 141, 142, 143, 144, 145, 146, 147, 148, 149, 150, 151, 152, 153, 154, 155, 156, 157, 158, 159, 160, 161, 162, 163, 164],
      "AcquisitionTime": ["083630.620000", "083632.120000", "083633.620000", "083635.120000", "083636.620000", "083638.120000", "083639.620000", "083641.120000", "083642.620000", "083644.120000", "083645.620000", "083647.120000", "083648.620000", "083650.120000", "083651.620000", "083653.120000", "083654.620000", "083656.120000", "083657.620000", "083659.120000", "083700.620000", "083702.120000", "083703.620000", "083705.120000", "083706.620000", "083708.120000", "083709.620000", "083711.120000", "083712.620000", "083714.120000", "083715.620000", "083717.120000", "083718.620000", "083720.120000", "083721.620000", "083723.120000", "083724.620000", "083726.120000", "083727.620000", "083729.120000", "083730.620000", "083732.120000", "083733.620000", "083735.120000", "083736.620000", "083738.120000", "083739.620000", "083741.120000", "083742.620000", "083744.120000", "083745.620000", "083747.120000", "083748.620000", "083750.120000", "083751.620000", "083753.120000", "083754.620000", "083756.120000", "083757.620000", "083759.120000", "083800.620000", "083802.120000", "083803.620000", "083805.120000", "083806.620000", "083808.120000", "083809.620000", "083811.120000", "083812.620000", "083814.120000", "083815.620000", "083817.120000", "083818.620000", "083820.120000", "083821.620000", "083823.120000", "083824.620000", "083826.120000", "083827.620000", "083829.120000", "083830.620000", "083832.120000", "083833.620000", "083835.120000", "083836.620000", "083838.120000", "083839.620000", "083841.120000", "083842.620000", "083844.120000", "083845.620000", "083847.120000", "083848.620000", "083850.120000", "083851.620000", "083853.120000", "083854.620000", "083856.120000", "083857.620000", "083859.120000", "083900.620000", "083902.120000", "083903.620000", "083905.120000", "083906.620000", "083908.120000", "083909.620000", "083911.120000", "083912.620000", "083914.120000", "083915.620000", "083917.120000", "083918.620000", "083920.120000", "083921.620000", "083923.120000", "083924.620000", "083926.120000", "083927.620000", "083929.120000", "083930.620000", "083932.120000", "083933.620000", "083935.120000", "083936.620000", "083938.120000", "083939.620000", "083941.120000", "083942.620000", "083944.120000", "083945.620000", "083947.120000", "083948.620000", "083950.120000", "083951.620000", "083953.120000", "083954.620000", "083956.120000", "083957.620000", "083959.120000", "084000.620000", "084002.120000", "084003.620000", "084005.120000", "084006.620000", "084008.120000", "084009.620000", "084011.120000", "084012.620000", "084014.120000", "084015.620000", "084017.120000", "084018.620000", "084020.120000", "084021.620000", "084023.120000", "084024.620000", "084026.120000", "084027.620000", "084029.120000", "084030.620000", "084032.120000", "084033.620000", "084035.120000"],
      "ContentTime": ["083716.891000", "083716.895000", "083716.906000", "083716.909000", "083716.912000", "083716.917000", "083716.921000", "083716.924000", "083716.927000", "083716.930000", "083716.933000", "083716.936000", "083716.939000", "083716.942000", "083716.946000", "083716.949000", "083716.952000", "083716.955000", "083716.958000", "083716.961000", "083716.964000", "083716.967000", "083716.971000", "083716.974000", "083716.977000", "083716.990000", "083716.993000", "083716.996000", "083717.000000", "083717.003000", "083756.885000", "083756.890000", "083756.893000", "083756.896000", "083756.900000", "083756.903000", "083756.906000", "083756.909000", "083756.912000", "083756.915000", "083756.918000", "083756.921000", "083756.924000", "083756.928000", "083756.931000", "083756.934000", "083756.937000", "083756.940000", "083756.943000", "083756.946000", "083756.953000", "083756.956000", "083756.959000", "083756.962000", "083756.965000", "083756.968000", "083756.972000", "083836.885000", "083836.891000", "083836.894000", "083836.897000", "083836.900000", "083836.903000", "083836.907000", "083836.910000", "083836.913000", "083836.916000", "083836.919000", "083836.922000", "083836.925000", "083836.928000", "083836.931000", "083836.934000", "083836.937000", "083836.941000", "083836.944000", "083836.947000", "083836.950000", "083836.953000", "083836.956000", "083836.959000", "083836.962000", "083836.965000", "083836.968000", "083916.886000", "083916.890000", "083916.893000", "083916.896000", "083916.899000", "083916.902000", "083916.905000", "083916.908000", "083916.911000", "083916.914000", "083916.917000", "083916.920000", "083916.923000", "083916.927000", "083916.930000", "083916.947000", "083916.950000", "083916.954000", "083916.964000", "083916.967000", "083916.970000", "083916.973000", "083916.976000", "083916.979000", "083916.982000", "083916.985000", "083936.885000", "083936.888000", "083936.891000", "083936.895000", "083936.898000", "083936.901000", "083936.904000", "083936.907000", "083936.910000", "083936.913000", "083936.916000", "083936.919000", "083936.922000", "083936.925000", "084016.885000", "084016.889000", "084016.892000", "084016.895000", "084016.898000", "084016.901000", "084016.904000", "084016.907000", "084016.910000", "084016.913000", "084016.916000", "084016.919000", "084016.922000", "084016.926000", "084016.929000", "084016.932000", "084016.935000", "084016.938000", "084016.941000", "084016.944000", "084016.947000", "084016.950000", "084016.953000", "084016.957000", "084016.960000", "084016.963000", "084036.643000", "084036.646000", "084036.649000", "084036.653000", "084036.656000", "084036.659000", "084036.662000", "084036.665000", "084036.668000", "084036.671000", "084036.675000", "084036.678000", "084036.681000", "084036.684000"],
      "InstanceCreationTime": ["083716.891000", "083716.895000", "083716.906000", "083716.909000", "083716.912000", "083716.917000", "083716.921000", "083716.924000", "083716.927000", "083716.930000", "083716.933000", "083716.936000", "083716.939000", "083716.942000", "083716.946000", "083716.949000", "083716.952000", "083716.955000", "083716.958000", "083716.961000", "083716.964000", "083716.967000", "083716.971000", "083716.974000", "083716.977000", "083716.990000", "083716.993000", "083716.996000", "083717.000000", "083717.003000", "083756.885000", "083756.890000", "083756.893000", "083756.896000", "083756.900000", "083756.903000", "083756.906000", "083756.909000", "083756.912000", "083756.915000", "083756.918000", "083756.921000", "083756.924000", "083756.928000", "083756.931000", "083756.934000", "083756.937000", "083756.940000", "083756.943000", "083756.946000", "083756.953000", "083756.956000", "083756.959000", "083756.962000", "083756.965000", "083756.968000", "083756.972000", "083836.885000", "083836.891000", "083836.894000", "083836.897000", "083836.900000", "083836.903000", "083836.907000", "083836.910000", "083836.913000", "083836.916000", "083836.919000", "083836.922000", "083836.925000", "083836.928000", "083836.931000", "083836.934000", "083836.937000", "083836.941000", "083836.944000", "083836.947000", "083836.950000", "083836.953000", "083836.956000", "083836.959000", "083836.962000", "083836.965000", "083836.968000", "083916.886000", "083916.890000", "083916.893000", "083916.896000", "083916.899000", "083916.902000", "083916.905000", "083916.908000", "083916.911000", "083916.914000", "083916.917000", "083916.920000", "083916.923000", "083916.927000", "083916.930000", "083916.947000", "083916.950000", "083916.954000", "083916.964000", "083916.967000", "083916.970000", "083916.973000", "083916.976000", "083916.979000", "083916.982000", "083916.985000", "083936.885000", "083936.888000", "083936.891000", "083936.895000", "083936.898000", "083936.901000", "083936.904000", "083936.907000", "083936.910000", "083936.913000", "083936.916000", "083936.919000", "083936.922000", "083936.925000", "084016.885000", "084016.889000", "084016.892000", "084016.895000", "084016.898000", "084016.901000", "084016.904000", "084016.907000", "084016.910000", "084016.913000", "084016.916000", "084016.919000", "084016.922000", "084016.926000", "084016.929000", "084016.932000", "084016.935000", "084016.938000", "084016.941000", "084016.944000", "084016.947000", "084016.950000", "084016.953000", "084016.957000", "084016.960000", "084016.963000", "084036.643000", "084036.646000", "084036.649000", "084036.653000", "084036.656000", "084036.659000", "084036.662000", "084036.665000", "084036.668000", "084036.671000", "084036.675000", "084036.678000", "084036.681000", "084036.684000"],
      "InstanceNumber": [1, 2, 3, 4, 5, 6, 7, 8, 9, 10, 11, 12, 13, 14, 15, 16, 17, 18, 19, 20, 21, 22, 23, 24, 25, 26, 27, 28, 29, 30, 31, 32, 33, 34, 35, 36, 37, 38, 39, 40, 41, 42, 43, 44, 45, 46, 47, 48, 49, 50, 51, 52, 53, 54, 55, 56, 57, 58, 59, 60, 61, 62, 63, 64, 65, 66, 67, 68, 69, 70, 71, 72, 73, 74, 75, 76, 77, 78, 79, 80, 81, 82, 83, 84, 85, 86, 87, 88, 89, 90, 91, 92, 93, 94, 95, 96, 97, 98, 99, 100, 101, 102, 103, 104, 105, 106, 107, 108, 109, 110, 111, 112, 113, 114, 115, 116, 117, 118, 119, 120, 121, 122, 123, 124, 125, 126, 127, 128, 129, 130, 131, 132, 133, 134, 135, 136, 137, 138, 139, 140, 141, 142, 143, 144, 145, 146, 147, 148, 149, 150, 151, 152, 153, 154, 155, 156, 157, 158, 159, 160, 161, 162, 163, 164],
      "LargestImagePixelValue": [2758, 2702, 2713, 2703, 2700, 2675, 2698, 2690, 2675, 2666, 2684, 2690, 2672, 2692, 2682, 2688, 2698, 2702, 2685, 2696, 2689, 2684, 2693, 2667, 2693, 2669, 2681, 2676, 2672, 2674, 2697, 2648, 2676, 2670, 2669, 2653, 2654, 2662, 2685, 2657, 2663, 2679, 2637, 2683, 2648, 2643, 2651, 2687, 2666, 2667, 2672, 2659, 2668, 2652, 2659, 2643, 2669, 2668, 2679, 2664, 2672, 2660, 2666, 2659, 2665, 2675, 2679, 2667, 2628, 2672, 2646, 2658, 2655, 2663, 2645, 2634, 2663, 2678, 2647, 2608, 2688, 2694, 2683, 2676, 2671, 2672, 2677, 2692, 2687, 2695, 2686, 2666, 2684, 2693, 2670, 2679, 2680, 2680, 2686, 2702, 2689, 2675, 2691, 2677, 2708, 2689, 2693, 2651, 2626, 2624, 2652, 2673, 2681, 2655, 2653, 2670, 2672, 2671, 2666, 2690, 2658, 2644, 2657, 2663, 2672, 2662, 2681, 2649, 2671, 2673, 2669, 2670, 2687, 2698, 2672, 2677, 2690, 2692, 2646, 2680, 2671, 2684, 2672, 2676, 2678, 2670, 2639, 2687, 2648, 2661, 2684, 2681, 2667, 2673, 2662, 2685, 2666, 2660, 2662, 2657, 2648, 2690, 2655, 2651],
      "WindowCenter": [742.0, 740.0, 739.0, 739.0, 739.0, 738.0, 738.0, 738.0, 737.0, 738.0, 739.0, 739.0, 739.0, 738.0, 737.0, 738.0, 738.0, 739.0, 739.0, 739.0, 737.0, 737.0, 737.0, 738.0, 739.0, 740.0, 739.0, 739.0, 738.0, 737.0, 737.0, 738.0, 738.0, 739.0, 738.0, 738.0, 737.0, 737.0, 736.0, 737.0, 738.0, 739.0, 739.0, 739.0, 739.0, 738.0, 738.0, 739.0, 740.0, 740.0, 739.0, 738.0, 738.0, 737.0, 738.0, 738.0, 738.0, 739.0, 738.0, 738.0, 738.0, 738.0, 738.0, 737.0, 738.0, 738.0, 738.0, 739.0, 739.0, 739.0, 738.0, 738.0, 738.0, 738.0, 739.0, 740.0, 740.0, 739.0, 739.0, 737.0, 737.0, 737.0, 736.0, 736.0, 736.0, 736.0, 736.0, 735.0, 734.0, 734.0, 733.0, 735.0, 736.0, 737.0, 737.0, 736.0, 736.0, 736.0, 736.0, 736.0, 736.0, 735.0, 736.0, 736.0, 737.0, 737.0, 737.0, 736.0, 738.0, 738.0, 739.0, 738.0, 737.0, 736.0, 736.0, 735.0, 736.0, 737.0, 737.0, 736.0, 736.0, 735.0, 735.0, 736.0, 737.0, 738.0, 738.0, 737.0, 737.0, 736.0, 736.0, 737.0, 737.0, 738.0, 738.0, 738.0, 738.0, 737.0, 736.0, 736.0, 736.0, 737.0, 738.0, 738.0, 738.0, 737.0, 737.0, 738.0, 739.0, 738.0, 737.0, 735.0, 735.0, 735.0, 735.0, 735.0, 735.0, 734.0, 734.0, 734.0, 735.0, 736.0, 736.0, 736.0],
      "WindowWidth": [1586.0, 1579.0, 1577.0, 1577.0, 1578.0, 1575.0, 1573.0, 1573.0, 1572.0, 1573.0, 1577.0, 1577.0, 1577.0, 1574.0, 1573.0, 1573.0, 1575.0, 1578.0, 1578.0, 1575.0, 1572.0, 1570.0, 1571.0, 1574.0, 1576.0, 1578.0, 1577.0, 1575.0, 1574.0, 1573.0, 1572.0, 1574.0, 1573.0, 1576.0, 1575.0, 1574.0, 1571.0, 1571.0, 1571.0, 1573.0, 1576.0, 1578.0, 1578.0, 1576.0, 1576.0, 1574.0, 1575.0, 1577.0, 1578.0, 1578.0, 1577.0, 1574.0, 1574.0, 1573.0, 1574.0, 1574.0, 1575.0, 1576.0, 1575.0, 1575.0, 1575.0, 1573.0, 1573.0, 1572.0, 1573.0, 1574.0, 1575.0, 1576.0, 1576.0, 1576.0, 1574.0, 1573.0, 1573.0, 1575.0, 1577.0, 1578.0, 1580.0, 1577.0, 1575.0, 1572.0, 1572.0, 1571.0, 1568.0, 1569.0, 1570.0, 1570.0, 1569.0, 1567.0, 1565.0, 1563.0, 1562.0, 1567.0, 1570.0, 1573.0, 1571.0, 1569.0, 1568.0, 1568.0, 1568.0, 1569.0, 1569.0, 1568.0, 1569.0, 1570.0, 1572.0, 1572.0, 1572.0, 1569.0, 1574.0, 1574.0, 1576.0, 1575.0, 1572.0, 1570.0, 1568.0, 1567.0, 1568.0, 1570.0, 1570.0, 1569.0, 1569.0, 1568.0, 1567.0, 1568.0, 1571.0, 1574.0, 1574.0, 1572.0, 1571.0, 1569.0, 1569.0, 1571.0, 1571.0, 1574.0, 1574.0, 1574.0, 1573.0, 1572.0, 1569.0, 1568.0, 1569.0, 1572.0, 1573.0, 1573.0, 1573.0, 1571.0, 1571.0, 1575.0, 1576.0, 1574.0, 1571.0, 1567.0, 1566.0, 1566.0, 1567.0, 1568.0, 1566.0, 1564.0, 1563.0, 1564.0, 1566.0, 1569.0, 1569.0, 1569.0]
    },
    "slices": {}
  }
}