{
  "AcquisitionMatrixPE": 72,
  "AcquisitionNumber": 1,
  "AcquisitionTime": "08:42:46.807500",
  "BandwidthPerPixelPhaseEncode": 17.943,
  "BaseResolution": 96,
  "BodyPartExamined": "BRAIN",
  "CoilCombinationMethod": "Sum of Squares",
  "ConsistencyInfo": "N4_VE11C_LATEST_20160120",
  "ConversionSoftware": "dcm2niix",
  "ConversionSoftwareVersion": "v1.0.20211006",
  "DerivedVendorReportedEchoSpacing": 0.000552897,
  "DeviceSerialNumber": "166011",
  "EchoTime": 0.03,
  "EchoTrainLength": 58,
  "EffectiveEchoSpacing": 0.000580542,
  "FlipAngle": 62,
  "ImageOrientationPatientDICOM": [0.999873, -0.0137172, -0.00810186, 0.01274, 0.993813, -0.110337],
  "ImageType": [
    "ORIGINAL",
    "PRIMARY",
    "M",
    "ND",
    "MOSAIC"
],
  "ImagingFrequency": 123.26,
  "InPlanePhaseEncodingDirectionDICOM": "COL",
  "InstitutionAddress": "West 130th Street 610,NY,NYC,US,10025",
  "InstitutionName": "MBBI",
  "MRAcquisitionType": "2D",
  "MagneticFieldStrength": 3,
  "Manufacturer": "Siemens",
  "ManufacturersModelName": "Prisma",
  "Modality": "MR",
  "MultibandAccelerationFactor": 3,
  "PartialFourier": 0.75,
  "PatientPosition": "HFS",
  "PercentPhaseFOV": 100,
  "PercentSampling": 75,
  "PhaseEncodingDirection": "j-",
  "PhaseEncodingSteps": 58,
  "PhaseOversampling": 0.05,
  "PhaseResolution": 0.75,
  "PixelBandwidth": 2265,
  "ProcedureStepDescription": "White^Word_recognition",
  "ProtocolName": "func_language_run1",
  "PulseSequenceDetails": "%SiemensSeq%\\ep2d_bold",
  "ReceiveCoilActiveElements": "HC1-7",
  "ReceiveCoilName": "HeadNeck_64",
  "ReconMatrixPE": 96,
  "RefLinesPE": 40,
  "RepetitionTime": 1.5,
  "SAR": 0.0524888,
  "ScanOptions": "PFP\\FS",
  "ScanningSequence": "EP",
  "SequenceName": "*epfid2d1_72",
  "SequenceVariant": "SK\\OSP",
  "SeriesDescription": "func_language_run1",
  "SeriesNumber": 11,
  "ShimSetting": [-1155, -1368, 682, 508, -46, 141, -26, -32],
  "SliceThickness": 2,
  "SliceTiming": [1.0775, 0, 0.74, 0.0675, 0.8075, 0.135, 0.875, 0.2025, 0.9425, 0.27, 1.01, 0.4025, 1.1425, 0.47, 1.21, 0.5375, 1.2775, 0.605, 1.345, 0.6725, 1.4125, 0.3375, 1.0775, 0, 0.74, 0.0675, 0.8075, 0.135, 0.875, 0.2025, 0.9425, 0.27, 1.01, 0.4025, 1.1425, 0.47, 1.21, 0.5375, 1.2775, 0.605, 1.345, 0.6725, 1.4125, 0.3375, 1.0775, 0, 0.74, 0.0675, 0.8075, 0.135, 0.875, 0.2025, 0.9425, 0.27, 1.01, 0.4025, 1.1425, 0.47, 1.21, 0.5375, 1.2775, 0.605, 1.345, 0.6725, 1.4125, 0.3375],
  "SoftwareVersions": "syngo MR E11",
  "SpacingBetweenSlices": 2,
  "StationName": "AWP166011",
  "TaskName": "langLoc",
  "TotalReadoutTime": 0.0551515,
  "TxRefAmp": 230.04,
  "dcmmeta_affine": [
    [-1.9997462034225464, 0.02547992579638958, -0.01913047581911087, 98.80683898925781],
    [0.02743431180715561, 1.9876251220703125, -0.22043980658054352, -67.00836944580078],
    [-0.016203712671995163, 0.22067424654960632, 1.987722396850586, -66.96204376220703],
    [0.0, 0.0, 0.0, 1.0]
],
  "dcmmeta_reorient_transform": [
    [0.0, -1.0, 0.0, 95.0],
    [1.0, 0.0, 0.0, 0.0],
    [0.0, 0.0, 1.0, 0.0],
    [0.0, 0.0, 0.0, 1.0]
],
  "dcmmeta_shape": [96, 96, 66, 239],
  "dcmmeta_slice_dim": 2,
  "dcmmeta_version": 0.6,
  "global": {
    "const": {
      "AcquisitionMatrix": [96, 0, 0, 72],
      "AngioFlag": "N",
      "BitsAllocated": 16,
      "BitsStored": 12,
      "BodyPartExamined": "BRAIN",
      "Columns": 864,
      "EchoNumbers": 1,
      "EchoTime": 30.0,
      "EchoTrainLength": 58,
      "FlipAngle": 62.0,
      "HighBit": 11,
      "ImageOrientationPatient": [0.99987309173489, -0.0137171554648, -0.0081018559892, 0.01273996273524, 0.9938125637261, -0.1103371267057],
      "ImagePositionPatient": [-878.91425535233, -874.52928896945, 44.963151318165],
      "ImageType": [
        "ORIGINAL",
        "PRIMARY",
        "M",
        "ND",
        "MOSAIC"
],
      "ImagedNucleus": "1H",
      "ImagingFrequency": 123.259548,
      "InPlanePhaseEncodingDirection": "COL",
      "MRAcquisitionType": "2D",
      "MagneticFieldStrength": 3.0,
      "Manufacturer": "SIEMENS",
      "ManufacturerModelName": "Prisma",
      "Modality": "MR",
      "NumberOfAverages": 1.0,
      "NumberOfPhaseEncodingSteps": 58,
      "PercentPhaseFieldOfView": 100.0,
      "PercentSampling": 75.0,
      "PerformedProcedureStepStartTime": "080209.993000",
      "PhotometricInterpretation": "MONOCHROME2",
      "PixelBandwidth": 2265.0,
      "PixelRepresentation": 0,
      "PixelSpacing": [2.0, 2.0],
      "ProtocolName": "func_language_run1",
      "RepetitionTime": 1500.0,
      "Rows": 864,
      "SAR": 0.05248882621327,
      "SamplesPerPixel": 1,
      "ScanOptions": [
        "PFP",
        "FS"
],
      "ScanningSequence": "EP",
      "SequenceName": "*epfid2d1_72",
      "SequenceVariant": [
        "SK",
        "OSP"
],
      "SeriesDescription": "func_language_run1",
      "SeriesNumber": 11,
      "SeriesTime": "084316.960000",
      "SliceLocation": -60.110429082238,
      "SliceThickness": 2.0,
      "SmallestImagePixelValue": 0,
      "SoftwareVersions": "syngo MR E11",
      "SpacingBetweenSlices": 1.9999999751871,
      "SpecificCharacterSet": "ISO_IR 100",
      "StudyID": "3",
      "StudyTime": "080209.926000",
      "TransmitCoilName": "Body",
      "VariableFlipAngleFlag": "N",
      "WindowCenterWidthExplanation": "Algo1",
      "dBdt": 0.0},
    "slices": {}
  },
  "time": {
    "samples": {
      "AcquisitionNumber": [1, 2, 3, 4, 5, 6, 7, 8, 9, 10, 11, 12, 13, 14, 15, 16, 17, 18, 19, 20, 21, 22, 23, 24, 25, 26, 27, 28, 29, 30, 31, 32, 33, 34, 35, 36, 37, 38, 39, 40, 41, 42, 43, 44, 45, 46, 47, 48, 49, 50, 51, 52, 53, 54, 55, 56, 57, 58, 59, 60, 61, 62, 63, 64, 65, 66, 67, 68, 69, 70, 71, 72, 73, 74, 75, 76, 77, 78, 79, 80, 81, 82, 83, 84, 85, 86, 87, 88, 89, 90, 91, 92, 93, 94, 95, 96, 97, 98, 99, 100, 101, 102, 103, 104, 105, 106, 107, 108, 109, 110, 111, 112, 113, 114, 115, 116, 117, 118, 119, 120, 121, 122, 123, 124, 125, 126, 127, 128, 129, 130, 131, 132, 133, 134, 135, 136, 137, 138, 139, 140, 141, 142, 143, 144, 145, 146, 147, 148, 149, 150, 151, 152, 153, 154, 155, 156, 157, 158, 159, 160, 161, 162, 163, 164, 165, 166, 167, 168, 169, 170, 171, 172, 173, 174, 175, 176, 177, 178, 179, 180, 181, 182, 183, 184, 185, 186, 187, 188, 189, 190, 191, 192, 193, 194, 195, 196, 197, 198, 199, 200, 201, 202, 203, 204, 205, 206, 207, 208, 209, 210, 211, 212, 213, 214, 215, 216, 217, 218, 219, 220, 221, 222, 223, 224, 225, 226, 227, 228, 229, 230, 231, 232, 233, 234, 235, 236, 237, 238, 239],
      "AcquisitionTime": ["084246.807500", "084248.307500", "084249.807500", "084251.307500", "084252.807500", "084254.307500", "084255.807500", "084257.307500", "084258.807500", "084300.307500", "084301.807500", "084303.307500", "084304.807500", "084306.307500", "084307.807500", "084309.307500", "084310.807500", "084312.307500", "084313.807500", "084315.307500", "084316.807500", "084318.307500", "084319.807500", "084321.307500", "084322.807500", "084324.307500", "084325.807500", "084327.307500", "084328.807500", "084330.307500", "084331.807500", "084333.307500", "084334.807500", "084336.307500", "084337.807500", "084339.307500", "084340.807500", "084342.307500", "084343.807500", "084345.307500", "084346.807500", "084348.307500", "084349.807500", "084351.307500", "084352.807500", "084354.307500", "084355.807500", "084357.307500", "084358.807500", "084400.307500", "084401.807500", "084403.307500", "084404.807500", "084406.307500", "084407.807500", "084409.307500", "084410.807500", "084412.307500", "084413.807500", "084415.307500", "084416.807500", "084418.307500", "084419.807500", "084421.307500", "084422.807500", "084424.307500", "084425.807500", "084427.307500", "084428.807500", "084430.307500", "084431.807500", "084433.307500", "084434.807500", "084436.307500", "084437.807500", "084439.307500", "084440.807500", "084442.307500", "084443.807500", "084445.307500", "084446.807500", "084448.307500", "084449.807500", "084451.307500", "084452.807500", "084454.307500", "084455.807500", "084457.307500", "084458.807500", "084500.307500", "084501.807500", "084503.307500", "084504.807500", "084506.307500", "084507.807500", "084509.307500", "084510.807500", "084512.307500", "084513.807500", "084515.307500", "084516.807500", "084518.307500", "084519.807500", "084521.307500", "084522.807500", "084524.307500", "084525.807500", "084527.307500", "084528.807500", "084530.307500", "084531.807500", "084533.307500", "084534.807500", "084536.307500", "084537.807500", "084539.307500", "084540.807500", "084542.307500", "084543.807500", "084545.307500", "084546.807500", "084548.307500", "084549.807500", "084551.307500", "084552.807500", "084554.307500", "084555.807500", "084557.307500", "084558.807500", "084600.307500", "084601.807500", "084603.307500", "084604.807500", "084606.307500", "084607.807500", "084609.307500", "084610.807500", "084612.307500", "084613.807500", "084615.307500", "084616.807500", "084618.307500", "084619.807500", "084621.307500", "084622.807500", "084624.307500", "084625.807500", "084627.307500", "084628.807500", "084630.307500", "084631.807500", "084633.307500", "084634.807500", "084636.307500", "084637.807500", "084639.307500", "084640.807500", "084642.307500", "084643.807500", "084645.307500", "084646.807500", "084648.307500", "084649.807500", "084651.307500", "084652.807500", "084654.307500", "084655.807500", "084657.307500", "084658.807500", "084700.307500", "084701.807500", "084703.307500", "084704.807500", "084706.307500", "084707.807500", "084709.307500", "084710.807500", "084712.307500", "084713.807500", "084715.307500", "084716.807500", "084718.307500", "084719.807500", "084721.307500", "084722.807500", "084724.307500", "084725.807500", "084727.307500", "084728.807500", "084730.307500", "084731.807500", "084733.307500", "084734.807500", "084736.307500", "084737.807500", "084739.307500", "084740.807500", "084742.307500", "084743.807500", "084745.307500", "084746.807500", "084748.307500", "084749.807500", "084751.307500", "084752.807500", "084754.307500", "084755.807500", "084757.307500", "084758.807500", "084800.307500", "084801.807500", "084803.307500", "084804.807500", "084806.307500", "084807.807500", "084809.307500", "084810.807500", "084812.307500", "084813.807500", "084815.307500", "084816.807500", "084818.307500", "084819.807500", "084821.307500", "084822.807500", "084824.307500", "084825.807500", "084827.307500", "084828.807500", "084830.307500", "084831.807500", "084833.307500", "084834.807500", "084836.307500", "084837.807500", "084839.307500", "084840.807500", "084842.307500", "084843.807500"],
      "ContentTime": ["084316.964000", "084316.968000", "084316.971000", "084316.974000", "084316.977000", "084316.980000", "084316.984000", "084316.994000", "084316.997000", "084317.001000", "084317.006000", "084317.009000", "084317.012000", "084317.015000", "084317.024000", "084317.027000", "084317.030000", "084317.033000", "084317.036000", "084317.039000", "084356.959000", "084356.963000", "084356.966000", "084356.969000", "084356.973000", "084356.976000", "084356.979000", "084356.982000", "084356.985000", "084356.989000", "084356.994000", "084356.998000", "084357.002000", "084357.005000", "084357.008000", "084357.011000", "084357.014000", "084357.018000", "084357.021000", "084357.024000", "084357.027000", "084357.030000", "084357.033000", "084357.036000", "084357.040000", "084357.043000", "084357.046000", "084436.958000", "084436.961000", "084436.983000", "084436.986000", "084436.989000", "084436.992000", "084437.008000", "084437.011000", "084437.014000", "084437.017000", "084437.020000", "084437.023000", "084437.027000", "084437.030000", "084437.033000", "084437.036000", "084437.040000", "084437.043000", "084437.046000", "084437.049000", "084437.053000", "084437.056000", "084437.059000", "084437.062000", "084437.065000", "084437.068000", "084516.959000", "084516.962000", "084516.965000", "084516.968000", "084516.972000", "084516.975000", "084516.978000", "084516.981000", "084516.984000", "084516.987000", "084516.990000", "084516.993000", "084516.996000", "084517.000000", "084517.003000", "084517.006000", "084517.010000", "084517.013000", "084517.016000", "084517.019000", "084517.022000", "084517.025000", "084517.028000", "084517.031000", "084517.035000", "084517.038000", "084517.041000", "084556.959000", "084556.962000", "084556.965000", "084556.969000", "084556.972000", "084556.975000", "084556.978000", "084556.981000", "084556.984000", "084556.987000", "084556.990000", "084556.993000", "084556.996000", "084557.000000", "084557.003000", "084557.007000", "084557.010000", "084557.013000", "084557.016000", "084557.019000", "084557.022000", "084557.025000", "084557.028000", "084557.031000", "084557.034000", "084557.037000", "084557.040000", "084636.959000", "084636.962000", "084636.965000", "084636.968000", "084636.972000", "084636.975000", "084636.978000", "084636.981000", "084636.984000", "084636.987000", "084636.990000", "084636.993000", "084636.997000", "084637.001000", "084637.004000", "084637.007000", "084637.010000", "084637.013000", "084637.016000", "084637.019000", "084637.022000", "084637.025000", "084637.028000", "084637.031000", "084637.035000", "084637.038000", "084716.959000", "084716.962000", "084716.965000", "084716.968000", "084716.972000", "084716.975000", "084716.978000", "084716.981000", "084716.984000", "084716.987000", "084716.990000", "084716.993000", "084716.996000", "084716.999000", "084717.002000", "084717.006000", "084717.009000", "084717.012000", "084717.015000", "084717.018000", "084717.021000", "084717.024000", "084717.027000", "084717.030000", "084717.034000", "084717.037000", "084717.040000", "084756.959000", "084756.962000", "084756.965000", "084756.969000", "084756.972000", "084756.975000", "084756.978000", "084756.981000", "084756.984000", "084756.987000", "084756.990000", "084756.994000", "084756.997000", "084757.001000", "084757.005000", "084757.008000", "084757.011000", "084757.014000", "084757.017000", "084757.020000", "084757.023000", "084757.026000", "084757.029000", "084757.033000", "084757.036000", "084757.039000", "084757.042000", "084836.959000", "084836.962000", "084836.965000", "084836.968000", "084836.972000", "084836.975000", "084836.978000", "084836.981000", "084836.984000", "084836.987000", "084836.990000", "084836.993000", "084836.997000", "084837.001000", "084837.004000", "084837.007000", "084837.010000", "084837.026000", "084837.029000", "084837.032000", "084837.036000", "084837.039000", "084837.042000", "084837.045000", "084837.048000", "084837.051000", "084844.817000", "084844.821000", "084844.824000", "084844.827000", "084844.830000", "084844.834000"],
      "InstanceCreationTime": ["084316.964000", "084316.968000", "084316.971000", "084316.974000", "084316.977000", "084316.980000", "084316.984000", "084316.994000", "084316.997000", "084317.001000", "084317.006000", "084317.009000", "084317.012000", "084317.015000", "084317.024000", "084317.027000", "084317.030000", "084317.033000", "084317.036000", "084317.039000", "084356.959000", "084356.963000", "084356.966000", "084356.969000", "084356.973000", "084356.976000", "084356.979000", "084356.982000", "084356.985000", "084356.989000", "084356.994000", "084356.998000", "084357.002000", "084357.005000", "084357.008000", "084357.011000", "084357.014000", "084357.018000", "084357.021000", "084357.024000", "084357.027000", "084357.030000", "084357.033000", "084357.036000", "084357.040000", "084357.043000", "084357.046000", "084436.958000", "084436.961000", "084436.983000", "084436.986000", "084436.989000", "084436.992000", "084437.008000", "084437.011000", "084437.014000", "084437.017000", "084437.020000", "084437.023000", "084437.027000", "084437.030000", "084437.033000", "084437.036000", "084437.040000", "084437.043000", "084437.046000", "084437.049000", "084437.053000", "084437.056000", "084437.059000", "084437.062000", "084437.065000", "084437.068000", "084516.959000", "084516.962000", "084516.965000", "084516.968000", "084516.972000", "084516.975000", "084516.978000", "084516.981000", "084516.984000", "084516.987000", "084516.990000", "084516.993000", "084516.996000", "084517.000000", "084517.003000", "084517.006000", "084517.010000", "084517.013000", "084517.016000", "084517.019000", "084517.022000", "084517.025000", "084517.028000", "084517.031000", "084517.035000", "084517.038000", "084517.041000", "084556.959000", "084556.962000", "084556.965000", "084556.969000", "084556.972000", "084556.975000", "084556.978000", "084556.981000", "084556.984000", "084556.987000", "084556.990000", "084556.993000", "084556.996000", "084557.000000", "084557.003000", "084557.007000", "084557.010000", "084557.013000", "084557.016000", "084557.019000", "084557.022000", "084557.025000", "084557.028000", "084557.031000", "084557.034000", "084557.037000", "084557.040000", "084636.959000", "084636.962000", "084636.965000", "084636.968000", "084636.972000", "084636.975000", "084636.978000", "084636.981000", "084636.984000", "084636.987000", "084636.990000", "084636.993000", "084636.997000", "084637.001000", "084637.004000", "084637.007000", "084637.010000", "084637.013000", "084637.016000", "084637.019000", "084637.022000", "084637.025000", "084637.028000", "084637.031000", "084637.035000", "084637.038000", "084716.959000", "084716.962000", "084716.965000", "084716.968000", "084716.972000", "084716.975000", "084716.978000", "084716.981000", "084716.984000", "084716.987000", "084716.990000", "084716.993000", "084716.996000", "084716.999000", "084717.002000", "084717.006000", "084717.009000", "084717.012000", "084717.015000", "084717.018000", "084717.021000", "084717.024000", "084717.027000", "084717.030000", "084717.034000", "084717.037000", "084717.040000", "084756.959000", "084756.962000", "084756.965000", "084756.969000", "084756.972000", "084756.975000", "084756.978000", "084756.981000", "084756.984000", "084756.987000", "084756.990000", "084756.994000", "084756.997000", "084757.001000", "084757.005000", "084757.008000", "084757.011000", "084757.014000", "084757.017000", "084757.020000", "084757.023000", "084757.026000", "084757.029000", "084757.033000", "084757.036000", "084757.039000", "084757.042000", "084836.959000", "084836.962000", "084836.965000", "084836.968000", "084836.972000", "084836.975000", "084836.978000", "084836.981000", "084836.984000", "084836.987000", "084836.990000", "084836.993000", "084836.997000", "084837.001000", "084837.004000", "084837.007000", "084837.010000", "084837.026000", "084837.029000", "084837.032000", "084837.036000", "084837.039000", "084837.042000", "084837.045000", "084837.048000", "084837.051000", "084844.817000", "084844.821000", "084844.824000", "084844.827000", "084844.830000", "084844.834000"],
      "InstanceNumber": [1, 2, 3, 4, 5, 6, 7, 8, 9, 10, 11, 12, 13, 14, 15, 16, 17, 18, 19, 20, 21, 22, 23, 24, 25, 26, 27, 28, 29, 30, 31, 32, 33, 34, 35, 36, 37, 38, 39, 40, 41, 42, 43, 44, 45, 46, 47, 48, 49, 50, 51, 52, 53, 54, 55, 56, 57, 58, 59, 60, 61, 62, 63, 64, 65, 66, 67, 68, 69, 70, 71, 72, 73, 74, 75, 76, 77, 78, 79, 80, 81, 82, 83, 84, 85, 86, 87, 88, 89, 90, 91, 92, 93, 94, 95, 96, 97, 98, 99, 100, 101, 102, 103, 104, 105, 106, 107, 108, 109, 110, 111, 112, 113, 114, 115, 116, 117, 118, 119, 120, 121, 122, 123, 124, 125, 126, 127, 128, 129, 130, 131, 132, 133, 134, 135, 136, 137, 138, 139, 140, 141, 142, 143, 144, 145, 146, 147, 148, 149, 150, 151, 152, 153, 154, 155, 156, 157, 158, 159, 160, 161, 162, 163, 164, 165, 166, 167, 168, 169, 170, 171, 172, 173, 174, 175, 176, 177, 178, 179, 180, 181, 182, 183, 184, 185, 186, 187, 188, 189, 190, 191, 192, 193, 194, 195, 196, 197, 198, 199, 200, 201, 202, 203, 204, 205, 206, 207, 208, 209, 210, 211, 212, 213, 214, 215, 216, 217, 218, 219, 220, 221, 222, 223, 224, 225, 226, 227, 228, 229, 230, 231, 232, 233, 234, 235, 236, 237, 238, 239],
      "LargestImagePixelValue": [2842, 2805, 2762, 2725, 2730, 2719, 2719, 2715, 2699, 2707, 2691, 2707, 2716, 2720, 2710, 2750, 2707, 2730, 2702, 2730, 2707, 2704, 2707, 2710, 2710, 2716, 2721, 2710, 2710, 2717, 2733, 2709, 2722, 2704, 2731, 2713, 2711, 2686, 2700, 2704, 2714, 2694, 2730, 2710, 2739, 2710, 2729, 2709, 2724, 2719, 2756, 2745, 2710, 2700, 2743, 2696, 2687, 2667, 2672, 2655, 2677, 2681, 2731, 2708, 2716, 2691, 2712, 2716, 2701, 2701, 2694, 2700, 2713, 2692, 2725, 2703, 2711, 2689, 2704, 2680, 2702, 2670, 2718, 2687, 2698, 2711, 2716, 2673, 2718, 2696, 2714, 2712, 2698, 2707, 2713, 2690, 2712, 2682, 2705, 2706, 2683, 2695, 2693, 2693, 2697, 2684, 2672, 2696, 2699, 2685, 2686, 2711, 2668, 2646, 2636, 2725, 2719, 2724, 2718, 2645, 2645, 2706, 2723, 2736, 2690, 2750, 2710, 2639, 2617, 2647, 2741, 2708, 2583, 2615, 2630, 2629, 2622, 2658, 2638, 2660, 2648, 2680, 2734, 2669, 2663, 2655, 2650, 2613, 2758, 2725, 2719, 2686, 2634, 2639, 2614, 2582, 2610, 2635, 2640, 2663, 2657, 2641, 2696, 2703, 2715, 2691, 2728, 2713, 2730, 2693, 2725, 2722, 2703, 2703, 2719, 2737, 2703, 2712, 2678, 2721, 2692, 2670, 2700, 2689, 2672, 2673, 2764, 2767, 2745, 2720, 2711, 2604, 2599, 2665, 2630, 2634, 2651, 2644, 2618, 2612, 2602, 2621, 2655, 2662, 2646, 2642, 2647, 2620, 2608, 2610, 2648, 2622, 2634, 2714, 2682, 2660, 2651, 2617, 2667, 2607, 2647, 2609, 2662, 2610, 2650, 2698, 2619, 2583, 2570, 2615, 2624, 2586, 2601, 2700, 2637, 2636, 2664, 2644, 2660],
      "WindowCenter": [741.0, 739.0, 738.0, 738.0, 738.0, 736.0, 736.0, 735.0, 736.0, 736.0, 736.0, 736.0, 736.0, 736.0, 737.0, 738.0, 739.0, 740.0, 740.0, 740.0, 740.0, 739.0, 739.0, 739.0, 739.0, 739.0, 740.0, 739.0, 739.0, 740.0, 741.0, 741.0, 740.0, 739.0, 739.0, 738.0, 739.0, 739.0, 740.0, 740.0, 739.0, 738.0, 737.0, 737.0, 738.0, 739.0, 739.0, 738.0, 737.0, 736.0, 735.0, 736.0, 736.0, 737.0, 738.0, 738.0, 739.0, 738.0, 737.0, 736.0, 737.0, 737.0, 738.0, 737.0, 737.0, 737.0, 737.0, 737.0, 738.0, 739.0, 739.0, 739.0, 738.0, 737.0, 737.0, 737.0, 738.0, 738.0, 740.0, 739.0, 738.0, 736.0, 736.0, 735.0, 736.0, 736.0, 737.0, 736.0, 736.0, 736.0, 735.0, 734.0, 735.0, 735.0, 738.0, 738.0, 738.0, 736.0, 735.0, 735.0, 735.0, 735.0, 737.0, 737.0, 737.0, 737.0, 737.0, 736.0, 736.0, 736.0, 736.0, 737.0, 738.0, 738.0, 739.0, 739.0, 737.0, 736.0, 731.0, 736.0, 734.0, 734.0, 733.0, 732.0, 732.0, 733.0, 736.0, 737.0, 737.0, 736.0, 738.0, 738.0, 736.0, 733.0, 730.0, 729.0, 729.0, 728.0, 728.0, 728.0, 728.0, 730.0, 731.0, 733.0, 734.0, 735.0, 736.0, 735.0, 737.0, 736.0, 737.0, 739.0, 741.0, 744.0, 745.0, 744.0, 741.0, 739.0, 737.0, 735.0, 734.0, 733.0, 735.0, 736.0, 736.0, 735.0, 735.0, 735.0, 735.0, 735.0, 736.0, 737.0, 738.0, 737.0, 737.0, 737.0, 736.0, 737.0, 738.0, 740.0, 741.0, 741.0, 742.0, 740.0, 738.0, 735.0, 737.0, 739.0, 740.0, 741.0, 740.0, 736.0, 733.0, 732.0, 731.0, 731.0, 734.0, 735.0, 737.0, 738.0, 737.0, 738.0, 737.0, 737.0, 736.0, 737.0, 736.0, 738.0, 739.0, 739.0, 739.0, 739.0, 737.0, 738.0, 737.0, 737.0, 734.0, 737.0, 736.0, 736.0, 736.0, 735.0, 737.0, 737.0, 738.0, 739.0, 739.0, 738.0, 734.0, 731.0, 730.0, 730.0, 732.0, 735.0, 736.0, 736.0, 735.0, 734.0, 734.0],
      "WindowWidth": [1582.0, 1576.0, 1576.0, 1575.0, 1573.0, 1570.0, 1569.0, 1568.0, 1569.0, 1570.0, 1570.0, 1570.0, 1570.0, 1571.0, 1571.0, 1574.0, 1576.0, 1580.0, 1579.0, 1579.0, 1578.0, 1577.0, 1576.0, 1577.0, 1578.0, 1578.0, 1579.0, 1576.0, 1578.0, 1578.0, 1581.0, 1581.0, 1579.0, 1575.0, 1576.0, 1575.0, 1577.0, 1577.0, 1579.0, 1579.0, 1577.0, 1573.0, 1572.0, 1571.0, 1574.0, 1576.0, 1577.0, 1575.0, 1572.0, 1569.0, 1568.0, 1568.0, 1570.0, 1571.0, 1573.0, 1574.0, 1577.0, 1573.0, 1572.0, 1569.0, 1571.0, 1571.0, 1573.0, 1571.0, 1571.0, 1571.0, 1572.0, 1573.0, 1574.0, 1576.0, 1577.0, 1575.0, 1573.0, 1571.0, 1571.0, 1571.0, 1574.0, 1575.0, 1578.0, 1575.0, 1573.0, 1569.0, 1568.0, 1566.0, 1568.0, 1569.0, 1571.0, 1570.0, 1570.0, 1568.0, 1567.0, 1565.0, 1566.0, 1568.0, 1573.0, 1573.0, 1573.0, 1568.0, 1567.0, 1565.0, 1566.0, 1567.0, 1570.0, 1570.0, 1570.0, 1571.0, 1571.0, 1569.0, 1568.0, 1568.0, 1569.0, 1570.0, 1574.0, 1573.0, 1576.0, 1576.0, 1571.0, 1567.0, 1557.0, 1568.0, 1565.0, 1564.0, 1561.0, 1559.0, 1560.0, 1562.0, 1569.0, 1570.0, 1570.0, 1568.0, 1574.0, 1572.0, 1569.0, 1561.0, 1554.0, 1551.0, 1550.0, 1549.0, 1548.0, 1548.0, 1549.0, 1554.0, 1558.0, 1562.0, 1564.0, 1566.0, 1568.0, 1565.0, 1570.0, 1569.0, 1571.0, 1576.0, 1580.0, 1589.0, 1589.0, 1588.0, 1580.0, 1574.0, 1570.0, 1566.0, 1563.0, 1561.0, 1565.0, 1568.0, 1568.0, 1565.0, 1566.0, 1566.0, 1565.0, 1567.0, 1569.0, 1571.0, 1572.0, 1572.0, 1571.0, 1570.0, 1568.0, 1570.0, 1574.0, 1578.0, 1580.0, 1581.0, 1583.0, 1579.0, 1573.0, 1565.0, 1570.0, 1577.0, 1577.0, 1580.0, 1577.0, 1566.0, 1560.0, 1557.0, 1555.0, 1555.0, 1562.0, 1566.0, 1570.0, 1572.0, 1571.0, 1571.0, 1570.0, 1569.0, 1568.0, 1569.0, 1569.0, 1573.0, 1575.0, 1575.0, 1576.0, 1575.0, 1571.0, 1572.0, 1570.0, 1570.0, 1563.0, 1571.0, 1568.0, 1567.0, 1568.0, 1566.0, 1569.0, 1572.0, 1574.0, 1576.0, 1575.0, 1572.0, 1563.0, 1556.0, 1552.0, 1553.0, 1559.0, 1565.0, 1567.0, 1568.0, 1566.0, 1564.0, 1562.0]
    },
    "slices": {}
  }
}