{
  "AcquisitionMatrixPE": 72,
  "AcquisitionNumber": 1,
  "AcquisitionTime": "18:15:19.327500",
  "BandwidthPerPixelPhaseEncode": 17.943,
  "BaseResolution": 96,
  "BodyPartExamined": "BRAIN",
  "CoilCombinationMethod": "Sum of Squares",
  "ConsistencyInfo": "N4_VE11C_LATEST_20160120",
  "ConversionSoftware": "dcm2niix",
  "ConversionSoftwareVersion": "v1.0.20211006",
  "DerivedVendorReportedEchoSpacing": 0.000552897,
  "DeviceSerialNumber": "166011",
  "EchoTime": 0.03,
  "EchoTrainLength": 58,
  "EffectiveEchoSpacing": 0.000580542,
  "FlipAngle": 62,
  "ImageOrientationPatientDICOM": [0.997699, 0.0122535, 0.0666811, -0.0142798, 0.999448, 0.0299961],
  "ImageType": [
    "ORIGINAL",
    "PRIMARY",
    "M",
    "ND",
    "MOSAIC"
],
  "ImagingFrequency": 123.259,
  "InPlanePhaseEncodingDirectionDICOM": "COL",
  "InstitutionAddress": "West 130th Street 610,NY,NYC,US,10025",
  "InstitutionName": "MBBI",
  "MRAcquisitionType": "2D",
  "MagneticFieldStrength": 3,
  "Manufacturer": "Siemens",
  "ManufacturersModelName": "Prisma",
  "Modality": "MR",
  "MultibandAccelerationFactor": 3,
  "PartialFourier": 0.75,
  "PatientPosition": "HFS",
  "PercentPhaseFOV": 100,
  "PercentSampling": 75,
  "PhaseEncodingDirection": "j-",
  "PhaseEncodingSteps": 58,
  "PhaseOversampling": 0.05,
  "PhaseResolution": 0.75,
  "PixelBandwidth": 2265,
  "ProcedureStepDescription": "White^Word_recognition",
  "ProtocolName": "func_vwfate_run5",
  "PulseSequenceDetails": "%SiemensSeq%\\ep2d_bold",
  "ReceiveCoilActiveElements": "HC1-6",
  "ReceiveCoilName": "HeadNeck_64",
  "ReconMatrixPE": 96,
  "RefLinesPE": 40,
  "RepetitionTime": 1.5,
  "SAR": 0.0499414,
  "ScanOptions": "PFP\\FS",
  "ScanningSequence": "EP",
  "SequenceName": "*epfid2d1_72",
  "SequenceVariant": "SK\\OSP",
  "SeriesDescription": "func_vwfate_run5",
  "SeriesNumber": 15,
  "ShimSetting": [-1137, -1403, 681, 526, -116, -40, -24, -39],
  "SliceThickness": 2,
  "SliceTiming": [1.0775, 0, 0.74, 0.0675, 0.8075, 0.135, 0.875, 0.2025, 0.9425, 0.27, 1.01, 0.405, 1.145, 0.4725, 1.2125, 0.54, 1.28, 0.6075, 1.3475, 0.675, 1.415, 0.3375, 1.0775, 0, 0.74, 0.0675, 0.8075, 0.135, 0.875, 0.2025, 0.9425, 0.27, 1.01, 0.405, 1.145, 0.4725, 1.2125, 0.54, 1.28, 0.6075, 1.3475, 0.675, 1.415, 0.3375, 1.0775, 0, 0.74, 0.0675, 0.8075, 0.135, 0.875, 0.2025, 0.9425, 0.27, 1.01, 0.405, 1.145, 0.4725, 1.2125, 0.54, 1.28, 0.6075, 1.3475, 0.675, 1.415, 0.3375],
  "SoftwareVersions": "syngo MR E11",
  "SpacingBetweenSlices": 2,
  "StationName": "AWP166011",
  "TaskName": "vwfate",
  "TotalReadoutTime": 0.0551515,
  "TxRefAmp": 216.676,
  "dcmmeta_affine": [
    [-1.9953981637954712, -0.028559578582644463, 0.13255341351032257, 98.80061340332031],
    [-0.02450704760849476, 1.9988960027694702, 0.06175856664776802, -86.77008819580078],
    [0.13336214423179626, -0.059992216527462006, 1.9946467876434326, -39.028480529785156],
    [0.0, 0.0, 0.0, 1.0]
],
  "dcmmeta_reorient_transform": [
    [0.0, -1.0, 0.0, 95.0],
    [1.0, 0.0, 0.0, 0.0],
    [0.0, 0.0, 1.0, 0.0],
    [0.0, 0.0, 0.0, 1.0]
],
  "dcmmeta_shape": [96, 96, 66, 164],
  "dcmmeta_slice_dim": 2,
  "dcmmeta_version": 0.6,
  "global": {
    "const": {
      "AcquisitionMatrix": [96, 0, 0, 72],
      "AngioFlag": "N",
      "BitsAllocated": 16,
      "BitsStored": 12,
      "BodyPartExamined": "BRAIN",
      "Columns": 864,
      "EchoNumbers": 1,
      "EchoTime": 30.0,
      "EchoTrainLength": 58,
      "FlipAngle": 62.0,
      "HighBit": 11,
      "ImageOrientationPatient": [0.99769909602013, 0.01225352393953, 0.06668106891527, -0.01427978912, 0.99944800819066, 0.02999610885455],
      "ImagePositionPatient": [-851.35348395672, -880.11180937984, -118.97581316051],
      "ImageType": [
        "ORIGINAL",
        "PRIMARY",
        "M",
        "ND",
        "MOSAIC"
],
      "ImagedNucleus": "1H",
      "ImagingFrequency": 123.259226,
      "InPlanePhaseEncodingDirection": "COL",
      "MRAcquisitionType": "2D",
      "MagneticFieldStrength": 3.0,
      "Manufacturer": "SIEMENS",
      "ManufacturerModelName": "Prisma",
      "Modality": "MR",
      "NumberOfAverages": 1.0,
      "NumberOfPhaseEncodingSteps": 58,
      "PercentPhaseFieldOfView": 100.0,
      "PercentSampling": 75.0,
      "PerformedProcedureStepStartTime": "172427.456000",
      "PhotometricInterpretation": "MONOCHROME2",
      "PixelBandwidth": 2265.0,
      "PixelRepresentation": 0,
      "PixelSpacing": [2.0, 2.0],
      "ProtocolName": "func_vwfate_run5",
      "RepetitionTime": 1500.0,
      "Rows": 864,
      "SAR": 0.0499414175522,
      "SamplesPerPixel": 1,
      "ScanOptions": [
        "PFP",
        "FS"
],
      "ScanningSequence": "EP",
      "SequenceName": "*epfid2d1_72",
      "SequenceVariant": [
        "SK",
        "OSP"
],
      "SeriesDescription": "func_vwfate_run5",
      "SeriesNumber": 15,
      "SeriesTime": "181607.496000",
      "SliceLocation": -35.055233375068,
      "SliceThickness": 2.0,
      "SmallestImagePixelValue": 0,
      "SoftwareVersions": "syngo MR E11",
      "SpacingBetweenSlices": 2.0000000424366,
      "SpecificCharacterSet": "ISO_IR 100",
      "StudyID": "1",
      "StudyTime": "172427.413000",
      "TransmitCoilName": "Body",
      "VariableFlipAngleFlag": "N",
      "WindowCenterWidthExplanation": "Algo1",
      "dBdt": 0.0},
    "slices": {}
  },
  "time": {
    "samples": {
      "AcquisitionNumber": [1, 2, 3, 4, 5, 6, 7, 8, 9, 10, 11, 12, 13, 14, 15, 16, 17, 18, 19, 20, 21, 22, 23, 24, 25, 26, 27, 28, 29, 30, 31, 32, 33, 34, 35, 36, 37, 38, 39, 40, 41, 42, 43, 44, 45, 46, 47, 48, 49, 50, 51, 52, 53, 54, 55, 56, 57, 58, 59, 60, 61, 62, 63, 64, 65, 66, 67, 68, 69, 70, 71, 72, 73, 74, 75, 76, 77, 78, 79, 80, 81, 82, 83, 84, 85, 86, 87, 88, 89, 90, 91, 92, 93, 94, 95, 96, 97, 98, 99, 100, 101, 102, 103, 104, 105, 106, 107, 108, 109, 110, 111, 112, 113, 114, 115, 116, 117, 118, 119, 120, 121, 122, 123, 124, 125, 126, 127, 128, 129, 130, 131, 132, 133, 134, 135, 136, 137, 138, 139, 140, 141, 142, 143, 144, 145, 146, 147, 148, 149, 150, 151, 152, 153, 154, 155, 156, 157, 158, 159, 160, 161, 162, 163, 164],
      "AcquisitionTime": ["181519.327500", "181520.827500", "181522.327500", "181523.827500", "181525.327500", "181526.827500", "181528.327500", "181529.827500", "181531.327500", "181532.827500", "181534.327500", "181535.827500", "181537.327500", "181538.827500", "181540.327500", "181541.827500", "181543.327500", "181544.827500", "181546.327500", "181547.827500", "181549.327500", "181550.827500", "181552.327500", "181553.827500", "181555.327500", "181556.827500", "181558.327500", "181559.827500", "181601.327500", "181602.827500", "181604.327500", "181605.827500", "181607.327500", "181608.827500", "181610.327500", "181611.827500", "181613.327500", "181614.827500", "181616.327500", "181617.827500", "181619.327500", "181620.827500", "181622.327500", "181623.827500", "181625.327500", "181626.827500", "181628.327500", "181629.827500", "181631.327500", "181632.827500", "181634.327500", "181635.827500", "181637.327500", "181638.827500", "181640.327500", "181641.827500", "181643.327500", "181644.827500", "181646.327500", "181647.827500", "181649.327500", "181650.827500", "181652.327500", "181653.827500", "181655.327500", "181656.827500", "181658.327500", "181659.827500", "181701.327500", "181702.827500", "181704.327500", "181705.827500", "181707.327500", "181708.827500", "181710.327500", "181711.827500", "181713.327500", "181714.827500", "181716.327500", "181717.827500", "181719.327500", "181720.827500", "181722.327500", "181723.827500", "181725.327500", "181726.827500", "181728.327500", "181729.827500", "181731.327500", "181732.827500", "181734.327500", "181735.827500", "181737.327500", "181738.827500", "181740.327500", "181741.827500", "181743.327500", "181744.827500", "181746.327500", "181747.827500", "181749.327500", "181750.827500", "181752.327500", "181753.827500", "181755.327500", "181756.827500", "181758.327500", "181759.827500", "181801.327500", "181802.827500", "181804.327500", "181805.827500", "181807.327500", "181808.827500", "181810.327500", "181811.827500", "181813.327500", "181814.827500", "181816.327500", "181817.827500", "181819.327500", "181820.827500", "181822.327500", "181823.827500", "181825.327500", "181826.827500", "181828.327500", "181829.827500", "181831.327500", "181832.827500", "181834.327500", "181835.827500", "181837.327500", "181838.827500", "181840.327500", "181841.827500", "181843.327500", "181844.827500", "181846.327500", "181847.827500", "181849.327500", "181850.827500", "181852.327500", "181853.827500", "181855.327500", "181856.827500", "181858.327500", "181859.827500", "181901.327500", "181902.827500", "181904.327500", "181905.827500", "181907.327500", "181908.827500", "181910.327500", "181911.827500", "181913.327500", "181914.827500", "181916.327500", "181917.827500", "181919.327500", "181920.827500", "181922.327500", "181923.827500"],
      "ContentTime": ["181607.500000", "181607.504000", "181607.507000", "181607.510000", "181607.513000", "181607.516000", "181607.519000", "181607.522000", "181607.525000", "181607.529000", "181607.539000", "181607.542000", "181607.564000", "181607.567000", "181607.570000", "181607.573000", "181607.577000", "181607.580000", "181607.583000", "181607.586000", "181607.589000", "181607.597000", "181607.600000", "181607.603000", "181607.606000", "181607.609000", "181607.612000", "181607.615000", "181607.618000", "181607.621000", "181607.625000", "181607.628000", "181647.495000", "181647.498000", "181647.501000", "181647.504000", "181647.507000", "181647.511000", "181647.515000", "181647.518000", "181647.521000", "181647.524000", "181647.527000", "181647.530000", "181647.533000", "181647.536000", "181647.539000", "181647.542000", "181647.549000", "181647.552000", "181647.555000", "181647.558000", "181647.561000", "181647.564000", "181647.568000", "181647.571000", "181647.574000", "181647.577000", "181727.494000", "181727.497000", "181727.500000", "181727.503000", "181727.506000", "181727.509000", "181727.512000", "181727.516000", "181727.519000", "181727.522000", "181727.525000", "181727.528000", "181727.531000", "181727.534000", "181727.537000", "181727.540000", "181727.543000", "181727.546000", "181727.549000", "181727.552000", "181727.555000", "181727.558000", "181727.561000", "181727.565000", "181727.568000", "181727.571000", "181727.574000", "181807.495000", "181807.498000", "181807.502000", "181807.505000", "181807.508000", "181807.511000", "181807.514000", "181807.517000", "181807.520000", "181807.523000", "181807.526000", "181807.529000", "181807.532000", "181807.535000", "181807.538000", "181807.541000", "181807.544000", "181807.547000", "181807.551000", "181807.554000", "181807.557000", "181807.560000", "181807.563000", "181807.566000", "181807.569000", "181807.572000", "181807.575000", "181847.495000", "181847.498000", "181847.501000", "181847.504000", "181847.508000", "181847.512000", "181847.515000", "181847.518000", "181847.521000", "181847.524000", "181847.527000", "181847.530000", "181847.533000", "181847.536000", "181847.539000", "181847.542000", "181847.545000", "181847.548000", "181847.551000", "181847.554000", "181847.557000", "181847.560000", "181847.564000", "181847.567000", "181847.570000", "181847.573000", "181925.270000", "181925.273000", "181925.277000", "181925.280000", "181925.283000", "181925.287000", "181925.290000", "181925.293000", "181925.296000", "181925.299000", "181925.302000", "181925.306000", "181925.309000", "181925.312000", "181925.315000", "181925.318000", "181925.321000", "181925.324000", "181925.328000", "181925.331000", "181925.334000", "181925.338000", "181925.341000", "181925.345000", "181925.348000", "181925.351000"],
      "InstanceCreationTime": ["181607.500000", "181607.504000", "181607.507000", "181607.510000", "181607.513000", "181607.516000", "181607.519000", "181607.522000", "181607.525000", "181607.529000", "181607.539000", "181607.542000", "181607.564000", "181607.567000", "181607.570000", "181607.573000", "181607.577000", "181607.580000", "181607.583000", "181607.586000", "181607.589000", "181607.597000", "181607.600000", "181607.603000", "181607.606000", "181607.609000", "181607.612000", "181607.615000", "181607.618000", "181607.621000", "181607.625000", "181607.628000", "181647.495000", "181647.498000", "181647.501000", "181647.504000", "181647.507000", "181647.511000", "181647.515000", "181647.518000", "181647.521000", "181647.524000", "181647.527000", "181647.530000", "181647.533000", "181647.536000", "181647.539000", "181647.542000", "181647.549000", "181647.552000", "181647.555000", "181647.558000", "181647.561000", "181647.564000", "181647.568000", "181647.571000", "181647.574000", "181647.577000", "181727.494000", "181727.497000", "181727.500000", "181727.503000", "181727.506000", "181727.509000", "181727.512000", "181727.516000", "181727.519000", "181727.522000", "181727.525000", "181727.528000", "181727.531000", "181727.534000", "181727.537000", "181727.540000", "181727.543000", "181727.546000", "181727.549000", "181727.552000", "181727.555000", "181727.558000", "181727.561000", "181727.565000", "181727.568000", "181727.571000", "181727.574000", "181807.495000", "181807.498000", "181807.502000", "181807.505000", "181807.508000", "181807.511000", "181807.514000", "181807.517000", "181807.520000", "181807.523000", "181807.526000", "181807.529000", "181807.532000", "181807.535000", "181807.538000", "181807.541000", "181807.544000", "181807.547000", "181807.551000", "181807.554000", "181807.557000", "181807.560000", "181807.563000", "181807.566000", "181807.569000", "181807.572000", "181807.575000", "181847.495000", "181847.498000", "181847.501000", "181847.504000", "181847.508000", "181847.512000", "181847.515000", "181847.518000", "181847.521000", "181847.524000", "181847.527000", "181847.530000", "181847.533000", "181847.536000", "181847.539000", "181847.542000", "181847.545000", "181847.548000", "181847.551000", "181847.554000", "181847.557000", "181847.560000", "181847.564000", "181847.567000", "181847.570000", "181847.573000", "181925.270000", "181925.273000", "181925.277000", "181925.280000", "181925.283000", "181925.287000", "181925.290000", "181925.293000", "181925.296000", "181925.299000", "181925.302000", "181925.306000", "181925.309000", "181925.312000", "181925.315000", "181925.318000", "181925.321000", "181925.324000", "181925.328000", "181925.331000", "181925.334000", "181925.338000", "181925.341000", "181925.345000", "181925.348000", "181925.351000"],
      "InstanceNumber": [1, 2, 3, 4, 5, 6, 7, 8, 9, 10, 11, 12, 13, 14, 15, 16, 17, 18, 19, 20, 21, 22, 23, 24, 25, 26, 27, 28, 29, 30, 31, 32, 33, 34, 35, 36, 37, 38, 39, 40, 41, 42, 43, 44, 45, 46, 47, 48, 49, 50, 51, 52, 53, 54, 55, 56, 57, 58, 59, 60, 61, 62, 63, 64, 65, 66, 67, 68, 69, 70, 71, 72, 73, 74, 75, 76, 77, 78, 79, 80, 81, 82, 83, 84, 85, 86, 87, 88, 89, 90, 91, 92, 93, 94, 95, 96, 97, 98, 99, 100, 101, 102, 103, 104, 105, 106, 107, 108, 109, 110, 111, 112, 113, 114, 115, 116, 117, 118, 119, 120, 121, 122, 123, 124, 125, 126, 127, 128, 129, 130, 131, 132, 133, 134, 135, 136, 137, 138, 139, 140, 141, 142, 143, 144, 145, 146, 147, 148, 149, 150, 151, 152, 153, 154, 155, 156, 157, 158, 159, 160, 161, 162, 163, 164],
      "LargestImagePixelValue": [3955, 3870, 3835, 3854, 3847, 3844, 3835, 3821, 3846, 3847, 3830, 3841, 3810, 3807, 3822, 3802, 3804, 3816, 3817, 3811, 3815, 3806, 3800, 3801, 3806, 3815, 3796, 3791, 3817, 3828, 3792, 3799, 3821, 3821, 3802, 3808, 3791, 3831, 3809, 3813, 3825, 3826, 3817, 3800, 3808, 3811, 3813, 3807, 3810, 3805, 3819, 3785, 3788, 3796, 3802, 3812, 3824, 3813, 3800, 3794, 3770, 3773, 3695, 3663, 3744, 3732, 3780, 3800, 3819, 3809, 3828, 3801, 3775, 3824, 3809, 3812, 3793, 3796, 3785, 3802, 3768, 3762, 3781, 3741, 3757, 3747, 3746, 3755, 3768, 3765, 3733, 3699, 3674, 3716, 3732, 3754, 3751, 3745, 3790, 3783, 3770, 3780, 3781, 3779, 3763, 3771, 3761, 3762, 3788, 3790, 3754, 3769, 3776, 3789, 3790, 3781, 3799, 3788, 3788, 3780, 3756, 3759, 3786, 3777, 3758, 3781, 3753, 3793, 3753, 3718, 3740, 3742, 3766, 3761, 3758, 3764, 3785, 3808, 3780, 3789, 3792, 3820, 3815, 3818, 3786, 3759, 3790, 3758, 3748, 3757, 3760, 3775, 3786, 3781, 3780, 3759, 3778, 3780, 3733, 3752, 3760, 3757, 3786, 3792],
      "WindowCenter": [732.0, 732.0, 731.0, 730.0, 729.0, 731.0, 732.0, 733.0, 733.0, 733.0, 734.0, 734.0, 736.0, 737.0, 738.0, 737.0, 736.0, 736.0, 736.0, 736.0, 736.0, 736.0, 737.0, 737.0, 736.0, 737.0, 737.0, 737.0, 737.0, 736.0, 737.0, 736.0, 736.0, 736.0, 736.0, 737.0, 737.0, 737.0, 738.0, 737.0, 737.0, 736.0, 736.0, 735.0, 736.0, 737.0, 737.0, 737.0, 737.0, 736.0, 736.0, 736.0, 736.0, 736.0, 736.0, 735.0, 735.0, 735.0, 737.0, 738.0, 739.0, 738.0, 734.0, 734.0, 736.0, 737.0, 736.0, 734.0, 731.0, 727.0, 726.0, 727.0, 729.0, 730.0, 730.0, 732.0, 733.0, 734.0, 734.0, 734.0, 734.0, 734.0, 735.0, 736.0, 736.0, 737.0, 737.0, 737.0, 737.0, 737.0, 734.0, 735.0, 738.0, 741.0, 740.0, 738.0, 736.0, 735.0, 734.0, 734.0, 735.0, 736.0, 737.0, 738.0, 738.0, 738.0, 738.0, 737.0, 736.0, 735.0, 735.0, 735.0, 736.0, 737.0, 737.0, 737.0, 737.0, 738.0, 738.0, 738.0, 739.0, 739.0, 739.0, 738.0, 738.0, 740.0, 740.0, 740.0, 739.0, 738.0, 737.0, 736.0, 736.0, 736.0, 736.0, 736.0, 737.0, 736.0, 735.0, 735.0, 735.0, 735.0, 735.0, 736.0, 737.0, 738.0, 738.0, 738.0, 737.0, 736.0, 736.0, 736.0, 736.0, 736.0, 737.0, 738.0, 737.0, 737.0, 738.0, 737.0, 737.0, 737.0, 737.0, 737.0],
      "WindowWidth": [1591.0, 1590.0, 1588.0, 1586.0, 1583.0, 1587.0, 1590.0, 1593.0, 1594.0, 1595.0, 1595.0, 1596.0, 1600.0, 1604.0, 1606.0, 1605.0, 1602.0, 1600.0, 1601.0, 1601.0, 1601.0, 1603.0, 1604.0, 1604.0, 1603.0, 1604.0, 1604.0, 1603.0, 1603.0, 1602.0, 1603.0, 1601.0, 1601.0, 1601.0, 1602.0, 1603.0, 1604.0, 1605.0, 1606.0, 1605.0, 1604.0, 1602.0, 1601.0, 1598.0, 1601.0, 1603.0, 1603.0, 1604.0, 1603.0, 1602.0, 1602.0, 1601.0, 1601.0, 1601.0, 1600.0, 1598.0, 1598.0, 1599.0, 1603.0, 1608.0, 1609.0, 1606.0, 1596.0, 1595.0, 1601.0, 1602.0, 1601.0, 1595.0, 1587.0, 1577.0, 1574.0, 1578.0, 1582.0, 1585.0, 1585.0, 1591.0, 1594.0, 1595.0, 1595.0, 1595.0, 1595.0, 1597.0, 1599.0, 1602.0, 1602.0, 1603.0, 1604.0, 1603.0, 1604.0, 1605.0, 1597.0, 1599.0, 1605.0, 1614.0, 1613.0, 1608.0, 1602.0, 1598.0, 1596.0, 1596.0, 1598.0, 1601.0, 1603.0, 1606.0, 1606.0, 1606.0, 1605.0, 1604.0, 1602.0, 1599.0, 1599.0, 1599.0, 1602.0, 1604.0, 1604.0, 1604.0, 1605.0, 1605.0, 1607.0, 1608.0, 1609.0, 1610.0, 1609.0, 1607.0, 1607.0, 1612.0, 1612.0, 1611.0, 1609.0, 1606.0, 1603.0, 1603.0, 1602.0, 1602.0, 1601.0, 1602.0, 1603.0, 1601.0, 1598.0, 1598.0, 1599.0, 1600.0, 1599.0, 1600.0, 1603.0, 1606.0, 1606.0, 1606.0, 1603.0, 1600.0, 1600.0, 1601.0, 1601.0, 1602.0, 1604.0, 1606.0, 1605.0, 1605.0, 1605.0, 1604.0, 1603.0, 1603.0, 1603.0, 1603.0]
    },
    "slices": {}
  }
}