{
  "AcquisitionMatrixPE": 72,
  "AcquisitionNumber": 1,
  "AcquisitionTime": "18:02:39.992500",
  "BandwidthPerPixelPhaseEncode": 17.943,
  "BaseResolution": 96,
  "BodyPartExamined": "BRAIN",
  "CoilCombinationMethod": "Sum of Squares",
  "ConsistencyInfo": "N4_VE11C_LATEST_20160120",
  "ConversionSoftware": "dcm2niix",
  "ConversionSoftwareVersion": "v1.0.20211006",
  "DerivedVendorReportedEchoSpacing": 0.000552897,
  "DeviceSerialNumber": "166011",
  "EchoTime": 0.03,
  "EchoTrainLength": 58,
  "EffectiveEchoSpacing": 0.000580542,
  "FlipAngle": 62,
  "ImageOrientationPatientDICOM": [0.997699, 0.0122535, 0.0666811, -0.0142798, 0.999448, 0.0299961],
  "ImageType": [
    "ORIGINAL",
    "PRIMARY",
    "M",
    "ND",
    "MOSAIC"
],
  "ImagingFrequency": 123.259,
  "InPlanePhaseEncodingDirectionDICOM": "COL",
  "InstitutionAddress": "West 130th Street 610,NY,NYC,US,10025",
  "InstitutionName": "MBBI",
  "MRAcquisitionType": "2D",
  "MagneticFieldStrength": 3,
  "Manufacturer": "Siemens",
  "ManufacturersModelName": "Prisma",
  "Modality": "MR",
  "MultibandAccelerationFactor": 3,
  "PartialFourier": 0.75,
  "PatientPosition": "HFS",
  "PercentPhaseFOV": 100,
  "PercentSampling": 75,
  "PhaseEncodingDirection": "j-",
  "PhaseEncodingSteps": 58,
  "PhaseOversampling": 0.05,
  "PhaseResolution": 0.75,
  "PixelBandwidth": 2265,
  "ProcedureStepDescription": "White^Word_recognition",
  "ProtocolName": "func_vwfate_run4",
  "PulseSequenceDetails": "%SiemensSeq%\\ep2d_bold",
  "ReceiveCoilActiveElements": "HC1-6",
  "ReceiveCoilName": "HeadNeck_64",
  "ReconMatrixPE": 96,
  "RefLinesPE": 40,
  "RepetitionTime": 1.5,
  "SAR": 0.0499414,
  "ScanOptions": "PFP\\FS",
  "ScanningSequence": "EP",
  "SequenceName": "*epfid2d1_72",
  "SequenceVariant": "SK\\OSP",
  "SeriesDescription": "func_vwfate_run4",
  "SeriesNumber": 13,
  "ShimSetting": [-1137, -1403, 681, 526, -116, -40, -24, -39],
  "SliceThickness": 2,
  "SliceTiming": [1.0775, 0, 0.74, 0.0675, 0.8075, 0.135, 0.875, 0.2025, 0.9425, 0.27, 1.01, 0.405, 1.145, 0.4725, 1.2125, 0.5375, 1.2775, 0.605, 1.345, 0.6725, 1.4125, 0.3375, 1.0775, 0, 0.74, 0.0675, 0.8075, 0.135, 0.875, 0.2025, 0.9425, 0.27, 1.01, 0.405, 1.145, 0.4725, 1.2125, 0.5375, 1.2775, 0.605, 1.345, 0.6725, 1.4125, 0.3375, 1.0775, 0, 0.74, 0.0675, 0.8075, 0.135, 0.875, 0.2025, 0.9425, 0.27, 1.01, 0.405, 1.145, 0.4725, 1.2125, 0.5375, 1.2775, 0.605, 1.345, 0.6725, 1.4125, 0.3375],
  "SoftwareVersions": "syngo MR E11",
  "SpacingBetweenSlices": 2,
  "StationName": "AWP166011",
  "TaskName": "vwfate",
  "TotalReadoutTime": 0.0551515,
  "TxRefAmp": 216.676,
  "dcmmeta_affine": [
    [-1.9953981637954712, -0.028559578582644463, 0.13255341351032257, 98.80061340332031],
    [-0.02450704760849476, 1.9988960027694702, 0.06175856664776802, -86.77008819580078],
    [0.13336214423179626, -0.059992216527462006, 1.9946467876434326, -39.028480529785156],
    [0.0, 0.0, 0.0, 1.0]
],
  "dcmmeta_reorient_transform": [
    [0.0, -1.0, 0.0, 95.0],
    [1.0, 0.0, 0.0, 0.0],
    [0.0, 0.0, 1.0, 0.0],
    [0.0, 0.0, 0.0, 1.0]
],
  "dcmmeta_shape": [96, 96, 66, 164],
  "dcmmeta_slice_dim": 2,
  "dcmmeta_version": 0.6,
  "global": {
    "const": {
      "AcquisitionMatrix": [96, 0, 0, 72],
      "AngioFlag": "N",
      "BitsAllocated": 16,
      "BitsStored": 12,
      "BodyPartExamined": "BRAIN",
      "Columns": 864,
      "EchoNumbers": 1,
      "EchoTime": 30.0,
      "EchoTrainLength": 58,
      "FlipAngle": 62.0,
      "HighBit": 11,
      "ImageOrientationPatient": [0.99769909602013, 0.01225352393953, 0.06668106891527, -0.01427978912, 0.99944800819066, 0.02999610885455],
      "ImagePositionPatient": [-851.35348395672, -880.11180937984, -118.97581316051],
      "ImageType": [
        "ORIGINAL",
        "PRIMARY",
        "M",
        "ND",
        "MOSAIC"
],
      "ImagedNucleus": "1H",
      "ImagingFrequency": 123.259222,
      "InPlanePhaseEncodingDirection": "COL",
      "MRAcquisitionType": "2D",
      "MagneticFieldStrength": 3.0,
      "Manufacturer": "SIEMENS",
      "ManufacturerModelName": "Prisma",
      "Modality": "MR",
      "NumberOfAverages": 1.0,
      "NumberOfPhaseEncodingSteps": 58,
      "PercentPhaseFieldOfView": 100.0,
      "PercentSampling": 75.0,
      "PerformedProcedureStepStartTime": "172427.456000",
      "PhotometricInterpretation": "MONOCHROME2",
      "PixelBandwidth": 2265.0,
      "PixelRepresentation": 0,
      "PixelSpacing": [2.0, 2.0],
      "ProtocolName": "func_vwfate_run4",
      "RepetitionTime": 1500.0,
      "Rows": 864,
      "SAR": 0.0499414175522,
      "SamplesPerPixel": 1,
      "ScanOptions": [
        "PFP",
        "FS"
],
      "ScanningSequence": "EP",
      "SequenceName": "*epfid2d1_72",
      "SequenceVariant": [
        "SK",
        "OSP"
],
      "SeriesDescription": "func_vwfate_run4",
      "SeriesNumber": 13,
      "SeriesTime": "180327.349000",
      "SliceLocation": -35.055233375068,
      "SliceThickness": 2.0,
      "SmallestImagePixelValue": 0,
      "SoftwareVersions": "syngo MR E11",
      "SpacingBetweenSlices": 2.0000000424366,
      "SpecificCharacterSet": "ISO_IR 100",
      "StudyID": "1",
      "StudyTime": "172427.413000",
      "TransmitCoilName": "Body",
      "VariableFlipAngleFlag": "N",
      "WindowCenterWidthExplanation": "Algo1",
      "dBdt": 0.0},
    "slices": {}
  },
  "time": {
    "samples": {
      "AcquisitionNumber": [1, 2, 3, 4, 5, 6, 7, 8, 9, 10, 11, 12, 13, 14, 15, 16, 17, 18, 19, 20, 21, 22, 23, 24, 25, 26, 27, 28, 29, 30, 31, 32, 33, 34, 35, 36, 37, 38, 39, 40, 41, 42, 43, 44, 45, 46, 47, 48, 49, 50, 51, 52, 53, 54, 55, 56, 57, 58, 59, 60, 61, 62, 63, 64, 65, 66, 67, 68, 69, 70, 71, 72, 73, 74, 75, 76, 77, 78, 79, 80, 81, 82, 83, 84, 85, 86, 87, 88, 89, 90, 91, 92, 93, 94, 95, 96, 97, 98, 99, 100, 101, 102, 103, 104, 105, 106, 107, 108, 109, 110, 111, 112, 113, 114, 115, 116, 117, 118, 119, 120, 121, 122, 123, 124, 125, 126, 127, 128, 129, 130, 131, 132, 133, 134, 135, 136, 137, 138, 139, 140, 141, 142, 143, 144, 145, 146, 147, 148, 149, 150, 151, 152, 153, 154, 155, 156, 157, 158, 159, 160, 161, 162, 163, 164],
      "AcquisitionTime": ["180239.992500", "180241.492500", "180242.992500", "180244.492500", "180245.992500", "180247.492500", "180248.992500", "180250.492500", "180251.992500", "180253.492500", "180254.992500", "180256.492500", "180257.992500", "180259.492500", "180300.992500", "180302.492500", "180303.992500", "180305.492500", "180306.992500", "180308.492500", "180309.992500", "180311.492500", "180312.992500", "180314.492500", "180315.992500", "180317.492500", "180318.992500", "180320.492500", "180321.992500", "180323.492500", "180324.992500", "180326.492500", "180327.992500", "180329.492500", "180330.992500", "180332.492500", "180333.992500", "180335.492500", "180336.992500", "180338.492500", "180339.992500", "180341.492500", "180342.992500", "180344.492500", "180345.992500", "180347.492500", "180348.992500", "180350.492500", "180351.992500", "180353.492500", "180354.992500", "180356.492500", "180357.992500", "180359.492500", "180400.992500", "180402.492500", "180403.992500", "180405.492500", "180406.992500", "180408.492500", "180409.992500", "180411.492500", "180412.992500", "180414.492500", "180415.992500", "180417.492500", "180418.992500", "180420.492500", "180421.992500", "180423.492500", "180424.992500", "180426.492500", "180427.992500", "180429.492500", "180430.992500", "180432.492500", "180433.992500", "180435.492500", "180436.992500", "180438.492500", "180439.992500", "180441.492500", "180442.992500", "180444.492500", "180445.992500", "180447.492500", "180448.992500", "180450.492500", "180451.992500", "180453.492500", "180454.992500", "180456.492500", "180457.992500", "180459.492500", "180500.992500", "180502.492500", "180503.992500", "180505.492500", "180506.992500", "180508.492500", "180509.992500", "180511.492500", "180512.992500", "180514.492500", "180515.992500", "180517.492500", "180518.992500", "180520.492500", "180521.992500", "180523.492500", "180524.992500", "180526.492500", "180527.992500", "180529.492500", "180530.992500", "180532.492500", "180533.992500", "180535.492500", "180536.992500", "180538.492500", "180539.992500", "180541.492500", "180542.992500", "180544.492500", "180545.992500", "180547.492500", "180548.992500", "180550.492500", "180551.992500", "180553.492500", "180554.992500", "180556.492500", "180557.992500", "180559.492500", "180600.992500", "180602.492500", "180603.992500", "180605.492500", "180606.992500", "180608.492500", "180609.992500", "180611.492500", "180612.992500", "180614.492500", "180615.992500", "180617.492500", "180618.992500", "180620.492500", "180621.992500", "180623.492500", "180624.992500", "180626.492500", "180627.992500", "180629.492500", "180630.992500", "180632.492500", "180633.992500", "180635.492500", "180636.992500", "180638.492500", "180639.992500", "180641.492500", "180642.992500", "180644.492500"],
      "ContentTime": ["180327.353000", "180327.357000", "180327.360000", "180327.379000", "180327.383000", "180327.386000", "180327.389000", "180327.392000", "180327.395000", "180327.398000", "180327.401000", "180327.404000", "180327.407000", "180327.411000", "180327.414000", "180327.417000", "180327.420000", "180327.428000", "180327.431000", "180327.435000", "180327.438000", "180327.441000", "180327.444000", "180327.447000", "180327.450000", "180327.453000", "180327.456000", "180327.459000", "180327.462000", "180327.465000", "180327.468000", "180407.349000", "180407.352000", "180407.356000", "180407.366000", "180407.370000", "180407.373000", "180407.376000", "180407.379000", "180407.382000", "180407.385000", "180407.388000", "180407.391000", "180407.394000", "180407.397000", "180407.400000", "180407.403000", "180407.406000", "180407.409000", "180407.412000", "180407.415000", "180407.418000", "180407.421000", "180407.424000", "180407.427000", "180407.430000", "180407.433000", "180407.436000", "180447.349000", "180447.352000", "180447.356000", "180447.359000", "180447.363000", "180447.366000", "180447.369000", "180447.372000", "180447.375000", "180447.378000", "180447.382000", "180447.385000", "180447.388000", "180447.391000", "180447.394000", "180447.397000", "180447.401000", "180447.404000", "180447.407000", "180447.410000", "180447.413000", "180447.416000", "180447.419000", "180447.422000", "180447.425000", "180447.428000", "180447.432000", "180527.350000", "180527.354000", "180527.357000", "180527.360000", "180527.364000", "180527.367000", "180527.370000", "180527.373000", "180527.376000", "180527.380000", "180527.383000", "180527.386000", "180527.390000", "180527.393000", "180527.397000", "180527.400000", "180527.404000", "180527.407000", "180527.411000", "180527.414000", "180527.417000", "180527.420000", "180527.423000", "180527.426000", "180527.429000", "180527.433000", "180607.349000", "180607.352000", "180607.355000", "180607.358000", "180607.361000", "180607.365000", "180607.368000", "180607.371000", "180607.374000", "180607.377000", "180607.380000", "180607.383000", "180607.386000", "180607.389000", "180607.392000", "180607.395000", "180607.398000", "180607.411000", "180607.414000", "180607.417000", "180607.420000", "180607.423000", "180607.426000", "180607.429000", "180607.432000", "180607.435000", "180607.438000", "180645.742000", "180645.746000", "180645.749000", "180645.752000", "180645.755000", "180645.758000", "180645.761000", "180645.764000", "180645.768000", "180645.771000", "180645.775000", "180645.778000", "180645.781000", "180645.785000", "180645.789000", "180645.792000", "180645.795000", "180645.798000", "180645.801000", "180645.805000", "180645.808000", "180645.811000", "180645.815000", "180645.818000", "180645.831000", "180645.834000"],
      "InstanceCreationTime": ["180327.353000", "180327.357000", "180327.360000", "180327.379000", "180327.383000", "180327.386000", "180327.389000", "180327.392000", "180327.395000", "180327.398000", "180327.401000", "180327.404000", "180327.407000", "180327.411000", "180327.414000", "180327.417000", "180327.420000", "180327.428000", "180327.431000", "180327.435000", "180327.438000", "180327.441000", "180327.444000", "180327.447000", "180327.450000", "180327.453000", "180327.456000", "180327.459000", "180327.462000", "180327.465000", "180327.468000", "180407.349000", "180407.352000", "180407.356000", "180407.366000", "180407.370000", "180407.373000", "180407.376000", "180407.379000", "180407.382000", "180407.385000", "180407.388000", "180407.391000", "180407.394000", "180407.397000", "180407.400000", "180407.403000", "180407.406000", "180407.409000", "180407.412000", "180407.415000", "180407.418000", "180407.421000", "180407.424000", "180407.427000", "180407.430000", "180407.433000", "180407.436000", "180447.349000", "180447.352000", "180447.356000", "180447.359000", "180447.363000", "180447.366000", "180447.369000", "180447.372000", "180447.375000", "180447.378000", "180447.382000", "180447.385000", "180447.388000", "180447.391000", "180447.394000", "180447.397000", "180447.401000", "180447.404000", "180447.407000", "180447.410000", "180447.413000", "180447.416000", "180447.419000", "180447.422000", "180447.425000", "180447.428000", "180447.432000", "180527.350000", "180527.354000", "180527.357000", "180527.360000", "180527.364000", "180527.367000", "180527.370000", "180527.373000", "180527.376000", "180527.380000", "180527.383000", "180527.386000", "180527.390000", "180527.393000", "180527.397000", "180527.400000", "180527.404000", "180527.407000", "180527.411000", "180527.414000", "180527.417000", "180527.420000", "180527.423000", "180527.426000", "180527.429000", "180527.433000", "180607.349000", "180607.352000", "180607.355000", "180607.358000", "180607.361000", "180607.365000", "180607.368000", "180607.371000", "180607.374000", "180607.377000", "180607.380000", "180607.383000", "180607.386000", "180607.389000", "180607.392000", "180607.395000", "180607.398000", "180607.411000", "180607.414000", "180607.417000", "180607.420000", "180607.423000", "180607.426000", "180607.429000", "180607.432000", "180607.435000", "180607.438000", "180645.742000", "180645.746000", "180645.749000", "180645.752000", "180645.755000", "180645.758000", "180645.761000", "180645.764000", "180645.768000", "180645.771000", "180645.775000", "180645.778000", "180645.781000", "180645.785000", "180645.789000", "180645.792000", "180645.795000", "180645.798000", "180645.801000", "180645.805000", "180645.808000", "180645.811000", "180645.815000", "180645.818000", "180645.831000", "180645.834000"],
      "InstanceNumber": [1, 2, 3, 4, 5, 6, 7, 8, 9, 10, 11, 12, 13, 14, 15, 16, 17, 18, 19, 20, 21, 22, 23, 24, 25, 26, 27, 28, 29, 30, 31, 32, 33, 34, 35, 36, 37, 38, 39, 40, 41, 42, 43, 44, 45, 46, 47, 48, 49, 50, 51, 52, 53, 54, 55, 56, 57, 58, 59, 60, 61, 62, 63, 64, 65, 66, 67, 68, 69, 70, 71, 72, 73, 74, 75, 76, 77, 78, 79, 80, 81, 82, 83, 84, 85, 86, 87, 88, 89, 90, 91, 92, 93, 94, 95, 96, 97, 98, 99, 100, 101, 102, 103, 104, 105, 106, 107, 108, 109, 110, 111, 112, 113, 114, 115, 116, 117, 118, 119, 120, 121, 122, 123, 124, 125, 126, 127, 128, 129, 130, 131, 132, 133, 134, 135, 136, 137, 138, 139, 140, 141, 142, 143, 144, 145, 146, 147, 148, 149, 150, 151, 152, 153, 154, 155, 156, 157, 158, 159, 160, 161, 162, 163, 164],
      "LargestImagePixelValue": [3955, 3750, 3753, 3714, 3655, 3642, 3696, 3630, 3659, 3634, 3604, 3600, 3652, 3638, 3628, 3651, 3610, 3636, 3586, 3650, 3617, 3641, 3614, 3626, 3612, 3614, 3640, 3649, 3638, 3647, 3641, 3663, 3693, 3599, 3636, 3656, 3653, 3672, 3648, 3653, 3670, 3648, 3631, 3660, 3625, 3617, 3641, 3632, 3631, 3684, 3648, 3628, 3639, 3673, 3656, 3686, 3690, 3668, 3667, 3677, 3652, 3668, 3660, 3654, 3682, 3672, 3709, 3703, 3675, 3753, 3725, 3687, 3690, 3684, 3723, 3711, 3738, 3745, 3714, 3738, 3739, 3722, 3728, 3723, 3713, 3711, 3735, 3754, 3717, 3705, 3709, 3698, 3660, 3723, 3690, 3701, 3693, 3730, 3725, 3688, 3684, 3720, 3722, 3698, 3692, 3765, 3731, 3751, 3719, 3713, 3735, 3768, 3784, 3765, 3761, 3759, 3765, 3749, 3730, 3753, 3776, 3775, 3756, 3745, 3780, 3779, 3755, 3765, 3774, 3788, 3769, 3734, 3771, 3758, 3734, 3709, 3745, 3742, 3738, 3772, 3761, 3747, 3792, 3787, 3768, 3810, 3773, 3753, 3780, 3782, 3784, 3793, 3749, 3776, 3769, 3768, 3779, 3789, 3763, 3779, 3818, 3798, 3773, 3783],
      "WindowCenter": [735.0, 735.0, 734.0, 735.0, 735.0, 736.0, 736.0, 737.0, 736.0, 737.0, 737.0, 737.0, 737.0, 737.0, 737.0, 738.0, 738.0, 737.0, 737.0, 737.0, 737.0, 738.0, 738.0, 738.0, 737.0, 736.0, 736.0, 735.0, 736.0, 735.0, 735.0, 735.0, 735.0, 736.0, 736.0, 735.0, 734.0, 734.0, 735.0, 736.0, 738.0, 738.0, 738.0, 738.0, 736.0, 736.0, 737.0, 737.0, 737.0, 736.0, 736.0, 737.0, 736.0, 736.0, 736.0, 736.0, 735.0, 736.0, 736.0, 737.0, 737.0, 737.0, 737.0, 737.0, 736.0, 736.0, 735.0, 735.0, 735.0, 737.0, 738.0, 739.0, 739.0, 738.0, 737.0, 736.0, 737.0, 737.0, 737.0, 737.0, 737.0, 736.0, 736.0, 736.0, 736.0, 736.0, 736.0, 737.0, 737.0, 737.0, 737.0, 737.0, 737.0, 737.0, 737.0, 737.0, 738.0, 738.0, 737.0, 736.0, 736.0, 736.0, 736.0, 736.0, 736.0, 738.0, 737.0, 737.0, 737.0, 737.0, 737.0, 737.0, 737.0, 736.0, 736.0, 736.0, 736.0, 736.0, 735.0, 735.0, 736.0, 736.0, 735.0, 735.0, 735.0, 735.0, 735.0, 736.0, 737.0, 736.0, 736.0, 737.0, 737.0, 736.0, 736.0, 736.0, 738.0, 738.0, 737.0, 736.0, 735.0, 735.0, 736.0, 736.0, 736.0, 737.0, 736.0, 736.0, 737.0, 738.0, 737.0, 737.0, 738.0, 738.0, 738.0, 737.0, 736.0, 735.0, 735.0, 735.0, 735.0, 735.0, 734.0, 734.0],
      "WindowWidth": [1601.0, 1598.0, 1597.0, 1598.0, 1599.0, 1601.0, 1601.0, 1603.0, 1602.0, 1603.0, 1604.0, 1604.0, 1604.0, 1604.0, 1603.0, 1606.0, 1605.0, 1605.0, 1603.0, 1603.0, 1604.0, 1607.0, 1607.0, 1605.0, 1603.0, 1601.0, 1599.0, 1599.0, 1600.0, 1599.0, 1599.0, 1599.0, 1598.0, 1601.0, 1600.0, 1597.0, 1594.0, 1595.0, 1598.0, 1602.0, 1606.0, 1607.0, 1606.0, 1606.0, 1602.0, 1602.0, 1603.0, 1603.0, 1603.0, 1602.0, 1601.0, 1603.0, 1601.0, 1600.0, 1600.0, 1600.0, 1599.0, 1600.0, 1600.0, 1602.0, 1603.0, 1604.0, 1604.0, 1603.0, 1601.0, 1600.0, 1599.0, 1599.0, 1598.0, 1603.0, 1607.0, 1608.0, 1610.0, 1605.0, 1602.0, 1602.0, 1602.0, 1602.0, 1603.0, 1603.0, 1603.0, 1601.0, 1599.0, 1601.0, 1601.0, 1600.0, 1601.0, 1602.0, 1603.0, 1603.0, 1602.0, 1602.0, 1602.0, 1603.0, 1603.0, 1605.0, 1605.0, 1606.0, 1604.0, 1601.0, 1601.0, 1601.0, 1601.0, 1601.0, 1602.0, 1605.0, 1603.0, 1603.0, 1602.0, 1603.0, 1604.0, 1604.0, 1602.0, 1601.0, 1602.0, 1601.0, 1602.0, 1600.0, 1598.0, 1599.0, 1600.0, 1600.0, 1599.0, 1599.0, 1598.0, 1599.0, 1599.0, 1600.0, 1602.0, 1602.0, 1601.0, 1603.0, 1603.0, 1601.0, 1600.0, 1601.0, 1605.0, 1606.0, 1602.0, 1600.0, 1597.0, 1598.0, 1601.0, 1601.0, 1601.0, 1602.0, 1601.0, 1601.0, 1602.0, 1605.0, 1602.0, 1604.0, 1605.0, 1607.0, 1606.0, 1603.0, 1600.0, 1598.0, 1598.0, 1597.0, 1597.0, 1597.0, 1596.0, 1595.0]
    },
    "slices": {}
  }
}