{
  "AcquisitionMatrixPE": 72,
  "AcquisitionNumber": 1,
  "AcquisitionTime": "15:49:9.880000",
  "BandwidthPerPixelPhaseEncode": 17.943,
  "BaseResolution": 96,
  "BodyPartExamined": "BRAIN",
  "CoilCombinationMethod": "Sum of Squares",
  "ConsistencyInfo": "N4_VE11C_LATEST_20160120",
  "ConversionSoftware": "dcm2niix",
  "ConversionSoftwareVersion": "v1.0.20211006",
  "DerivedVendorReportedEchoSpacing": 0.000552897,
  "DeviceSerialNumber": "166011",
  "EchoTime": 0.03,
  "EchoTrainLength": 58,
  "EffectiveEchoSpacing": 0.000580542,
  "FlipAngle": 62,
  "ImageOrientationPatientDICOM": [0.999943, -0.00241069, 0.0104127, 0.00261778, 0.999798, -0.0199212],
  "ImageType": [
    "ORIGINAL",
    "PRIMARY",
    "M",
    "ND",
    "MOSAIC"
],
  "ImagingFrequency": 123.259,
  "InPlanePhaseEncodingDirectionDICOM": "COL",
  "InstitutionAddress": "West 130th Street 610,NY,NYC,US,10025",
  "InstitutionName": "MBBI",
  "MRAcquisitionType": "2D",
  "MagneticFieldStrength": 3,
  "Manufacturer": "Siemens",
  "ManufacturersModelName": "Prisma",
  "Modality": "MR",
  "MultibandAccelerationFactor": 3,
  "PartialFourier": 0.75,
  "PatientPosition": "HFS",
  "PercentPhaseFOV": 100,
  "PercentSampling": 75,
  "PhaseEncodingDirection": "j-",
  "PhaseEncodingSteps": 58,
  "PhaseOversampling": 0.05,
  "PhaseResolution": 0.75,
  "PixelBandwidth": 2265,
  "ProcedureStepDescription": "White^Word_recognition",
  "ProtocolName": "func_vwfate_run5",
  "PulseSequenceDetails": "%SiemensSeq%\\ep2d_bold",
  "ReceiveCoilActiveElements": "HC1-6",
  "ReceiveCoilName": "HeadNeck_64",
  "ReconMatrixPE": 96,
  "RefLinesPE": 40,
  "RepetitionTime": 1.5,
  "SAR": 0.0510522,
  "ScanOptions": "PFP\\FS",
  "ScanningSequence": "EP",
  "SequenceName": "*epfid2d1_72",
  "SequenceVariant": "SK\\OSP",
  "SeriesDescription": "func_vwfate_run5",
  "SeriesNumber": 14,
  "ShimSetting": [-1145, -1374, 622, 503, -71, -140, -73, 1],
  "SliceThickness": 2,
  "SliceTiming": [1.0775, 0, 0.74, 0.0675, 0.8075, 0.135, 0.875, 0.2025, 0.9425, 0.27, 1.01, 0.405, 1.145, 0.4725, 1.2125, 0.54, 1.28, 0.6075, 1.3475, 0.6725, 1.4125, 0.3375, 1.0775, 0, 0.74, 0.0675, 0.8075, 0.135, 0.875, 0.2025, 0.9425, 0.27, 1.01, 0.405, 1.145, 0.4725, 1.2125, 0.54, 1.28, 0.6075, 1.3475, 0.6725, 1.4125, 0.3375, 1.0775, 0, 0.74, 0.0675, 0.8075, 0.135, 0.875, 0.2025, 0.9425, 0.27, 1.01, 0.405, 1.145, 0.4725, 1.2125, 0.54, 1.28, 0.6075, 1.3475, 0.6725, 1.4125, 0.3375],
  "SoftwareVersions": "syngo MR E11",
  "SpacingBetweenSlices": 2,
  "StationName": "AWP166011",
  "TaskName": "vwfate",
  "TotalReadoutTime": 0.0551515,
  "TxRefAmp": 217.235,
  "dcmmeta_affine": [
    [-1.9998857975006104, 0.005235567223280668, 0.020725129172205925, 101.2327651977539],
    [0.004821375943720341, 1.9995962381362915, -0.03989454731345177, -70.80670928955078],
    [0.020825378596782684, 0.039842307567596436, 1.9994946718215942, -67.20441436767578],
    [0.0, 0.0, 0.0, 1.0]
],
  "dcmmeta_reorient_transform": [
    [0.0, -1.0, 0.0, 95.0],
    [1.0, 0.0, 0.0, 0.0],
    [0.0, 0.0, 1.0, 0.0],
    [0.0, 0.0, 0.0, 1.0]
],
  "dcmmeta_shape": [96, 96, 66, 164],
  "dcmmeta_slice_dim": 2,
  "dcmmeta_version": 0.6,
  "global": {
    "const": {
      "AcquisitionMatrix": [96, 0, 0, 72],
      "AngioFlag": "N",
      "BitsAllocated": 16,
      "BitsStored": 12,
      "BodyPartExamined": "BRAIN",
      "Columns": 864,
      "EchoNumbers": 1,
      "EchoTime": 30.0,
      "EchoTrainLength": 58,
      "FlipAngle": 62.0,
      "HighBit": 11,
      "ImageOrientationPatient": [0.99994288060683, -0.0024106880204, 0.01041268970988, 0.00261778368553, 0.99979812704662, -0.0199211536475],
      "ImagePositionPatient": [-871.69673745019, -885.14848424184, -56.116893883986],
      "ImageType": [
        "ORIGINAL",
        "PRIMARY",
        "M",
        "ND",
        "MOSAIC"
],
      "ImagedNucleus": "1H",
      "ImagingFrequency": 123.259433,
      "InPlanePhaseEncodingDirection": "COL",
      "MRAcquisitionType": "2D",
      "MagneticFieldStrength": 3.0,
      "Manufacturer": "SIEMENS",
      "ManufacturerModelName": "Prisma",
      "Modality": "MR",
      "NumberOfAverages": 1.0,
      "NumberOfPhaseEncodingSteps": 58,
      "PercentPhaseFieldOfView": 100.0,
      "PercentSampling": 75.0,
      "PerformedProcedureStepStartTime": "150030.112000",
      "PhotometricInterpretation": "MONOCHROME2",
      "PixelBandwidth": 2265.0,
      "PixelRepresentation": 0,
      "PixelSpacing": [2.0, 2.0],
      "ProtocolName": "func_vwfate_run5",
      "RepetitionTime": 1500.0,
      "Rows": 864,
      "SAR": 0.05105223335173,
      "SamplesPerPixel": 1,
      "ScanOptions": [
        "PFP",
        "FS"
],
      "ScanningSequence": "EP",
      "SequenceName": "*epfid2d1_72",
      "SequenceVariant": [
        "SK",
        "OSP"
],
      "SeriesDescription": "func_vwfate_run5",
      "SeriesNumber": 14,
      "SeriesTime": "154944.656000",
      "SliceLocation": -64.726000890181,
      "SliceThickness": 2.0,
      "SmallestImagePixelValue": 0,
      "SoftwareVersions": "syngo MR E11",
      "SpacingBetweenSlices": 2.0000000395342,
      "SpecificCharacterSet": "ISO_IR 100",
      "StudyID": "1",
      "StudyTime": "150030.048000",
      "TransmitCoilName": "Body",
      "VariableFlipAngleFlag": "N",
      "WindowCenterWidthExplanation": "Algo1",
      "dBdt": 0.0},
    "slices": {}
  },
  "time": {
    "samples": {
      "AcquisitionNumber": [1, 2, 3, 4, 5, 6, 7, 8, 9, 10, 11, 12, 13, 14, 15, 16, 17, 18, 19, 20, 21, 22, 23, 24, 25, 26, 27, 28, 29, 30, 31, 32, 33, 34, 35, 36, 37, 38, 39, 40, 41, 42, 43, 44, 45, 46, 47, 48, 49, 50, 51, 52, 53, 54, 55, 56, 57, 58, 59, 60, 61, 62, 63, 64, 65, 66, 67, 68, 69, 70, 71, 72, 73, 74, 75, 76, 77, 78, 79, 80, 81, 82, 83, 84, 85, 86, 87, 88, 89, 90, 91, 92, 93, 94, 95, 96, 97, 98, 99, 100, 101, 102, 103, 104, 105, 106, 107, 108, 109, 110, 111, 112, 113, 114, 115, 116, 117, 118, 119, 120, 121, 122, 123, 124, 125, 126, 127, 128, 129, 130, 131, 132, 133, 134, 135, 136, 137, 138, 139, 140, 141, 142, 143, 144, 145, 146, 147, 148, 149, 150, 151, 152, 153, 154, 155, 156, 157, 158, 159, 160, 161, 162, 163, 164],
      "AcquisitionTime": ["154909.880000", "154911.380000", "154912.880000", "154914.380000", "154915.880000", "154917.380000", "154918.880000", "154920.380000", "154921.880000", "154923.380000", "154924.880000", "154926.380000", "154927.880000", "154929.380000", "154930.880000", "154932.380000", "154933.880000", "154935.380000", "154936.880000", "154938.380000", "154939.880000", "154941.380000", "154942.880000", "154944.380000", "154945.880000", "154947.380000", "154948.880000", "154950.380000", "154951.880000", "154953.380000", "154954.880000", "154956.380000", "154957.880000", "154959.380000", "155000.880000", "155002.380000", "155003.880000", "155005.380000", "155006.880000", "155008.380000", "155009.880000", "155011.380000", "155012.880000", "155014.380000", "155015.880000", "155017.380000", "155018.880000", "155020.380000", "155021.880000", "155023.380000", "155024.880000", "155026.380000", "155027.880000", "155029.380000", "155030.880000", "155032.380000", "155033.880000", "155035.380000", "155036.880000", "155038.380000", "155039.880000", "155041.380000", "155042.880000", "155044.380000", "155045.880000", "155047.380000", "155048.880000", "155050.380000", "155051.880000", "155053.380000", "155054.880000", "155056.380000", "155057.880000", "155059.380000", "155100.880000", "155102.380000", "155103.880000", "155105.380000", "155106.880000", "155108.380000", "155109.880000", "155111.380000", "155112.880000", "155114.380000", "155115.880000", "155117.380000", "155118.880000", "155120.380000", "155121.880000", "155123.380000", "155124.880000", "155126.380000", "155127.880000", "155129.380000", "155130.880000", "155132.380000", "155133.880000", "155135.380000", "155136.880000", "155138.380000", "155139.880000", "155141.380000", "155142.880000", "155144.380000", "155145.880000", "155147.380000", "155148.880000", "155150.380000", "155151.880000", "155153.380000", "155154.880000", "155156.380000", "155157.880000", "155159.380000", "155200.880000", "155202.380000", "155203.880000", "155205.380000", "155206.880000", "155208.380000", "155209.880000", "155211.380000", "155212.880000", "155214.380000", "155215.880000", "155217.380000", "155218.880000", "155220.380000", "155221.880000", "155223.380000", "155224.880000", "155226.380000", "155227.880000", "155229.380000", "155230.880000", "155232.380000", "155233.880000", "155235.380000", "155236.880000", "155238.380000", "155239.880000", "155241.380000", "155242.880000", "155244.380000", "155245.880000", "155247.380000", "155248.880000", "155250.380000", "155251.880000", "155253.380000", "155254.880000", "155256.380000", "155257.880000", "155259.380000", "155300.880000", "155302.380000", "155303.880000", "155305.380000", "155306.880000", "155308.380000", "155309.880000", "155311.380000", "155312.880000", "155314.380000"],
      "ContentTime": ["154944.660000", "154944.664000", "154944.667000", "154944.675000", "154944.678000", "154944.681000", "154944.684000", "154944.687000", "154944.690000", "154944.694000", "154944.697000", "154944.700000", "154944.703000", "154944.707000", "154944.710000", "154944.713000", "154944.715000", "154944.723000", "154944.726000", "154944.729000", "154944.732000", "154944.735000", "154944.738000", "155024.655000", "155024.679000", "155024.682000", "155024.685000", "155024.688000", "155024.691000", "155024.694000", "155024.697000", "155024.700000", "155024.703000", "155024.706000", "155024.709000", "155024.712000", "155024.715000", "155024.718000", "155024.721000", "155024.724000", "155024.727000", "155024.730000", "155024.733000", "155024.736000", "155024.739000", "155024.742000", "155024.745000", "155024.748000", "155024.751000", "155024.754000", "155104.654000", "155104.657000", "155104.668000", "155104.671000", "155104.674000", "155104.677000", "155104.680000", "155104.683000", "155104.686000", "155104.689000", "155104.692000", "155104.695000", "155104.698000", "155104.701000", "155104.704000", "155104.707000", "155104.710000", "155104.713000", "155104.716000", "155104.719000", "155104.726000", "155104.729000", "155104.732000", "155104.735000", "155104.738000", "155104.741000", "155104.744000", "155144.654000", "155144.657000", "155144.660000", "155144.663000", "155144.666000", "155144.669000", "155144.672000", "155144.675000", "155144.678000", "155144.681000", "155144.684000", "155144.687000", "155144.690000", "155144.693000", "155144.696000", "155144.699000", "155144.702000", "155144.705000", "155144.708000", "155144.711000", "155144.714000", "155144.717000", "155144.720000", "155144.723000", "155144.726000", "155144.729000", "155224.655000", "155224.658000", "155224.661000", "155224.664000", "155224.667000", "155224.670000", "155224.673000", "155224.676000", "155224.679000", "155224.682000", "155224.685000", "155224.689000", "155224.692000", "155224.694000", "155224.697000", "155224.700000", "155224.703000", "155224.706000", "155224.709000", "155224.712000", "155224.715000", "155224.718000", "155224.721000", "155224.724000", "155224.727000", "155224.730000", "155224.733000", "155304.655000", "155304.658000", "155304.669000", "155304.672000", "155304.675000", "155304.678000", "155304.681000", "155304.684000", "155304.687000", "155304.690000", "155304.693000", "155304.696000", "155304.699000", "155304.702000", "155304.705000", "155304.708000", "155304.711000", "155304.714000", "155304.717000", "155304.720000", "155304.723000", "155304.726000", "155304.729000", "155304.732000", "155304.735000", "155304.738000", "155304.741000", "155315.097000", "155315.100000", "155315.104000", "155315.107000", "155315.110000", "155315.113000", "155315.116000"],
      "InstanceCreationTime": ["154944.660000", "154944.664000", "154944.667000", "154944.675000", "154944.678000", "154944.681000", "154944.684000", "154944.687000", "154944.690000", "154944.694000", "154944.697000", "154944.700000", "154944.703000", "154944.707000", "154944.710000", "154944.713000", "154944.715000", "154944.723000", "154944.726000", "154944.729000", "154944.732000", "154944.735000", "154944.738000", "155024.655000", "155024.679000", "155024.682000", "155024.685000", "155024.688000", "155024.691000", "155024.694000", "155024.697000", "155024.700000", "155024.703000", "155024.706000", "155024.709000", "155024.712000", "155024.715000", "155024.718000", "155024.721000", "155024.724000", "155024.727000", "155024.730000", "155024.733000", "155024.736000", "155024.739000", "155024.742000", "155024.745000", "155024.748000", "155024.751000", "155024.754000", "155104.654000", "155104.657000", "155104.668000", "155104.671000", "155104.674000", "155104.677000", "155104.680000", "155104.683000", "155104.686000", "155104.689000", "155104.692000", "155104.695000", "155104.698000", "155104.701000", "155104.704000", "155104.707000", "155104.710000", "155104.713000", "155104.716000", "155104.719000", "155104.726000", "155104.729000", "155104.732000", "155104.735000", "155104.738000", "155104.741000", "155104.744000", "155144.654000", "155144.657000", "155144.660000", "155144.663000", "155144.666000", "155144.669000", "155144.672000", "155144.675000", "155144.678000", "155144.681000", "155144.684000", "155144.687000", "155144.690000", "155144.693000", "155144.696000", "155144.699000", "155144.702000", "155144.705000", "155144.708000", "155144.711000", "155144.714000", "155144.717000", "155144.720000", "155144.723000", "155144.726000", "155144.729000", "155224.655000", "155224.658000", "155224.661000", "155224.664000", "155224.667000", "155224.670000", "155224.673000", "155224.676000", "155224.679000", "155224.682000", "155224.685000", "155224.689000", "155224.692000", "155224.694000", "155224.697000", "155224.700000", "155224.703000", "155224.706000", "155224.709000", "155224.712000", "155224.715000", "155224.718000", "155224.721000", "155224.724000", "155224.727000", "155224.730000", "155224.733000", "155304.655000", "155304.658000", "155304.669000", "155304.672000", "155304.675000", "155304.678000", "155304.681000", "155304.684000", "155304.687000", "155304.690000", "155304.693000", "155304.696000", "155304.699000", "155304.702000", "155304.705000", "155304.708000", "155304.711000", "155304.714000", "155304.717000", "155304.720000", "155304.723000", "155304.726000", "155304.729000", "155304.732000", "155304.735000", "155304.738000", "155304.741000", "155315.097000", "155315.100000", "155315.104000", "155315.107000", "155315.110000", "155315.113000", "155315.116000"],
      "InstanceNumber": [1, 2, 3, 4, 5, 6, 7, 8, 9, 10, 11, 12, 13, 14, 15, 16, 17, 18, 19, 20, 21, 22, 23, 24, 25, 26, 27, 28, 29, 30, 31, 32, 33, 34, 35, 36, 37, 38, 39, 40, 41, 42, 43, 44, 45, 46, 47, 48, 49, 50, 51, 52, 53, 54, 55, 56, 57, 58, 59, 60, 61, 62, 63, 64, 65, 66, 67, 68, 69, 70, 71, 72, 73, 74, 75, 76, 77, 78, 79, 80, 81, 82, 83, 84, 85, 86, 87, 88, 89, 90, 91, 92, 93, 94, 95, 96, 97, 98, 99, 100, 101, 102, 103, 104, 105, 106, 107, 108, 109, 110, 111, 112, 113, 114, 115, 116, 117, 118, 119, 120, 121, 122, 123, 124, 125, 126, 127, 128, 129, 130, 131, 132, 133, 134, 135, 136, 137, 138, 139, 140, 141, 142, 143, 144, 145, 146, 147, 148, 149, 150, 151, 152, 153, 154, 155, 156, 157, 158, 159, 160, 161, 162, 163, 164],
      "LargestImagePixelValue": [3270, 3231, 3213, 3114, 3064, 3065, 3095, 3054, 3077, 3067, 3040, 3064, 3054, 3080, 3068, 3071, 3098, 3059, 3090, 3065, 3083, 3047, 3083, 3077, 3060, 3058, 3066, 3070, 3072, 3075, 3083, 3062, 3137, 3067, 3090, 3082, 3093, 3081, 3074, 3060, 3070, 3054, 3062, 3074, 3054, 3082, 3094, 3052, 3055, 3103, 3092, 3078, 3071, 3105, 3073, 3098, 3065, 3084, 3064, 3070, 3082, 3086, 3112, 3073, 3092, 3047, 3065, 3071, 2989, 2958, 2905, 2943, 2928, 2899, 2918, 2934, 2927, 3005, 2979, 3017, 3002, 3013, 3018, 3019, 3026, 3021, 3014, 3027, 3030, 3031, 3016, 3001, 3021, 3006, 2999, 3001, 3004, 2987, 2984, 3001, 2998, 3015, 2995, 3016, 2989, 3011, 3013, 3009, 3029, 3008, 3020, 3009, 3014, 3035, 3034, 3038, 3029, 3032, 3039, 3058, 3030, 3021, 3016, 3030, 3016, 3003, 3019, 3003, 3031, 3001, 2992, 3017, 3002, 3041, 3015, 3024, 3029, 3013, 3012, 3031, 3003, 3023, 3016, 3021, 3004, 3010, 2992, 3010, 3008, 2999, 3018, 3003, 3012, 3020, 3032, 3005, 3019, 3035, 3004, 3019, 3020, 3034, 3029, 3028],
      "WindowCenter": [794.0, 789.0, 786.0, 784.0, 784.0, 784.0, 785.0, 785.0, 786.0, 787.0, 787.0, 788.0, 789.0, 789.0, 789.0, 790.0, 791.0, 792.0, 793.0, 793.0, 794.0, 794.0, 795.0, 794.0, 794.0, 794.0, 793.0, 793.0, 793.0, 792.0, 792.0, 792.0, 791.0, 793.0, 793.0, 792.0, 793.0, 792.0, 792.0, 792.0, 792.0, 792.0, 793.0, 793.0, 794.0, 794.0, 793.0, 794.0, 793.0, 793.0, 793.0, 793.0, 793.0, 793.0, 793.0, 793.0, 792.0, 793.0, 794.0, 795.0, 794.0, 794.0, 793.0, 792.0, 792.0, 789.0, 791.0, 788.0, 785.0, 786.0, 786.0, 787.0, 786.0, 784.0, 784.0, 784.0, 784.0, 787.0, 787.0, 787.0, 787.0, 787.0, 787.0, 788.0, 789.0, 789.0, 789.0, 788.0, 788.0, 788.0, 789.0, 789.0, 789.0, 789.0, 789.0, 790.0, 791.0, 791.0, 793.0, 794.0, 795.0, 795.0, 793.0, 792.0, 791.0, 791.0, 790.0, 790.0, 791.0, 791.0, 792.0, 792.0, 793.0, 793.0, 793.0, 792.0, 792.0, 792.0, 792.0, 791.0, 791.0, 790.0, 791.0, 792.0, 792.0, 792.0, 792.0, 792.0, 792.0, 793.0, 793.0, 793.0, 791.0, 790.0, 789.0, 788.0, 789.0, 789.0, 790.0, 790.0, 791.0, 790.0, 790.0, 789.0, 789.0, 790.0, 791.0, 792.0, 791.0, 790.0, 790.0, 789.0, 790.0, 789.0, 789.0, 790.0, 791.0, 791.0, 791.0, 790.0, 790.0, 790.0, 790.0, 790.0],
      "WindowWidth": [1750.0, 1735.0, 1724.0, 1720.0, 1720.0, 1718.0, 1722.0, 1724.0, 1726.0, 1728.0, 1730.0, 1732.0, 1734.0, 1736.0, 1736.0, 1739.0, 1741.0, 1743.0, 1746.0, 1747.0, 1750.0, 1750.0, 1753.0, 1750.0, 1750.0, 1749.0, 1747.0, 1746.0, 1745.0, 1744.0, 1745.0, 1745.0, 1741.0, 1745.0, 1746.0, 1744.0, 1745.0, 1744.0, 1744.0, 1743.0, 1744.0, 1743.0, 1745.0, 1745.0, 1748.0, 1749.0, 1748.0, 1748.0, 1746.0, 1746.0, 1746.0, 1746.0, 1746.0, 1745.0, 1747.0, 1746.0, 1744.0, 1747.0, 1748.0, 1751.0, 1750.0, 1748.0, 1746.0, 1743.0, 1744.0, 1735.0, 1739.0, 1731.0, 1722.0, 1725.0, 1725.0, 1725.0, 1723.0, 1718.0, 1719.0, 1717.0, 1719.0, 1727.0, 1727.0, 1729.0, 1727.0, 1727.0, 1729.0, 1731.0, 1733.0, 1733.0, 1732.0, 1731.0, 1730.0, 1732.0, 1732.0, 1733.0, 1734.0, 1735.0, 1735.0, 1737.0, 1738.0, 1740.0, 1746.0, 1749.0, 1750.0, 1751.0, 1746.0, 1742.0, 1740.0, 1739.0, 1737.0, 1737.0, 1740.0, 1741.0, 1741.0, 1743.0, 1745.0, 1744.0, 1744.0, 1741.0, 1742.0, 1742.0, 1742.0, 1741.0, 1740.0, 1737.0, 1739.0, 1741.0, 1742.0, 1742.0, 1741.0, 1742.0, 1742.0, 1744.0, 1744.0, 1744.0, 1738.0, 1735.0, 1732.0, 1731.0, 1733.0, 1734.0, 1737.0, 1738.0, 1737.0, 1735.0, 1735.0, 1734.0, 1734.0, 1738.0, 1740.0, 1741.0, 1739.0, 1737.0, 1735.0, 1733.0, 1734.0, 1734.0, 1735.0, 1737.0, 1739.0, 1740.0, 1738.0, 1737.0, 1737.0, 1737.0, 1735.0, 1735.0]
    },
    "slices": {}
  }
}