{
  "AcquisitionMatrixPE": 72,
  "AcquisitionNumber": 1,
  "AcquisitionTime": "15:18:42.157500",
  "BandwidthPerPixelPhaseEncode": 17.943,
  "BaseResolution": 96,
  "BodyPartExamined": "BRAIN",
  "CoilCombinationMethod": "Sum of Squares",
  "ConsistencyInfo": "N4_VE11C_LATEST_20160120",
  "ConversionSoftware": "dcm2niix",
  "ConversionSoftwareVersion": "v1.0.20211006",
  "DerivedVendorReportedEchoSpacing": 0.000552897,
  "DeviceSerialNumber": "166011",
  "DwellTime": 2.3e-06,
  "EchoTime": 0.03,
  "EchoTrainLength": 58,
  "EffectiveEchoSpacing": 0.000580542,
  "FlipAngle": 62,
  "ImageOrientationPatientDICOM": [0.997868, -0.0407488, -0.0509813, 0.046011, 0.993225, 0.106709],
  "ImageOrientationText": "Tra>Cor(6.3)>Sag(-2.7)",
  "ImageType": [
    "ORIGINAL",
    "PRIMARY",
    "M",
    "ND",
    "MOSAIC"
],
  "ImagingFrequency": 123.259,
  "InPlanePhaseEncodingDirectionDICOM": "COL",
  "InstitutionAddress": "West 130th Street 610,NY,NYC,US,10025",
  "InstitutionName": "MBBI",
  "InstitutionalDepartmentName": "Department",
  "MRAcquisitionType": "2D",
  "MagneticFieldStrength": 3,
  "Manufacturer": "Siemens",
  "ManufacturersModelName": "Prisma",
  "Modality": "MR",
  "MultibandAccelerationFactor": 3,
  "PartialFourier": 0.75,
  "PatientPosition": "HFS",
  "PercentPhaseFOV": 100,
  "PercentSampling": 75,
  "PhaseEncodingDirection": "j-",
  "PhaseEncodingSteps": 58,
  "PhaseOversampling": 0.05,
  "PhaseResolution": 0.75,
  "PixelBandwidth": 2265,
  "ProcedureStepDescription": "White^Word_recognition",
  "ProtocolName": "func_vwfate_run7",
  "PulseSequenceDetails": "%SiemensSeq%\\ep2d_bold",
  "ReceiveCoilActiveElements": "HC1-7",
  "ReceiveCoilName": "HeadNeck_64",
  "ReconMatrixPE": 96,
  "RefLinesPE": 40,
  "RepetitionTime": 1.5,
  "SAR": 0.0500195,
  "ScanOptions": "PFP\\FS",
  "ScanningSequence": "EP",
  "SequenceName": "*epfid2d1_72",
  "SequenceVariant": "SK\\OSP",
  "SeriesDescription": "func_vwfate_run7",
  "SeriesNumber": 8,
  "ShimSetting": [-1157, -1354, 687, 701, -217, -94, -62, 73],
  "SliceThickness": 2,
  "SliceTiming": [1.0775, 0, 0.74, 0.0675, 0.8075, 0.135, 0.875, 0.2025, 0.9425, 0.27, 1.01, 0.405, 1.145, 0.4725, 1.2125, 0.54, 1.28, 0.6075, 1.3475, 0.6725, 1.4125, 0.3375, 1.0775, 0, 0.74, 0.0675, 0.8075, 0.135, 0.875, 0.2025, 0.9425, 0.27, 1.01, 0.405, 1.145, 0.4725, 1.2125, 0.54, 1.28, 0.6075, 1.3475, 0.6725, 1.4125, 0.3375, 1.0775, 0, 0.74, 0.0675, 0.8075, 0.135, 0.875, 0.2025, 0.9425, 0.27, 1.01, 0.405, 1.145, 0.4725, 1.2125, 0.54, 1.28, 0.6075, 1.3475, 0.6725, 1.4125, 0.3375],
  "SoftwareVersions": "syngo MR E11",
  "SpacingBetweenSlices": 2,
  "StationName": "AWP166011",
  "TaskName": "vwfate",
  "TotalReadoutTime": 0.0551515,
  "TxRefAmp": 219.385,
  "dcmmeta_affine": [
    [-1.9957358837127686, 0.09202208369970322, -0.09257515519857407, 97.2831039428711],
    [0.0814976841211319, 1.9864501953125, 0.21765489876270294, -79.60708618164062],
    [-0.10196250677108765, -0.21341852843761444, 1.9859647750854492, -37.35761642456055],
    [0.0, 0.0, 0.0, 1.0]
],
  "dcmmeta_reorient_transform": [
    [0.0, -1.0, 0.0, 95.0],
    [1.0, 0.0, 0.0, 0.0],
    [0.0, 0.0, 1.0, 0.0],
    [0.0, 0.0, 0.0, 1.0]
],
  "dcmmeta_shape": [96, 96, 66, 164],
  "dcmmeta_slice_dim": 2,
  "dcmmeta_version": 0.6,
  "global": {
    "const": {
      "AcquisitionMatrix": [96, 0, 0, 72],
      "AngioFlag": "N",
      "BitsAllocated": 16,
      "BitsStored": 12,
      "BodyPartExamined": "BRAIN",
      "Columns": 864,
      "EchoNumbers": 1,
      "EchoTime": 30.0,
      "EchoTrainLength": 58,
      "FlipAngle": 62.0,
      "HighBit": 11,
      "ImageOrientationPatient": [0.9978679491436, -0.0407488407992, -0.0509812519017, 0.04601104153221, 0.9932251090776, 0.10670926274187],
      "ImagePositionPatient": [-907.72427028582, -840.60745882045, -100.43148732786],
      "ImageType": [
        "ORIGINAL",
        "PRIMARY",
        "M",
        "ND",
        "MOSAIC"
],
      "ImagedNucleus": "1H",
      "ImagingFrequency": 123.259474,
      "InPlanePhaseEncodingDirection": "COL",
      "MRAcquisitionType": "2D",
      "MagneticFieldStrength": 3.0,
      "Manufacturer": "SIEMENS",
      "ManufacturerModelName": "Prisma",
      "Modality": "MR",
      "NumberOfAverages": 1.0,
      "NumberOfPhaseEncodingSteps": 58,
      "PercentPhaseFieldOfView": 100.0,
      "PercentSampling": 75.0,
      "PerformedProcedureStepStartTime": "145541.351000",
      "PhotometricInterpretation": "MONOCHROME2",
      "PixelBandwidth": 2265.0,
      "PixelRepresentation": 0,
      "PixelSpacing": [2.0, 2.0],
      "ProtocolName": "func_vwfate_run7",
      "RepetitionTime": 1500.0,
      "Rows": 864,
      "SAR": 0.05001946882925,
      "SamplesPerPixel": 1,
      "ScanOptions": [
        "PFP",
        "FS"
],
      "ScanningSequence": "EP",
      "SequenceName": "*epfid2d1_72",
      "SequenceVariant": [
        "SK",
        "OSP"
],
      "SeriesDescription": "func_vwfate_run7",
      "SeriesNumber": 8,
      "SeriesTime": "151922.616000",
      "SliceLocation": -50.261890404256,
      "SliceThickness": 2.0,
      "SmallestImagePixelValue": 0,
      "SoftwareVersions": "syngo MR E11",
      "SpacingBetweenSlices": 1.9999999343638,
      "SpecificCharacterSet": "ISO_IR 100",
      "StudyID": "2",
      "StudyTime": "145541.232000",
      "TransmitCoilName": "Body",
      "VariableFlipAngleFlag": "N",
      "WindowCenterWidthExplanation": "Algo1",
      "dBdt": 0.0},
    "slices": {}
  },
  "time": {
    "samples": {
      "AcquisitionNumber": [1, 2, 3, 4, 5, 6, 7, 8, 9, 10, 11, 12, 13, 14, 15, 16, 17, 18, 19, 20, 21, 22, 23, 24, 25, 26, 27, 28, 29, 30, 31, 32, 33, 34, 35, 36, 37, 38, 39, 40, 41, 42, 43, 44, 45, 46, 47, 48, 49, 50, 51, 52, 53, 54, 55, 56, 57, 58, 59, 60, 61, 62, 63, 64, 65, 66, 67, 68, 69, 70, 71, 72, 73, 74, 75, 76, 77, 78, 79, 80, 81, 82, 83, 84, 85, 86, 87, 88, 89, 90, 91, 92, 93, 94, 95, 96, 97, 98, 99, 100, 101, 102, 103, 104, 105, 106, 107, 108, 109, 110, 111, 112, 113, 114, 115, 116, 117, 118, 119, 120, 121, 122, 123, 124, 125, 126, 127, 128, 129, 130, 131, 132, 133, 134, 135, 136, 137, 138, 139, 140, 141, 142, 143, 144, 145, 146, 147, 148, 149, 150, 151, 152, 153, 154, 155, 156, 157, 158, 159, 160, 161, 162, 163, 164],
      "AcquisitionTime": ["151842.157500", "151843.657500", "151845.157500", "151846.657500", "151848.157500", "151849.657500", "151851.157500", "151852.657500", "151854.157500", "151855.657500", "151857.157500", "151858.657500", "151900.157500", "151901.657500", "151903.157500", "151904.657500", "151906.157500", "151907.657500", "151909.157500", "151910.657500", "151912.157500", "151913.657500", "151915.157500", "151916.657500", "151918.157500", "151919.657500", "151921.157500", "151922.657500", "151924.157500", "151925.657500", "151927.157500", "151928.657500", "151930.157500", "151931.657500", "151933.157500", "151934.657500", "151936.157500", "151937.657500", "151939.157500", "151940.657500", "151942.157500", "151943.657500", "151945.157500", "151946.657500", "151948.157500", "151949.657500", "151951.157500", "151952.657500", "151954.157500", "151955.657500", "151957.157500", "151958.657500", "152000.157500", "152001.657500", "152003.157500", "152004.657500", "152006.157500", "152007.657500", "152009.157500", "152010.657500", "152012.157500", "152013.657500", "152015.157500", "152016.657500", "152018.157500", "152019.657500", "152021.157500", "152022.657500", "152024.157500", "152025.657500", "152027.157500", "152028.657500", "152030.157500", "152031.657500", "152033.157500", "152034.657500", "152036.157500", "152037.657500", "152039.157500", "152040.657500", "152042.157500", "152043.657500", "152045.157500", "152046.657500", "152048.157500", "152049.657500", "152051.157500", "152052.657500", "152054.157500", "152055.657500", "152057.157500", "152058.657500", "152100.157500", "152101.657500", "152103.157500", "152104.657500", "152106.157500", "152107.657500", "152109.157500", "152110.657500", "152112.157500", "152113.657500", "152115.157500", "152116.657500", "152118.157500", "152119.657500", "152121.157500", "152122.657500", "152124.157500", "152125.657500", "152127.157500", "152128.657500", "152130.157500", "152131.657500", "152133.157500", "152134.657500", "152136.157500", "152137.657500", "152139.157500", "152140.657500", "152142.157500", "152143.657500", "152145.157500", "152146.657500", "152148.157500", "152149.657500", "152151.157500", "152152.657500", "152154.157500", "152155.657500", "152157.157500", "152158.657500", "152200.157500", "152201.657500", "152203.157500", "152204.657500", "152206.157500", "152207.657500", "152209.157500", "152210.657500", "152212.157500", "152213.657500", "152215.157500", "152216.657500", "152218.157500", "152219.657500", "152221.157500", "152222.657500", "152224.157500", "152225.657500", "152227.157500", "152228.657500", "152230.157500", "152231.657500", "152233.157500", "152234.657500", "152236.157500", "152237.657500", "152239.157500", "152240.657500", "152242.157500", "152243.657500", "152245.157500", "152246.657500"],
      "ContentTime": ["151922.620000", "151922.631000", "151922.634000", "151922.637000", "151922.642000", "151922.645000", "151922.649000", "151922.654000", "151922.657000", "151922.660000", "151922.663000", "151922.666000", "151922.669000", "151922.673000", "151922.676000", "151922.679000", "151922.682000", "151922.685000", "151922.688000", "151922.691000", "151922.694000", "151922.697000", "151922.701000", "151922.704000", "151922.707000", "151922.710000", "151922.713000", "152002.615000", "152002.618000", "152002.621000", "152002.624000", "152002.627000", "152002.630000", "152002.633000", "152002.636000", "152002.640000", "152002.643000", "152002.646000", "152002.649000", "152002.652000", "152002.655000", "152002.658000", "152002.661000", "152002.664000", "152002.667000", "152002.674000", "152002.677000", "152002.680000", "152002.683000", "152002.686000", "152002.689000", "152002.692000", "152002.695000", "152002.698000", "152042.615000", "152042.619000", "152042.622000", "152042.632000", "152042.635000", "152042.638000", "152042.641000", "152042.644000", "152042.647000", "152042.650000", "152042.653000", "152042.656000", "152042.659000", "152042.663000", "152042.666000", "152042.669000", "152042.672000", "152042.675000", "152042.678000", "152042.683000", "152042.686000", "152042.689000", "152042.692000", "152042.695000", "152042.698000", "152042.701000", "152122.615000", "152122.619000", "152122.622000", "152122.625000", "152122.628000", "152122.631000", "152122.634000", "152122.637000", "152122.640000", "152122.643000", "152122.646000", "152122.649000", "152122.652000", "152122.656000", "152122.658000", "152122.661000", "152122.664000", "152122.668000", "152122.671000", "152122.674000", "152122.677000", "152122.680000", "152122.683000", "152122.686000", "152122.689000", "152122.693000", "152122.696000", "152202.615000", "152202.618000", "152202.640000", "152202.643000", "152202.646000", "152202.649000", "152202.652000", "152202.655000", "152202.663000", "152202.666000", "152202.669000", "152202.672000", "152202.675000", "152202.678000", "152202.681000", "152202.684000", "152202.688000", "152202.691000", "152202.694000", "152202.697000", "152202.700000", "152202.703000", "152202.706000", "152202.709000", "152202.712000", "152202.715000", "152202.718000", "152242.615000", "152242.619000", "152242.622000", "152242.625000", "152242.628000", "152242.631000", "152242.634000", "152242.637000", "152242.640000", "152242.643000", "152242.646000", "152242.649000", "152242.653000", "152242.656000", "152242.659000", "152242.662000", "152242.665000", "152242.669000", "152242.672000", "152242.675000", "152242.679000", "152242.683000", "152242.686000", "152242.689000", "152242.692000", "152242.695000", "152247.457000", "152247.460000", "152247.464000", "152247.467000"],
      "InstanceCreationTime": ["151922.620000", "151922.631000", "151922.634000", "151922.637000", "151922.642000", "151922.645000", "151922.649000", "151922.654000", "151922.657000", "151922.660000", "151922.663000", "151922.666000", "151922.669000", "151922.673000", "151922.676000", "151922.679000", "151922.682000", "151922.685000", "151922.688000", "151922.691000", "151922.694000", "151922.697000", "151922.701000", "151922.704000", "151922.707000", "151922.710000", "151922.713000", "152002.615000", "152002.618000", "152002.621000", "152002.624000", "152002.627000", "152002.630000", "152002.633000", "152002.636000", "152002.640000", "152002.643000", "152002.646000", "152002.649000", "152002.652000", "152002.655000", "152002.658000", "152002.661000", "152002.664000", "152002.667000", "152002.674000", "152002.677000", "152002.680000", "152002.683000", "152002.686000", "152002.689000", "152002.692000", "152002.695000", "152002.698000", "152042.615000", "152042.619000", "152042.622000", "152042.632000", "152042.635000", "152042.638000", "152042.641000", "152042.644000", "152042.647000", "152042.650000", "152042.653000", "152042.656000", "152042.659000", "152042.663000", "152042.666000", "152042.669000", "152042.672000", "152042.675000", "152042.678000", "152042.683000", "152042.686000", "152042.689000", "152042.692000", "152042.695000", "152042.698000", "152042.701000", "152122.615000", "152122.619000", "152122.622000", "152122.625000", "152122.628000", "152122.631000", "152122.634000", "152122.637000", "152122.640000", "152122.643000", "152122.646000", "152122.649000", "152122.652000", "152122.656000", "152122.658000", "152122.661000", "152122.664000", "152122.668000", "152122.671000", "152122.674000", "152122.677000", "152122.680000", "152122.683000", "152122.686000", "152122.689000", "152122.693000", "152122.696000", "152202.615000", "152202.618000", "152202.640000", "152202.643000", "152202.646000", "152202.649000", "152202.652000", "152202.655000", "152202.663000", "152202.666000", "152202.669000", "152202.672000", "152202.675000", "152202.678000", "152202.681000", "152202.684000", "152202.688000", "152202.691000", "152202.694000", "152202.697000", "152202.700000", "152202.703000", "152202.706000", "152202.709000", "152202.712000", "152202.715000", "152202.718000", "152242.615000", "152242.619000", "152242.622000", "152242.625000", "152242.628000", "152242.631000", "152242.634000", "152242.637000", "152242.640000", "152242.643000", "152242.646000", "152242.649000", "152242.653000", "152242.656000", "152242.659000", "152242.662000", "152242.665000", "152242.669000", "152242.672000", "152242.675000", "152242.679000", "152242.683000", "152242.686000", "152242.689000", "152242.692000", "152242.695000", "152247.457000", "152247.460000", "152247.464000", "152247.467000"],
      "InstanceNumber": [1, 2, 3, 4, 5, 6, 7, 8, 9, 10, 11, 12, 13, 14, 15, 16, 17, 18, 19, 20, 21, 22, 23, 24, 25, 26, 27, 28, 29, 30, 31, 32, 33, 34, 35, 36, 37, 38, 39, 40, 41, 42, 43, 44, 45, 46, 47, 48, 49, 50, 51, 52, 53, 54, 55, 56, 57, 58, 59, 60, 61, 62, 63, 64, 65, 66, 67, 68, 69, 70, 71, 72, 73, 74, 75, 76, 77, 78, 79, 80, 81, 82, 83, 84, 85, 86, 87, 88, 89, 90, 91, 92, 93, 94, 95, 96, 97, 98, 99, 100, 101, 102, 103, 104, 105, 106, 107, 108, 109, 110, 111, 112, 113, 114, 115, 116, 117, 118, 119, 120, 121, 122, 123, 124, 125, 126, 127, 128, 129, 130, 131, 132, 133, 134, 135, 136, 137, 138, 139, 140, 141, 142, 143, 144, 145, 146, 147, 148, 149, 150, 151, 152, 153, 154, 155, 156, 157, 158, 159, 160, 161, 162, 163, 164],
      "LargestImagePixelValue": [4037, 3846, 3936, 3806, 3832, 3859, 3868, 3785, 3896, 3786, 3805, 3801, 3735, 3838, 3808, 3732, 3811, 3833, 3795, 3808, 3796, 3760, 3852, 3795, 3777, 3803, 3790, 3806, 3700, 3844, 3804, 3801, 3793, 3804, 3798, 3761, 3814, 3781, 3776, 3776, 3804, 3848, 3848, 3821, 3794, 3827, 3780, 3782, 3691, 3788, 3781, 3788, 3730, 3793, 3782, 3807, 3846, 3805, 3814, 3776, 3743, 3718, 3783, 3758, 3773, 3767, 3814, 3720, 3799, 3719, 3775, 3742, 3771, 3773, 3806, 3733, 3784, 3722, 3757, 3763, 3734, 3790, 3735, 3863, 3770, 3819, 3803, 3800, 3814, 3824, 3837, 3897, 3811, 3819, 3844, 3832, 3848, 3817, 3902, 3758, 3883, 3823, 3913, 3845, 3877, 3822, 3818, 3857, 3847, 3869, 3822, 3906, 3835, 3845, 3842, 3864, 3835, 3856, 3835, 3835, 3835, 3828, 3847, 3822, 3844, 3843, 3873, 3841, 3787, 3776, 3828, 3679, 3773, 3795, 3799, 3811, 3731, 3873, 3778, 3811, 3793, 3780, 3800, 3754, 3884, 3738, 3849, 3750, 3732, 3735, 3819, 3727, 3798, 3716, 3877, 3733, 3764, 3725, 3776, 3738, 3801, 3751, 3771, 3733],
      "WindowCenter": [785.0, 783.0, 782.0, 781.0, 780.0, 780.0, 780.0, 780.0, 781.0, 781.0, 781.0, 781.0, 780.0, 781.0, 775.0, 777.0, 779.0, 778.0, 778.0, 777.0, 777.0, 780.0, 780.0, 778.0, 778.0, 778.0, 778.0, 778.0, 778.0, 778.0, 777.0, 778.0, 778.0, 779.0, 779.0, 779.0, 779.0, 779.0, 780.0, 780.0, 781.0, 780.0, 780.0, 779.0, 779.0, 780.0, 780.0, 780.0, 779.0, 780.0, 780.0, 780.0, 780.0, 781.0, 781.0, 782.0, 781.0, 780.0, 780.0, 780.0, 780.0, 780.0, 780.0, 780.0, 780.0, 780.0, 781.0, 780.0, 780.0, 780.0, 781.0, 781.0, 781.0, 782.0, 781.0, 779.0, 779.0, 780.0, 780.0, 780.0, 780.0, 780.0, 779.0, 780.0, 781.0, 781.0, 780.0, 778.0, 778.0, 779.0, 780.0, 780.0, 779.0, 780.0, 780.0, 780.0, 781.0, 781.0, 781.0, 780.0, 781.0, 781.0, 781.0, 780.0, 780.0, 779.0, 779.0, 781.0, 781.0, 781.0, 780.0, 780.0, 780.0, 780.0, 780.0, 780.0, 780.0, 780.0, 780.0, 779.0, 780.0, 779.0, 780.0, 779.0, 779.0, 779.0, 780.0, 780.0, 781.0, 780.0, 780.0, 779.0, 780.0, 779.0, 781.0, 780.0, 780.0, 779.0, 779.0, 779.0, 779.0, 779.0, 781.0, 781.0, 781.0, 781.0, 780.0, 780.0, 780.0, 780.0, 780.0, 779.0, 779.0, 779.0, 780.0, 779.0, 780.0, 779.0, 780.0, 779.0, 780.0, 780.0, 780.0, 780.0],
      "WindowWidth": [1764.0, 1756.0, 1755.0, 1749.0, 1747.0, 1746.0, 1746.0, 1745.0, 1748.0, 1749.0, 1747.0, 1749.0, 1746.0, 1748.0, 1732.0, 1736.0, 1741.0, 1739.0, 1738.0, 1736.0, 1735.0, 1746.0, 1745.0, 1740.0, 1739.0, 1740.0, 1740.0, 1740.0, 1739.0, 1738.0, 1736.0, 1738.0, 1740.0, 1744.0, 1744.0, 1742.0, 1742.0, 1743.0, 1745.0, 1745.0, 1748.0, 1747.0, 1745.0, 1743.0, 1744.0, 1745.0, 1746.0, 1746.0, 1742.0, 1745.0, 1745.0, 1746.0, 1746.0, 1748.0, 1749.0, 1751.0, 1748.0, 1744.0, 1747.0, 1746.0, 1747.0, 1745.0, 1746.0, 1745.0, 1746.0, 1746.0, 1749.0, 1746.0, 1747.0, 1746.0, 1748.0, 1748.0, 1749.0, 1751.0, 1749.0, 1744.0, 1744.0, 1745.0, 1746.0, 1747.0, 1744.0, 1745.0, 1742.0, 1747.0, 1748.0, 1750.0, 1745.0, 1740.0, 1739.0, 1742.0, 1745.0, 1746.0, 1744.0, 1745.0, 1747.0, 1747.0, 1750.0, 1748.0, 1749.0, 1746.0, 1749.0, 1749.0, 1749.0, 1747.0, 1747.0, 1744.0, 1744.0, 1750.0, 1750.0, 1750.0, 1747.0, 1747.0, 1747.0, 1746.0, 1748.0, 1747.0, 1748.0, 1745.0, 1746.0, 1744.0, 1745.0, 1744.0, 1745.0, 1742.0, 1743.0, 1743.0, 1746.0, 1747.0, 1748.0, 1745.0, 1747.0, 1743.0, 1745.0, 1743.0, 1748.0, 1744.0, 1745.0, 1743.0, 1744.0, 1742.0, 1744.0, 1744.0, 1748.0, 1747.0, 1750.0, 1747.0, 1747.0, 1745.0, 1746.0, 1744.0, 1747.0, 1741.0, 1742.0, 1742.0, 1745.0, 1743.0, 1744.0, 1742.0, 1745.0, 1744.0, 1746.0, 1745.0, 1746.0, 1745.0]
    },
    "slices": {}
  }
}