{
  "AcquisitionMatrixPE": 72,
  "AcquisitionNumber": 1,
  "AcquisitionTime": "15:58:47.520000",
  "BandwidthPerPixelPhaseEncode": 17.943,
  "BaseResolution": 96,
  "BodyPartExamined": "BRAIN",
  "CoilCombinationMethod": "Sum of Squares",
  "ConsistencyInfo": "N4_VE11C_LATEST_20160120",
  "ConversionSoftware": "dcm2niix",
  "ConversionSoftwareVersion": "v1.0.20211006",
  "DerivedVendorReportedEchoSpacing": 0.000552897,
  "DeviceSerialNumber": "166011",
  "DwellTime": 2.3e-06,
  "EchoTime": 0.03,
  "EchoTrainLength": 58,
  "EffectiveEchoSpacing": 0.000580542,
  "FlipAngle": 62,
  "ImageOrientationPatientDICOM": [0.997868, -0.0407488, -0.0509813, 0.046011, 0.993225, 0.106709],
  "ImageOrientationText": "Tra>Cor(6.3)>Sag(-2.7)",
  "ImageType": [
    "ORIGINAL",
    "PRIMARY",
    "M",
    "ND",
    "MOSAIC"
],
  "ImagingFrequency": 123.259,
  "InPlanePhaseEncodingDirectionDICOM": "COL",
  "InstitutionAddress": "West 130th Street 610,NY,NYC,US,10025",
  "InstitutionName": "MBBI",
  "InstitutionalDepartmentName": "Department",
  "MRAcquisitionType": "2D",
  "MagneticFieldStrength": 3,
  "Manufacturer": "Siemens",
  "ManufacturersModelName": "Prisma",
  "Modality": "MR",
  "MultibandAccelerationFactor": 3,
  "PartialFourier": 0.75,
  "PatientPosition": "HFS",
  "PercentPhaseFOV": 100,
  "PercentSampling": 75,
  "PhaseEncodingDirection": "j-",
  "PhaseEncodingSteps": 58,
  "PhaseOversampling": 0.05,
  "PhaseResolution": 0.75,
  "PixelBandwidth": 2265,
  "ProcedureStepDescription": "White^Word_recognition",
  "ProtocolName": "func_vwfate_run12",
  "PulseSequenceDetails": "%SiemensSeq%\\ep2d_bold",
  "ReceiveCoilActiveElements": "HC1-7",
  "ReceiveCoilName": "HeadNeck_64",
  "ReconMatrixPE": 96,
  "RefLinesPE": 40,
  "RepetitionTime": 1.5,
  "SAR": 0.0500195,
  "ScanOptions": "PFP\\FS",
  "ScanningSequence": "EP",
  "SequenceName": "*epfid2d1_72",
  "SequenceVariant": "SK\\OSP",
  "SeriesDescription": "func_vwfate_run12",
  "SeriesNumber": 15,
  "ShimSetting": [-1157, -1354, 687, 701, -217, -94, -62, 73],
  "SliceThickness": 2,
  "SliceTiming": [1.075, 0, 0.74, 0.0675, 0.805, 0.1325, 0.8725, 0.2, 0.94, 0.2675, 1.0075, 0.4025, 1.1425, 0.47, 1.21, 0.5375, 1.2775, 0.605, 1.345, 0.6725, 1.4125, 0.335, 1.075, 0, 0.74, 0.0675, 0.805, 0.1325, 0.8725, 0.2, 0.94, 0.2675, 1.0075, 0.4025, 1.1425, 0.47, 1.21, 0.5375, 1.2775, 0.605, 1.345, 0.6725, 1.4125, 0.335, 1.075, 0, 0.74, 0.0675, 0.805, 0.1325, 0.8725, 0.2, 0.94, 0.2675, 1.0075, 0.4025, 1.1425, 0.47, 1.21, 0.5375, 1.2775, 0.605, 1.345, 0.6725, 1.4125, 0.335],
  "SoftwareVersions": "syngo MR E11",
  "SpacingBetweenSlices": 2,
  "StationName": "AWP166011",
  "TaskName": "vwfate",
  "TotalReadoutTime": 0.0551515,
  "TxRefAmp": 219.385,
  "dcmmeta_affine": [
    [-1.9957358837127686, 0.09202208369970322, -0.09257515519857407, 97.2831039428711],
    [0.0814976841211319, 1.9864501953125, 0.21765489876270294, -79.60708618164062],
    [-0.10196250677108765, -0.21341852843761444, 1.9859647750854492, -37.35761642456055],
    [0.0, 0.0, 0.0, 1.0]
],
  "dcmmeta_reorient_transform": [
    [0.0, -1.0, 0.0, 95.0],
    [1.0, 0.0, 0.0, 0.0],
    [0.0, 0.0, 1.0, 0.0],
    [0.0, 0.0, 0.0, 1.0]
],
  "dcmmeta_shape": [96, 96, 66, 164],
  "dcmmeta_slice_dim": 2,
  "dcmmeta_version": 0.6,
  "global": {
    "const": {
      "AcquisitionMatrix": [96, 0, 0, 72],
      "AngioFlag": "N",
      "BitsAllocated": 16,
      "BitsStored": 12,
      "BodyPartExamined": "BRAIN",
      "Columns": 864,
      "EchoNumbers": 1,
      "EchoTime": 30.0,
      "EchoTrainLength": 58,
      "FlipAngle": 62.0,
      "HighBit": 11,
      "ImageOrientationPatient": [0.9978679491436, -0.0407488407992, -0.0509812519017, 0.04601104153221, 0.9932251090776, 0.10670926274187],
      "ImagePositionPatient": [-907.72427028582, -840.60745882045, -100.43148732786],
      "ImageType": [
        "ORIGINAL",
        "PRIMARY",
        "M",
        "ND",
        "MOSAIC"
],
      "ImagedNucleus": "1H",
      "ImagingFrequency": 123.259492,
      "InPlanePhaseEncodingDirection": "COL",
      "MRAcquisitionType": "2D",
      "MagneticFieldStrength": 3.0,
      "Manufacturer": "SIEMENS",
      "ManufacturerModelName": "Prisma",
      "Modality": "MR",
      "NumberOfAverages": 1.0,
      "NumberOfPhaseEncodingSteps": 58,
      "PercentPhaseFieldOfView": 100.0,
      "PercentSampling": 75.0,
      "PerformedProcedureStepStartTime": "145541.351000",
      "PhotometricInterpretation": "MONOCHROME2",
      "PixelBandwidth": 2265.0,
      "PixelRepresentation": 0,
      "PixelSpacing": [2.0, 2.0],
      "ProtocolName": "func_vwfate_run12",
      "RepetitionTime": 1500.0,
      "Rows": 864,
      "SAR": 0.05001946882925,
      "SamplesPerPixel": 1,
      "ScanOptions": [
        "PFP",
        "FS"
],
      "ScanningSequence": "EP",
      "SequenceName": "*epfid2d1_72",
      "SequenceVariant": [
        "SK",
        "OSP"
],
      "SeriesDescription": "func_vwfate_run12",
      "SeriesNumber": 15,
      "SeriesTime": "155918.907000",
      "SliceLocation": -50.261890404256,
      "SliceThickness": 2.0,
      "SmallestImagePixelValue": 0,
      "SoftwareVersions": "syngo MR E11",
      "SpacingBetweenSlices": 1.9999999343638,
      "SpecificCharacterSet": "ISO_IR 100",
      "StudyID": "2",
      "StudyTime": "145541.232000",
      "TransmitCoilName": "Body",
      "VariableFlipAngleFlag": "N",
      "WindowCenterWidthExplanation": "Algo1",
      "dBdt": 0.0},
    "slices": {}
  },
  "time": {
    "samples": {
      "AcquisitionNumber": [1, 2, 3, 4, 5, 6, 7, 8, 9, 10, 11, 12, 13, 14, 15, 16, 17, 18, 19, 20, 21, 22, 23, 24, 25, 26, 27, 28, 29, 30, 31, 32, 33, 34, 35, 36, 37, 38, 39, 40, 41, 42, 43, 44, 45, 46, 47, 48, 49, 50, 51, 52, 53, 54, 55, 56, 57, 58, 59, 60, 61, 62, 63, 64, 65, 66, 67, 68, 69, 70, 71, 72, 73, 74, 75, 76, 77, 78, 79, 80, 81, 82, 83, 84, 85, 86, 87, 88, 89, 90, 91, 92, 93, 94, 95, 96, 97, 98, 99, 100, 101, 102, 103, 104, 105, 106, 107, 108, 109, 110, 111, 112, 113, 114, 115, 116, 117, 118, 119, 120, 121, 122, 123, 124, 125, 126, 127, 128, 129, 130, 131, 132, 133, 134, 135, 136, 137, 138, 139, 140, 141, 142, 143, 144, 145, 146, 147, 148, 149, 150, 151, 152, 153, 154, 155, 156, 157, 158, 159, 160, 161, 162, 163, 164],
      "AcquisitionTime": ["155847.520000", "155849.020000", "155850.520000", "155852.020000", "155853.520000", "155855.020000", "155856.520000", "155858.020000", "155859.520000", "155901.020000", "155902.520000", "155904.020000", "155905.520000", "155907.020000", "155908.520000", "155910.020000", "155911.520000", "155913.020000", "155914.520000", "155916.020000", "155917.520000", "155919.020000", "155920.520000", "155922.020000", "155923.520000", "155925.020000", "155926.520000", "155928.020000", "155929.520000", "155931.020000", "155932.520000", "155934.020000", "155935.520000", "155937.020000", "155938.520000", "155940.020000", "155941.520000", "155943.020000", "155944.520000", "155946.020000", "155947.520000", "155949.020000", "155950.520000", "155952.020000", "155953.520000", "155955.020000", "155956.520000", "155958.020000", "155959.520000", "160001.020000", "160002.520000", "160004.020000", "160005.520000", "160007.020000", "160008.520000", "160010.020000", "160011.520000", "160013.020000", "160014.520000", "160016.020000", "160017.520000", "160019.020000", "160020.520000", "160022.020000", "160023.520000", "160025.020000", "160026.520000", "160028.020000", "160029.520000", "160031.020000", "160032.520000", "160034.020000", "160035.520000", "160037.020000", "160038.520000", "160040.020000", "160041.520000", "160043.020000", "160044.520000", "160046.020000", "160047.520000", "160049.020000", "160050.520000", "160052.020000", "160053.520000", "160055.020000", "160056.520000", "160058.020000", "160059.520000", "160101.020000", "160102.520000", "160104.020000", "160105.520000", "160107.020000", "160108.520000", "160110.020000", "160111.520000", "160113.020000", "160114.520000", "160116.020000", "160117.520000", "160119.020000", "160120.520000", "160122.020000", "160123.520000", "160125.020000", "160126.520000", "160128.020000", "160129.520000", "160131.020000", "160132.520000", "160134.020000", "160135.520000", "160137.020000", "160138.520000", "160140.020000", "160141.520000", "160143.020000", "160144.520000", "160146.020000", "160147.520000", "160149.020000", "160150.520000", "160152.020000", "160153.520000", "160155.020000", "160156.520000", "160158.020000", "160159.520000", "160201.020000", "160202.520000", "160204.020000", "160205.520000", "160207.020000", "160208.520000", "160210.020000", "160211.520000", "160213.020000", "160214.520000", "160216.020000", "160217.520000", "160219.020000", "160220.520000", "160222.020000", "160223.520000", "160225.020000", "160226.520000", "160228.020000", "160229.520000", "160231.020000", "160232.520000", "160234.020000", "160235.520000", "160237.020000", "160238.520000", "160240.020000", "160241.520000", "160243.020000", "160244.520000", "160246.020000", "160247.520000", "160249.020000", "160250.520000", "160252.020000"],
      "ContentTime": ["155918.911000", "155918.915000", "155918.919000", "155918.922000", "155918.925000", "155918.928000", "155918.931000", "155918.934000", "155918.943000", "155918.946000", "155918.949000", "155918.952000", "155918.961000", "155918.964000", "155918.967000", "155918.970000", "155918.973000", "155918.976000", "155918.980000", "155918.982000", "155918.985000", "155958.906000", "155958.913000", "155958.917000", "155958.923000", "155958.927000", "155958.931000", "155958.934000", "155958.948000", "155958.952000", "155958.955000", "155958.958000", "155958.961000", "155958.964000", "155958.967000", "155958.970000", "155958.973000", "155958.977000", "155958.980000", "155958.983000", "155958.986000", "155958.989000", "155958.992000", "155958.995000", "155958.998000", "155959.003000", "155959.006000", "160038.906000", "160038.909000", "160038.917000", "160038.920000", "160038.923000", "160038.926000", "160038.929000", "160038.932000", "160038.935000", "160038.938000", "160038.941000", "160038.944000", "160038.947000", "160038.950000", "160038.953000", "160038.956000", "160038.960000", "160038.963000", "160038.965000", "160038.968000", "160038.972000", "160038.975000", "160038.981000", "160038.984000", "160038.988000", "160038.991000", "160038.994000", "160118.907000", "160118.910000", "160118.913000", "160118.916000", "160118.919000", "160118.922000", "160118.925000", "160118.929000", "160118.932000", "160118.935000", "160118.938000", "160118.944000", "160118.947000", "160118.950000", "160118.953000", "160118.956000", "160118.959000", "160118.962000", "160118.965000", "160118.968000", "160118.971000", "160118.974000", "160118.977000", "160118.981000", "160118.984000", "160118.987000", "160118.990000", "160158.906000", "160158.909000", "160158.912000", "160158.915000", "160158.919000", "160158.922000", "160158.925000", "160158.928000", "160158.931000", "160158.934000", "160158.937000", "160158.952000", "160158.956000", "160158.959000", "160158.962000", "160158.965000", "160158.968000", "160158.971000", "160158.974000", "160158.977000", "160158.980000", "160158.983000", "160158.986000", "160158.989000", "160158.992000", "160158.996000", "160238.906000", "160238.909000", "160238.912000", "160238.915000", "160238.918000", "160238.921000", "160238.924000", "160238.927000", "160238.931000", "160238.934000", "160238.937000", "160238.940000", "160238.943000", "160238.946000", "160238.949000", "160238.952000", "160238.955000", "160238.958000", "160238.961000", "160238.964000", "160238.967000", "160238.970000", "160238.974000", "160238.977000", "160238.980000", "160238.983000", "160238.986000", "160253.340000", "160253.344000", "160253.347000", "160253.350000", "160253.353000", "160253.357000", "160253.360000", "160253.363000", "160253.366000", "160253.370000"],
      "InstanceCreationTime": ["155918.911000", "155918.915000", "155918.919000", "155918.922000", "155918.925000", "155918.928000", "155918.931000", "155918.934000", "155918.943000", "155918.946000", "155918.949000", "155918.952000", "155918.961000", "155918.964000", "155918.967000", "155918.970000", "155918.973000", "155918.976000", "155918.980000", "155918.982000", "155918.985000", "155958.906000", "155958.913000", "155958.917000", "155958.923000", "155958.927000", "155958.931000", "155958.934000", "155958.948000", "155958.952000", "155958.955000", "155958.958000", "155958.961000", "155958.964000", "155958.967000", "155958.970000", "155958.973000", "155958.977000", "155958.980000", "155958.983000", "155958.986000", "155958.989000", "155958.992000", "155958.995000", "155958.998000", "155959.003000", "155959.006000", "160038.906000", "160038.909000", "160038.917000", "160038.920000", "160038.923000", "160038.926000", "160038.929000", "160038.932000", "160038.935000", "160038.938000", "160038.941000", "160038.944000", "160038.947000", "160038.950000", "160038.953000", "160038.956000", "160038.960000", "160038.963000", "160038.965000", "160038.968000", "160038.972000", "160038.975000", "160038.981000", "160038.984000", "160038.988000", "160038.991000", "160038.994000", "160118.907000", "160118.910000", "160118.913000", "160118.916000", "160118.919000", "160118.922000", "160118.925000", "160118.929000", "160118.932000", "160118.935000", "160118.938000", "160118.944000", "160118.947000", "160118.950000", "160118.953000", "160118.956000", "160118.959000", "160118.962000", "160118.965000", "160118.968000", "160118.971000", "160118.974000", "160118.977000", "160118.981000", "160118.984000", "160118.987000", "160118.990000", "160158.906000", "160158.909000", "160158.912000", "160158.915000", "160158.919000", "160158.922000", "160158.925000", "160158.928000", "160158.931000", "160158.934000", "160158.937000", "160158.952000", "160158.956000", "160158.959000", "160158.962000", "160158.965000", "160158.968000", "160158.971000", "160158.974000", "160158.977000", "160158.980000", "160158.983000", "160158.986000", "160158.989000", "160158.992000", "160158.996000", "160238.906000", "160238.909000", "160238.912000", "160238.915000", "160238.918000", "160238.921000", "160238.924000", "160238.927000", "160238.931000", "160238.934000", "160238.937000", "160238.940000", "160238.943000", "160238.946000", "160238.949000", "160238.952000", "160238.955000", "160238.958000", "160238.961000", "160238.964000", "160238.967000", "160238.970000", "160238.974000", "160238.977000", "160238.980000", "160238.983000", "160238.986000", "160253.340000", "160253.344000", "160253.347000", "160253.350000", "160253.353000", "160253.357000", "160253.360000", "160253.363000", "160253.366000", "160253.370000"],
      "InstanceNumber": [1, 2, 3, 4, 5, 6, 7, 8, 9, 10, 11, 12, 13, 14, 15, 16, 17, 18, 19, 20, 21, 22, 23, 24, 25, 26, 27, 28, 29, 30, 31, 32, 33, 34, 35, 36, 37, 38, 39, 40, 41, 42, 43, 44, 45, 46, 47, 48, 49, 50, 51, 52, 53, 54, 55, 56, 57, 58, 59, 60, 61, 62, 63, 64, 65, 66, 67, 68, 69, 70, 71, 72, 73, 74, 75, 76, 77, 78, 79, 80, 81, 82, 83, 84, 85, 86, 87, 88, 89, 90, 91, 92, 93, 94, 95, 96, 97, 98, 99, 100, 101, 102, 103, 104, 105, 106, 107, 108, 109, 110, 111, 112, 113, 114, 115, 116, 117, 118, 119, 120, 121, 122, 123, 124, 125, 126, 127, 128, 129, 130, 131, 132, 133, 134, 135, 136, 137, 138, 139, 140, 141, 142, 143, 144, 145, 146, 147, 148, 149, 150, 151, 152, 153, 154, 155, 156, 157, 158, 159, 160, 161, 162, 163, 164],
      "LargestImagePixelValue": [3659, 3562, 3532, 3596, 3585, 3510, 3554, 3540, 3570, 3518, 3484, 3482, 3533, 3469, 3537, 3569, 3594, 3598, 3583, 3538, 3499, 3591, 3518, 3644, 3559, 3594, 3488, 3468, 3479, 3497, 3466, 3527, 3480, 3514, 3509, 3569, 3526, 3540, 3564, 3518, 3478, 3486, 3503, 3516, 3480, 3498, 3465, 3451, 3423, 3449, 3439, 3469, 3521, 3492, 3513, 3560, 3472, 3488, 3455, 3601, 3645, 3626, 3645, 3568, 3660, 3592, 3657, 3605, 3638, 3659, 3610, 3626, 3630, 3642, 3627, 3678, 3603, 3631, 3604, 3635, 3593, 3635, 3672, 3611, 3626, 3669, 3642, 3710, 3659, 3687, 3705, 3658, 3665, 3696, 3665, 3650, 3663, 3660, 3651, 3659, 3658, 3624, 3628, 3637, 3657, 3677, 3612, 3681, 3705, 3669, 3663, 3635, 3642, 3672, 3638, 3640, 3652, 3656, 3638, 3679, 3657, 3700, 3662, 3687, 3664, 3674, 3643, 3602, 3597, 3569, 3621, 3608, 3564, 3631, 3611, 3573, 3588, 3616, 3601, 3599, 3605, 3587, 3593, 3575, 3580, 3555, 3565, 3578, 3601, 3606, 3600, 3612, 3571, 3598, 3562, 3587, 3574, 3595, 3623, 3636, 3605, 3603, 3657, 3631],
      "WindowCenter": [777.0, 775.0, 774.0, 774.0, 774.0, 772.0, 772.0, 771.0, 770.0, 771.0, 772.0, 771.0, 772.0, 772.0, 774.0, 775.0, 775.0, 774.0, 774.0, 773.0, 773.0, 774.0, 775.0, 776.0, 775.0, 774.0, 773.0, 773.0, 773.0, 772.0, 772.0, 772.0, 771.0, 771.0, 771.0, 772.0, 773.0, 773.0, 773.0, 773.0, 772.0, 773.0, 773.0, 773.0, 773.0, 773.0, 773.0, 772.0, 773.0, 773.0, 773.0, 772.0, 773.0, 774.0, 774.0, 776.0, 775.0, 775.0, 774.0, 774.0, 775.0, 775.0, 775.0, 775.0, 775.0, 775.0, 774.0, 775.0, 775.0, 774.0, 774.0, 774.0, 775.0, 775.0, 775.0, 775.0, 773.0, 774.0, 773.0, 774.0, 773.0, 773.0, 772.0, 773.0, 772.0, 773.0, 773.0, 774.0, 774.0, 774.0, 774.0, 774.0, 774.0, 775.0, 774.0, 774.0, 774.0, 773.0, 774.0, 775.0, 774.0, 775.0, 775.0, 775.0, 775.0, 775.0, 775.0, 776.0, 776.0, 775.0, 776.0, 776.0, 776.0, 774.0, 772.0, 772.0, 773.0, 774.0, 774.0, 774.0, 774.0, 774.0, 774.0, 774.0, 773.0, 773.0, 773.0, 773.0, 773.0, 773.0, 773.0, 774.0, 773.0, 773.0, 773.0, 775.0, 774.0, 775.0, 774.0, 775.0, 775.0, 774.0, 774.0, 774.0, 774.0, 774.0, 775.0, 775.0, 775.0, 774.0, 774.0, 774.0, 775.0, 774.0, 774.0, 775.0, 775.0, 774.0, 775.0, 774.0, 775.0, 775.0, 776.0, 775.0],
      "WindowWidth": [1734.0, 1726.0, 1723.0, 1724.0, 1723.0, 1718.0, 1718.0, 1715.0, 1711.0, 1713.0, 1718.0, 1715.0, 1718.0, 1717.0, 1723.0, 1727.0, 1726.0, 1725.0, 1724.0, 1722.0, 1722.0, 1725.0, 1727.0, 1730.0, 1726.0, 1725.0, 1719.0, 1720.0, 1719.0, 1717.0, 1719.0, 1718.0, 1715.0, 1714.0, 1715.0, 1719.0, 1720.0, 1720.0, 1720.0, 1721.0, 1719.0, 1722.0, 1720.0, 1721.0, 1722.0, 1720.0, 1720.0, 1718.0, 1721.0, 1720.0, 1720.0, 1719.0, 1721.0, 1725.0, 1726.0, 1729.0, 1726.0, 1726.0, 1725.0, 1726.0, 1729.0, 1726.0, 1727.0, 1726.0, 1726.0, 1726.0, 1725.0, 1727.0, 1729.0, 1725.0, 1726.0, 1725.0, 1729.0, 1728.0, 1729.0, 1726.0, 1722.0, 1723.0, 1722.0, 1724.0, 1722.0, 1721.0, 1718.0, 1720.0, 1719.0, 1721.0, 1721.0, 1724.0, 1723.0, 1724.0, 1725.0, 1724.0, 1724.0, 1727.0, 1724.0, 1725.0, 1723.0, 1721.0, 1724.0, 1727.0, 1725.0, 1728.0, 1727.0, 1729.0, 1727.0, 1728.0, 1728.0, 1730.0, 1730.0, 1726.0, 1729.0, 1730.0, 1730.0, 1724.0, 1718.0, 1717.0, 1721.0, 1723.0, 1725.0, 1724.0, 1723.0, 1725.0, 1723.0, 1722.0, 1722.0, 1722.0, 1719.0, 1720.0, 1719.0, 1721.0, 1722.0, 1722.0, 1720.0, 1720.0, 1719.0, 1725.0, 1725.0, 1726.0, 1724.0, 1725.0, 1725.0, 1725.0, 1724.0, 1723.0, 1724.0, 1723.0, 1726.0, 1726.0, 1726.0, 1724.0, 1724.0, 1725.0, 1726.0, 1725.0, 1725.0, 1725.0, 1726.0, 1724.0, 1725.0, 1724.0, 1726.0, 1726.0, 1728.0, 1726.0]
    },
    "slices": {}
  }
}