{
  "AcquisitionMatrixPE": 72,
  "AcquisitionNumber": 1,
  "AcquisitionTime": "15:53:30.405000",
  "BandwidthPerPixelPhaseEncode": 17.943,
  "BaseResolution": 96,
  "BodyPartExamined": "BRAIN",
  "CoilCombinationMethod": "Sum of Squares",
  "ConsistencyInfo": "N4_VE11C_LATEST_20160120",
  "ConversionSoftware": "dcm2niix",
  "ConversionSoftwareVersion": "v1.0.20211006",
  "DerivedVendorReportedEchoSpacing": 0.000552897,
  "DeviceSerialNumber": "166011",
  "DwellTime": 2.3e-06,
  "EchoTime": 0.03,
  "EchoTrainLength": 58,
  "EffectiveEchoSpacing": 0.000580542,
  "FlipAngle": 62,
  "ImageOrientationPatientDICOM": [0.997868, -0.0407488, -0.0509813, 0.046011, 0.993225, 0.106709],
  "ImageOrientationText": "Tra>Cor(6.3)>Sag(-2.7)",
  "ImageType": [
    "ORIGINAL",
    "PRIMARY",
    "M",
    "ND",
    "MOSAIC"
],
  "ImagingFrequency": 123.259,
  "InPlanePhaseEncodingDirectionDICOM": "COL",
  "InstitutionAddress": "West 130th Street 610,NY,NYC,US,10025",
  "InstitutionName": "MBBI",
  "InstitutionalDepartmentName": "Department",
  "MRAcquisitionType": "2D",
  "MagneticFieldStrength": 3,
  "Manufacturer": "Siemens",
  "ManufacturersModelName": "Prisma",
  "Modality": "MR",
  "MultibandAccelerationFactor": 3,
  "PartialFourier": 0.75,
  "PatientPosition": "HFS",
  "PercentPhaseFOV": 100,
  "PercentSampling": 75,
  "PhaseEncodingDirection": "j-",
  "PhaseEncodingSteps": 58,
  "PhaseOversampling": 0.05,
  "PhaseResolution": 0.75,
  "PixelBandwidth": 2265,
  "ProcedureStepDescription": "White^Word_recognition",
  "ProtocolName": "func_vwfate_run11",
  "PulseSequenceDetails": "%SiemensSeq%\\ep2d_bold",
  "ReceiveCoilActiveElements": "HC1-7",
  "ReceiveCoilName": "HeadNeck_64",
  "ReconMatrixPE": 96,
  "RefLinesPE": 40,
  "RepetitionTime": 1.5,
  "SAR": 0.0500195,
  "ScanOptions": "PFP\\FS",
  "ScanningSequence": "EP",
  "SequenceName": "*epfid2d1_72",
  "SequenceVariant": "SK\\OSP",
  "SeriesDescription": "func_vwfate_run11",
  "SeriesNumber": 14,
  "ShimSetting": [-1157, -1354, 687, 701, -217, -94, -62, 73],
  "SliceThickness": 2,
  "SliceTiming": [1.0775, 0, 0.74, 0.0675, 0.8075, 0.135, 0.875, 0.2025, 0.9425, 0.27, 1.01, 0.405, 1.145, 0.4725, 1.2125, 0.54, 1.28, 0.6075, 1.3475, 0.6725, 1.4125, 0.3375, 1.0775, 0, 0.74, 0.0675, 0.8075, 0.135, 0.875, 0.2025, 0.9425, 0.27, 1.01, 0.405, 1.145, 0.4725, 1.2125, 0.54, 1.28, 0.6075, 1.3475, 0.6725, 1.4125, 0.3375, 1.0775, 0, 0.74, 0.0675, 0.8075, 0.135, 0.875, 0.2025, 0.9425, 0.27, 1.01, 0.405, 1.145, 0.4725, 1.2125, 0.54, 1.28, 0.6075, 1.3475, 0.6725, 1.4125, 0.3375],
  "SoftwareVersions": "syngo MR E11",
  "SpacingBetweenSlices": 2,
  "StationName": "AWP166011",
  "TaskName": "vwfate",
  "TotalReadoutTime": 0.0551515,
  "TxRefAmp": 219.385,
  "dcmmeta_affine": [
    [-1.9957358837127686, 0.09202208369970322, -0.09257515519857407, 97.2831039428711],
    [0.0814976841211319, 1.9864501953125, 0.21765489876270294, -79.60708618164062],
    [-0.10196250677108765, -0.21341852843761444, 1.9859647750854492, -37.35761642456055],
    [0.0, 0.0, 0.0, 1.0]
],
  "dcmmeta_reorient_transform": [
    [0.0, -1.0, 0.0, 95.0],
    [1.0, 0.0, 0.0, 0.0],
    [0.0, 0.0, 1.0, 0.0],
    [0.0, 0.0, 0.0, 1.0]
],
  "dcmmeta_shape": [96, 96, 66, 164],
  "dcmmeta_slice_dim": 2,
  "dcmmeta_version": 0.6,
  "global": {
    "const": {
      "AcquisitionMatrix": [96, 0, 0, 72],
      "AngioFlag": "N",
      "BitsAllocated": 16,
      "BitsStored": 12,
      "BodyPartExamined": "BRAIN",
      "Columns": 864,
      "EchoNumbers": 1,
      "EchoTime": 30.0,
      "EchoTrainLength": 58,
      "FlipAngle": 62.0,
      "HighBit": 11,
      "ImageOrientationPatient": [0.9978679491436, -0.0407488407992, -0.0509812519017, 0.04601104153221, 0.9932251090776, 0.10670926274187],
      "ImagePositionPatient": [-907.72427028582, -840.60745882045, -100.43148732786],
      "ImageType": [
        "ORIGINAL",
        "PRIMARY",
        "M",
        "ND",
        "MOSAIC"
],
      "ImagedNucleus": "1H",
      "ImagingFrequency": 123.25949,
      "InPlanePhaseEncodingDirection": "COL",
      "MRAcquisitionType": "2D",
      "MagneticFieldStrength": 3.0,
      "Manufacturer": "SIEMENS",
      "ManufacturerModelName": "Prisma",
      "Modality": "MR",
      "NumberOfAverages": 1.0,
      "NumberOfPhaseEncodingSteps": 58,
      "PercentPhaseFieldOfView": 100.0,
      "PercentSampling": 75.0,
      "PerformedProcedureStepStartTime": "145541.351000",
      "PhotometricInterpretation": "MONOCHROME2",
      "PixelBandwidth": 2265.0,
      "PixelRepresentation": 0,
      "PixelSpacing": [2.0, 2.0],
      "ProtocolName": "func_vwfate_run11",
      "RepetitionTime": 1500.0,
      "Rows": 864,
      "SAR": 0.05001946882925,
      "SamplesPerPixel": 1,
      "ScanOptions": [
        "PFP",
        "FS"
],
      "ScanningSequence": "EP",
      "SequenceName": "*epfid2d1_72",
      "SequenceVariant": [
        "SK",
        "OSP"
],
      "SeriesDescription": "func_vwfate_run11",
      "SeriesNumber": 14,
      "SeriesTime": "155402.616000",
      "SliceLocation": -50.261890404256,
      "SliceThickness": 2.0,
      "SmallestImagePixelValue": 0,
      "SoftwareVersions": "syngo MR E11",
      "SpacingBetweenSlices": 1.9999999343638,
      "SpecificCharacterSet": "ISO_IR 100",
      "StudyID": "2",
      "StudyTime": "145541.232000",
      "TransmitCoilName": "Body",
      "VariableFlipAngleFlag": "N",
      "WindowCenterWidthExplanation": "Algo1",
      "dBdt": 0.0},
    "slices": {}
  },
  "time": {
    "samples": {
      "AcquisitionNumber": [1, 2, 3, 4, 5, 6, 7, 8, 9, 10, 11, 12, 13, 14, 15, 16, 17, 18, 19, 20, 21, 22, 23, 24, 25, 26, 27, 28, 29, 30, 31, 32, 33, 34, 35, 36, 37, 38, 39, 40, 41, 42, 43, 44, 45, 46, 47, 48, 49, 50, 51, 52, 53, 54, 55, 56, 57, 58, 59, 60, 61, 62, 63, 64, 65, 66, 67, 68, 69, 70, 71, 72, 73, 74, 75, 76, 77, 78, 79, 80, 81, 82, 83, 84, 85, 86, 87, 88, 89, 90, 91, 92, 93, 94, 95, 96, 97, 98, 99, 100, 101, 102, 103, 104, 105, 106, 107, 108, 109, 110, 111, 112, 113, 114, 115, 116, 117, 118, 119, 120, 121, 122, 123, 124, 125, 126, 127, 128, 129, 130, 131, 132, 133, 134, 135, 136, 137, 138, 139, 140, 141, 142, 143, 144, 145, 146, 147, 148, 149, 150, 151, 152, 153, 154, 155, 156, 157, 158, 159, 160, 161, 162, 163, 164],
      "AcquisitionTime": ["155330.405000", "155331.905000", "155333.405000", "155334.905000", "155336.405000", "155337.905000", "155339.405000", "155340.905000", "155342.405000", "155343.905000", "155345.405000", "155346.905000", "155348.405000", "155349.905000", "155351.405000", "155352.905000", "155354.405000", "155355.905000", "155357.405000", "155358.905000", "155400.405000", "155401.905000", "155403.405000", "155404.905000", "155406.405000", "155407.905000", "155409.405000", "155410.905000", "155412.405000", "155413.905000", "155415.405000", "155416.905000", "155418.405000", "155419.905000", "155421.405000", "155422.905000", "155424.405000", "155425.905000", "155427.405000", "155428.905000", "155430.405000", "155431.905000", "155433.405000", "155434.905000", "155436.405000", "155437.905000", "155439.405000", "155440.905000", "155442.405000", "155443.905000", "155445.405000", "155446.905000", "155448.405000", "155449.905000", "155451.405000", "155452.905000", "155454.405000", "155455.905000", "155457.405000", "155458.905000", "155500.405000", "155501.905000", "155503.405000", "155504.905000", "155506.405000", "155507.905000", "155509.405000", "155510.905000", "155512.405000", "155513.905000", "155515.405000", "155516.905000", "155518.405000", "155519.905000", "155521.405000", "155522.905000", "155524.405000", "155525.905000", "155527.405000", "155528.905000", "155530.405000", "155531.905000", "155533.405000", "155534.905000", "155536.405000", "155537.905000", "155539.405000", "155540.905000", "155542.405000", "155543.905000", "155545.405000", "155546.905000", "155548.405000", "155549.905000", "155551.405000", "155552.905000", "155554.405000", "155555.905000", "155557.405000", "155558.905000", "155600.405000", "155601.905000", "155603.405000", "155604.905000", "155606.405000", "155607.905000", "155609.405000", "155610.905000", "155612.405000", "155613.905000", "155615.405000", "155616.905000", "155618.405000", "155619.905000", "155621.405000", "155622.905000", "155624.405000", "155625.905000", "155627.405000", "155628.905000", "155630.405000", "155631.905000", "155633.405000", "155634.905000", "155636.405000", "155637.905000", "155639.405000", "155640.905000", "155642.405000", "155643.905000", "155645.405000", "155646.905000", "155648.405000", "155649.905000", "155651.405000", "155652.905000", "155654.405000", "155655.905000", "155657.405000", "155658.905000", "155700.405000", "155701.905000", "155703.405000", "155704.905000", "155706.405000", "155707.905000", "155709.405000", "155710.905000", "155712.405000", "155713.905000", "155715.405000", "155716.905000", "155718.405000", "155719.905000", "155721.405000", "155722.905000", "155724.405000", "155725.905000", "155727.405000", "155728.905000", "155730.405000", "155731.905000", "155733.405000", "155734.905000"],
      "ContentTime": ["155402.620000", "155402.624000", "155402.627000", "155402.630000", "155402.633000", "155402.645000", "155402.648000", "155402.651000", "155402.654000", "155402.657000", "155402.660000", "155402.663000", "155402.666000", "155402.669000", "155402.672000", "155402.675000", "155402.678000", "155402.681000", "155402.684000", "155402.687000", "155402.690000", "155442.615000", "155442.618000", "155442.622000", "155442.625000", "155442.628000", "155442.631000", "155442.634000", "155442.637000", "155442.640000", "155442.643000", "155442.646000", "155442.650000", "155442.653000", "155442.656000", "155442.659000", "155442.663000", "155442.678000", "155442.681000", "155442.684000", "155442.692000", "155442.695000", "155442.698000", "155442.701000", "155442.704000", "155442.707000", "155442.710000", "155442.713000", "155522.615000", "155522.630000", "155522.633000", "155522.636000", "155522.639000", "155522.643000", "155522.646000", "155522.649000", "155522.652000", "155522.655000", "155522.658000", "155522.661000", "155522.669000", "155522.673000", "155522.676000", "155522.679000", "155522.682000", "155522.685000", "155522.688000", "155522.691000", "155522.694000", "155522.697000", "155522.700000", "155522.703000", "155522.706000", "155522.709000", "155522.712000", "155602.615000", "155602.618000", "155602.622000", "155602.625000", "155602.628000", "155602.631000", "155602.634000", "155602.637000", "155602.640000", "155602.643000", "155602.646000", "155602.649000", "155602.652000", "155602.655000", "155602.658000", "155602.661000", "155602.664000", "155602.667000", "155602.670000", "155602.673000", "155602.676000", "155602.679000", "155602.683000", "155602.686000", "155602.689000", "155602.692000", "155622.615000", "155622.618000", "155622.621000", "155622.624000", "155622.628000", "155622.631000", "155622.634000", "155622.637000", "155622.640000", "155622.643000", "155622.646000", "155622.649000", "155622.652000", "155622.655000", "155702.615000", "155702.618000", "155702.622000", "155702.625000", "155702.628000", "155702.631000", "155702.634000", "155702.637000", "155702.640000", "155702.643000", "155702.646000", "155702.649000", "155702.652000", "155702.655000", "155702.658000", "155702.661000", "155702.664000", "155702.667000", "155702.670000", "155702.673000", "155702.676000", "155702.679000", "155702.683000", "155702.686000", "155702.689000", "155702.692000", "155735.806000", "155735.810000", "155735.813000", "155735.816000", "155735.820000", "155735.823000", "155735.826000", "155735.829000", "155735.833000", "155735.836000", "155735.839000", "155735.842000", "155735.846000", "155735.849000", "155735.853000", "155735.856000", "155735.860000", "155735.864000", "155735.867000", "155735.870000", "155735.874000", "155735.877000", "155735.880000"],
      "InstanceCreationTime": ["155402.620000", "155402.624000", "155402.627000", "155402.630000", "155402.633000", "155402.645000", "155402.648000", "155402.651000", "155402.654000", "155402.657000", "155402.660000", "155402.663000", "155402.666000", "155402.669000", "155402.672000", "155402.675000", "155402.678000", "155402.681000", "155402.684000", "155402.687000", "155402.690000", "155442.615000", "155442.618000", "155442.622000", "155442.625000", "155442.628000", "155442.631000", "155442.634000", "155442.637000", "155442.640000", "155442.643000", "155442.646000", "155442.650000", "155442.653000", "155442.656000", "155442.659000", "155442.663000", "155442.678000", "155442.681000", "155442.684000", "155442.692000", "155442.695000", "155442.698000", "155442.701000", "155442.704000", "155442.707000", "155442.710000", "155442.713000", "155522.615000", "155522.630000", "155522.633000", "155522.636000", "155522.639000", "155522.643000", "155522.646000", "155522.649000", "155522.652000", "155522.655000", "155522.658000", "155522.661000", "155522.669000", "155522.673000", "155522.676000", "155522.679000", "155522.682000", "155522.685000", "155522.688000", "155522.691000", "155522.694000", "155522.697000", "155522.700000", "155522.703000", "155522.706000", "155522.709000", "155522.712000", "155602.615000", "155602.618000", "155602.622000", "155602.625000", "155602.628000", "155602.631000", "155602.634000", "155602.637000", "155602.640000", "155602.643000", "155602.646000", "155602.649000", "155602.652000", "155602.655000", "155602.658000", "155602.661000", "155602.664000", "155602.667000", "155602.670000", "155602.673000", "155602.676000", "155602.679000", "155602.683000", "155602.686000", "155602.689000", "155602.692000", "155622.615000", "155622.618000", "155622.621000", "155622.624000", "155622.628000", "155622.631000", "155622.634000", "155622.637000", "155622.640000", "155622.643000", "155622.646000", "155622.649000", "155622.652000", "155622.655000", "155702.615000", "155702.618000", "155702.622000", "155702.625000", "155702.628000", "155702.631000", "155702.634000", "155702.637000", "155702.640000", "155702.643000", "155702.646000", "155702.649000", "155702.652000", "155702.655000", "155702.658000", "155702.661000", "155702.664000", "155702.667000", "155702.670000", "155702.673000", "155702.676000", "155702.679000", "155702.683000", "155702.686000", "155702.689000", "155702.692000", "155735.806000", "155735.810000", "155735.813000", "155735.816000", "155735.820000", "155735.823000", "155735.826000", "155735.829000", "155735.833000", "155735.836000", "155735.839000", "155735.842000", "155735.846000", "155735.849000", "155735.853000", "155735.856000", "155735.860000", "155735.864000", "155735.867000", "155735.870000", "155735.874000", "155735.877000", "155735.880000"],
      "InstanceNumber": [1, 2, 3, 4, 5, 6, 7, 8, 9, 10, 11, 12, 13, 14, 15, 16, 17, 18, 19, 20, 21, 22, 23, 24, 25, 26, 27, 28, 29, 30, 31, 32, 33, 34, 35, 36, 37, 38, 39, 40, 41, 42, 43, 44, 45, 46, 47, 48, 49, 50, 51, 52, 53, 54, 55, 56, 57, 58, 59, 60, 61, 62, 63, 64, 65, 66, 67, 68, 69, 70, 71, 72, 73, 74, 75, 76, 77, 78, 79, 80, 81, 82, 83, 84, 85, 86, 87, 88, 89, 90, 91, 92, 93, 94, 95, 96, 97, 98, 99, 100, 101, 102, 103, 104, 105, 106, 107, 108, 109, 110, 111, 112, 113, 114, 115, 116, 117, 118, 119, 120, 121, 122, 123, 124, 125, 126, 127, 128, 129, 130, 131, 132, 133, 134, 135, 136, 137, 138, 139, 140, 141, 142, 143, 144, 145, 146, 147, 148, 149, 150, 151, 152, 153, 154, 155, 156, 157, 158, 159, 160, 161, 162, 163, 164],
      "LargestImagePixelValue": [4095, 3868, 3765, 3814, 3798, 3790, 3758, 3816, 3762, 3812, 3928, 3828, 3782, 3812, 3796, 3791, 3759, 3823, 3769, 3855, 3810, 3826, 3769, 3820, 3820, 3823, 3802, 3829, 3794, 3859, 3769, 3834, 3791, 3857, 3785, 3878, 3839, 3865, 3807, 3791, 3787, 3835, 3836, 3824, 3831, 3852, 3845, 3876, 3849, 3835, 3825, 3884, 3831, 3831, 3826, 3833, 3761, 3873, 3742, 3728, 3694, 3825, 3774, 3776, 3850, 3831, 3820, 3809, 3834, 3544, 4061, 3791, 3772, 3752, 3699, 3693, 3663, 3692, 3677, 3709, 3804, 3816, 3827, 3762, 3693, 3691, 3684, 3681, 3694, 3699, 3707, 3697, 3732, 3724, 3709, 3695, 3739, 3711, 3718, 3719, 3702, 3715, 3704, 3732, 3712, 3715, 3709, 3666, 3679, 3717, 3701, 3700, 3769, 3748, 3744, 3710, 3762, 3674, 3734, 3702, 3667, 3671, 3701, 3654, 3644, 3660, 3660, 3739, 3698, 3748, 3719, 3733, 3730, 3746, 3732, 3700, 3683, 3639, 3637, 3649, 3624, 3690, 3668, 3694, 3659, 3711, 3651, 3666, 3689, 3698, 3697, 3704, 3718, 3697, 3675, 3730, 3670, 3708, 3716, 3745, 3711, 3741, 3746, 3730],
      "WindowCenter": [789.0, 784.0, 781.0, 781.0, 781.0, 781.0, 782.0, 781.0, 782.0, 778.0, 782.0, 780.0, 780.0, 780.0, 780.0, 781.0, 781.0, 781.0, 780.0, 781.0, 782.0, 783.0, 783.0, 783.0, 783.0, 783.0, 783.0, 783.0, 783.0, 783.0, 783.0, 783.0, 783.0, 783.0, 782.0, 782.0, 781.0, 781.0, 781.0, 781.0, 781.0, 781.0, 781.0, 783.0, 783.0, 783.0, 783.0, 783.0, 783.0, 784.0, 783.0, 782.0, 781.0, 781.0, 782.0, 782.0, 783.0, 784.0, 783.0, 782.0, 782.0, 782.0, 781.0, 783.0, 782.0, 781.0, 780.0, 781.0, 780.0, 764.0, 779.0, 777.0, 778.0, 778.0, 778.0, 778.0, 778.0, 778.0, 779.0, 779.0, 780.0, 781.0, 780.0, 779.0, 778.0, 778.0, 778.0, 779.0, 778.0, 778.0, 778.0, 778.0, 777.0, 777.0, 777.0, 778.0, 779.0, 778.0, 777.0, 777.0, 777.0, 777.0, 777.0, 776.0, 776.0, 776.0, 775.0, 776.0, 777.0, 778.0, 777.0, 777.0, 777.0, 776.0, 776.0, 777.0, 777.0, 778.0, 776.0, 776.0, 777.0, 777.0, 777.0, 775.0, 775.0, 775.0, 776.0, 776.0, 776.0, 776.0, 775.0, 775.0, 775.0, 776.0, 775.0, 776.0, 776.0, 776.0, 775.0, 775.0, 775.0, 775.0, 775.0, 776.0, 776.0, 777.0, 776.0, 776.0, 776.0, 775.0, 774.0, 773.0, 773.0, 773.0, 773.0, 774.0, 774.0, 775.0, 776.0, 777.0, 776.0, 776.0, 776.0, 776.0],
      "WindowWidth": [1777.0, 1759.0, 1749.0, 1748.0, 1747.0, 1746.0, 1750.0, 1748.0, 1751.0, 1738.0, 1751.0, 1744.0, 1745.0, 1745.0, 1746.0, 1747.0, 1748.0, 1749.0, 1744.0, 1749.0, 1751.0, 1756.0, 1754.0, 1755.0, 1754.0, 1756.0, 1755.0, 1755.0, 1752.0, 1756.0, 1752.0, 1754.0, 1753.0, 1754.0, 1750.0, 1749.0, 1748.0, 1748.0, 1746.0, 1748.0, 1747.0, 1748.0, 1749.0, 1754.0, 1756.0, 1756.0, 1754.0, 1754.0, 1754.0, 1757.0, 1753.0, 1753.0, 1749.0, 1749.0, 1751.0, 1752.0, 1754.0, 1758.0, 1754.0, 1752.0, 1751.0, 1752.0, 1749.0, 1754.0, 1751.0, 1748.0, 1747.0, 1748.0, 1746.0, 1695.0, 1744.0, 1734.0, 1738.0, 1739.0, 1738.0, 1736.0, 1738.0, 1737.0, 1740.0, 1740.0, 1743.0, 1747.0, 1744.0, 1742.0, 1738.0, 1738.0, 1737.0, 1739.0, 1736.0, 1737.0, 1737.0, 1737.0, 1735.0, 1734.0, 1736.0, 1737.0, 1740.0, 1737.0, 1734.0, 1735.0, 1735.0, 1735.0, 1734.0, 1732.0, 1731.0, 1730.0, 1729.0, 1732.0, 1735.0, 1738.0, 1735.0, 1736.0, 1734.0, 1732.0, 1732.0, 1733.0, 1735.0, 1737.0, 1732.0, 1733.0, 1734.0, 1733.0, 1733.0, 1729.0, 1729.0, 1729.0, 1730.0, 1731.0, 1731.0, 1730.0, 1729.0, 1729.0, 1729.0, 1731.0, 1729.0, 1729.0, 1732.0, 1731.0, 1728.0, 1729.0, 1727.0, 1728.0, 1729.0, 1732.0, 1732.0, 1734.0, 1732.0, 1730.0, 1731.0, 1727.0, 1724.0, 1722.0, 1721.0, 1721.0, 1721.0, 1725.0, 1725.0, 1728.0, 1730.0, 1733.0, 1732.0, 1732.0, 1730.0, 1730.0]
    },
    "slices": {}
  }
}