{
  "AcquisitionMatrixPE": 70,
  "AcquisitionNumber": 1,
  "AcquisitionTime": "18:59:16.802500",
  "BaseResolution": 70,
  "BodyPartExamined": "BRAIN",
  "CoilCombinationMethod": "Sum of Squares",
  "ConsistencyInfo": "N4_VE11C_LATEST_20160120",
  "ConversionSoftware": "dcm2niix",
  "ConversionSoftwareVersion": "v1.0.20211006",
  "DeviceSerialNumber": "166011",
  "EchoNumber": 2,
  "EchoTime": 0.00738,
  "EchoTime1": 0.00492,
  "EchoTime2": 0.00738,
  "FlipAngle": 60,
  "ImageOrientationPatientDICOM": [
    0.998104,
    0.0231386,
    0.0570293,
    -0.017422,
    0.994957,
    -0.0987734
  ],
  "ImageType": [
    "ORIGINAL",
    "PRIMARY",
    "P",
    "ND",
    "PHASE"
  ],
  "ImagingFrequency": 123.26,
  "InPlanePhaseEncodingDirectionDICOM": "ROW",
  "InstitutionAddress": "West 130th Street 610,NY,NYC,US,10025",
  "InstitutionName": "MBBI",
  "IntendedFor": [
    "ses-3/func/sub-147_ses-3_task-langLoc_run-01_bold.nii.gz",
    "ses-3/func/sub-147_ses-3_task-langLoc_run-02_bold.nii.gz",
    "ses-3/func/sub-147_ses-3_task-langLoc_run-03_bold.nii.gz",
    "ses-3/func/sub-147_ses-3_task-vwfate_run-01_bold.nii.gz",
    "ses-3/func/sub-147_ses-3_task-vwfate_run-02_bold.nii.gz",
    "ses-3/func/sub-147_ses-3_task-vwfate_run-03_bold.nii.gz"
  ],
  "MRAcquisitionType": "2D",
  "MagneticFieldStrength": 3,
  "Manufacturer": "Siemens",
  "ManufacturersModelName": "Prisma",
  "MatrixCoilMode": "SENSE",
  "Modality": "MR",
  "MultibandAccelerationFactor": 2,
  "PartialFourier": 1,
  "PatientPosition": "HFS",
  "PercentPhaseFOV": 100,
  "PercentSampling": 100,
  "PhaseEncodingDirection": "i",
  "PhaseEncodingSteps": 70,
  "PhaseResolution": 1,
  "PixelBandwidth": 595,
  "ProcedureStepDescription": "White^Word_recognition",
  "ProtocolName": "fmap_gre_field_mapping",
  "PulseSequenceDetails": "%SiemensSeq%\\gre_field_mapping",
  "ReceiveCoilActiveElements": "HC1-7",
  "ReceiveCoilName": "HeadNeck_64",
  "ReconMatrixPE": 70,
  "RepetitionTime": 0.52,
  "SAR": 0.095221,
  "ScanningSequence": "GR",
  "SequenceName": "*fm2d2r",
  "SequenceVariant": "SP",
  "SeriesDescription": "fmap_gre_field_mapping",
  "SeriesNumber": 15,
  "ShimSetting": [
    -1138,
    -1377,
    680,
    546,
    -80,
    -55,
    -11,
    -20
  ],
  "SliceThickness": 3,
  "SliceTiming": [
    0.25,
    0,
    0.26562,
    0.01562,
    0.28125,
    0.01562,
    0.29688,
    0.03125,
    0.3125,
    0.04688,
    0.3125,
    0.0625,
    0.32812,
    0.07812,
    0.34375,
    0.07812,
    0.35938,
    0.09375,
    0.375,
    0.10938,
    0.375,
    0.125,
    0.39062,
    0.14062,
    0.40625,
    0.14062,
    0.42188,
    0.15625,
    0.4375,
    0.17188,
    0.4375,
    0.1875,
    0.45312,
    0.20312,
    0.46875,
    0.20312,
    0.48438,
    0.21875,
    0.48438,
    0.23438,
    0.5,
    0.25
  ],
  "SoftwareVersions": "syngo MR E11",
  "SpacingBetweenSlices": 3,
  "StationName": "AWP166011",
  "TxRefAmp": 217.565,
  "dcmmeta_affine": [
    [
      -2.9943130016326904,
      -0.05226592719554901,
      0.17708158493041992,
      105.921142578125
    ],
    [
      -0.06941580772399902,
      2.984872341156006,
      -0.29277801513671875,
      -65.80781555175781
    ],
    [
      0.17108780145645142,
      0.29632019996643066,
      2.9804229736328125,
      -63.37505340576172
    ],
    [
      0.0,
      0.0,
      0.0,
      1.0
    ]
  ],
  "dcmmeta_reorient_transform": [
    [
      0.0,
      -1.0,
      0.0,
      69.0
    ],
    [
      1.0,
      0.0,
      0.0,
      0.0
    ],
    [
      0.0,
      0.0,
      -1.0,
      41.0
    ],
    [
      0.0,
      0.0,
      0.0,
      1.0
    ]
  ],
  "dcmmeta_shape": [
    70,
    70,
    42
  ],
  "dcmmeta_slice_dim": 2,
  "dcmmeta_version": 0.6,
  "global": {
    "const": {
      "AcquisitionMatrix": [
        0,
        70,
        70,
        0
      ],
      "AcquisitionNumber": 1,
      "AngioFlag": "N",
      "BitsAllocated": 16,
      "BitsStored": 12,
      "BodyPartExamined": "BRAIN",
      "Columns": 70,
      "EchoNumbers": 2,
      "EchoTime": 7.38,
      "EchoTrainLength": 0,
      "FlipAngle": 60.0,
      "HighBit": 11,
      "ImageOrientationPatient": [
        0.998104337041,
        0.02313860229041,
        0.05702926848559,
        -0.0174219759466,
        0.99495743168869,
        -0.0987733966286
      ],
      "ImageType": [
        "ORIGINAL",
        "PRIMARY",
        "P",
        "ND"
      ],
      "ImagedNucleus": "1H",
      "ImagingFrequency": 123.259505,
      "InPlanePhaseEncodingDirection": "ROW",
      "MRAcquisitionType": "2D",
      "MagneticFieldStrength": 3.0,
      "Manufacturer": "SIEMENS",
      "ManufacturerModelName": "Prisma",
      "Modality": "MR",
      "NumberOfAverages": 1.0,
      "NumberOfPhaseEncodingSteps": 70,
      "PercentPhaseFieldOfView": 100.0,
      "PercentSampling": 100.0,
      "PerformedProcedureStepStartTime": "180110.988000",
      "PhotometricInterpretation": "MONOCHROME2",
      "PixelBandwidth": 595.0,
      "PixelRepresentation": 0,
      "PixelSpacing": [
        3.0,
        3.0
      ],
      "ProtocolName": "fmap_gre_field_mapping",
      "RepetitionTime": 520.0,
      "RescaleIntercept": -4096.0,
      "RescaleSlope": 2.0,
      "RescaleType": "US",
      "Rows": 70,
      "SAR": 0.09522099466145,
      "SamplesPerPixel": 1,
      "ScanningSequence": "GR",
      "SequenceName": "*fm2d2r",
      "SequenceVariant": "SP",
      "SeriesDescription": "fmap_gre_field_mapping",
      "SeriesNumber": 15,
      "SeriesTime": "190029.270000",
      "SliceThickness": 3.0,
      "SoftwareVersions": "syngo MR E11",
      "SpacingBetweenSlices": 3.0,
      "SpecificCharacterSet": "ISO_IR 100",
      "StudyID": "3",
      "StudyTime": "180110.867000",
      "TransmitCoilName": "Body",
      "VariableFlipAngleFlag": "N",
      "WindowCenterWidthExplanation": "Algo1",
      "dBdt": 0.0
    },
    "slices": {
      "AcquisitionTime": [
        "185916.802500",
        "185916.542500",
        "185916.815000",
        "185916.555000",
        "185916.827500",
        "185916.567500",
        "185916.840000",
        "185916.580000",
        "185916.852500",
        "185916.592500",
        "185916.865000",
        "185916.605000",
        "185916.877500",
        "185916.617500",
        "185916.890000",
        "185916.630000",
        "185916.902500",
        "185916.642500",
        "185916.915000",
        "185916.655000",
        "185916.927500",
        "185916.667500",
        "185916.940000",
        "185916.680000",
        "185916.952500",
        "185916.692500",
        "185916.965000",
        "185916.705000",
        "185916.977500",
        "185916.717500",
        "185916.990000",
        "185916.730000",
        "185917.002500",
        "185916.742500",
        "185917.012500",
        "185916.752500",
        "185917.025000",
        "185916.765000",
        "185917.037500",
        "185916.777500",
        "185917.050000",
        "185916.790000"
      ],
      "ContentTime": [
        "190029.322000",
        "190029.273000",
        "190029.325000",
        "190029.275000",
        "190029.327000",
        "190029.277000",
        "190029.329000",
        "190029.284000",
        "190029.331000",
        "190029.286000",
        "190029.333000",
        "190029.288000",
        "190029.335000",
        "190029.290000",
        "190029.337000",
        "190029.293000",
        "190029.340000",
        "190029.295000",
        "190029.342000",
        "190029.297000",
        "190029.344000",
        "190029.299000",
        "190029.346000",
        "190029.301000",
        "190029.348000",
        "190029.303000",
        "190029.350000",
        "190029.305000",
        "190029.353000",
        "190029.307000",
        "190029.355000",
        "190029.310000",
        "190029.357000",
        "190029.312000",
        "190029.359000",
        "190029.314000",
        "190029.361000",
        "190029.316000",
        "190029.363000",
        "190029.318000",
        "190029.365000",
        "190029.320000"
      ],
      "CsaImage.ICE_Dims": [
        "X_2_1_1_1_1_1_22_1_1_1_1_311",
        "X_2_1_1_1_1_1_1_1_1_2_1_311",
        "X_2_1_1_1_1_1_23_1_1_3_1_311",
        "X_2_1_1_1_1_1_2_1_1_4_1_311",
        "X_2_1_1_1_1_1_24_1_1_5_1_311",
        "X_2_1_1_1_1_1_3_1_1_6_1_311",
        "X_2_1_1_1_1_1_25_1_1_7_1_311",
        "X_2_1_1_1_1_1_4_1_1_8_1_311",
        "X_2_1_1_1_1_1_26_1_1_9_1_311",
        "X_2_1_1_1_1_1_5_1_1_10_1_311",
        "X_2_1_1_1_1_1_27_1_1_11_1_311",
        "X_2_1_1_1_1_1_6_1_1_12_1_311",
        "X_2_1_1_1_1_1_28_1_1_13_1_311",
        "X_2_1_1_1_1_1_7_1_1_14_1_311",
        "X_2_1_1_1_1_1_29_1_1_15_1_311",
        "X_2_1_1_1_1_1_8_1_1_16_1_311",
        "X_2_1_1_1_1_1_30_1_1_17_1_311",
        "X_2_1_1_1_1_1_9_1_1_18_1_311",
        "X_2_1_1_1_1_1_31_1_1_19_1_311",
        "X_2_1_1_1_1_1_10_1_1_20_1_311",
        "X_2_1_1_1_1_1_32_1_1_21_1_311",
        "X_2_1_1_1_1_1_11_1_1_22_1_311",
        "X_2_1_1_1_1_1_33_1_1_23_1_311",
        "X_2_1_1_1_1_1_12_1_1_24_1_311",
        "X_2_1_1_1_1_1_34_1_1_25_1_311",
        "X_2_1_1_1_1_1_13_1_1_26_1_311",
        "X_2_1_1_1_1_1_35_1_1_27_1_311",
        "X_2_1_1_1_1_1_14_1_1_28_1_311",
        "X_2_1_1_1_1_1_36_1_1_29_1_311",
        "X_2_1_1_1_1_1_15_1_1_30_1_311",
        "X_2_1_1_1_1_1_37_1_1_31_1_311",
        "X_2_1_1_1_1_1_16_1_1_32_1_311",
        "X_2_1_1_1_1_1_38_1_1_33_1_311",
        "X_2_1_1_1_1_1_17_1_1_34_1_311",
        "X_2_1_1_1_1_1_39_1_1_35_1_311",
        "X_2_1_1_1_1_1_18_1_1_36_1_311",
        "X_2_1_1_1_1_1_40_1_1_37_1_311",
        "X_2_1_1_1_1_1_19_1_1_38_1_311",
        "X_2_1_1_1_1_1_41_1_1_39_1_311",
        "X_2_1_1_1_1_1_20_1_1_40_1_311",
        "X_2_1_1_1_1_1_42_1_1_41_1_311",
        "X_2_1_1_1_1_1_21_1_1_42_1_311"
      ],
      "CsaImage.ProtocolSliceNumber": [
        0,
        1,
        2,
        3,
        4,
        5,
        6,
        7,
        8,
        9,
        10,
        11,
        12,
        13,
        14,
        15,
        16,
        17,
        18,
        19,
        20,
        21,
        22,
        23,
        24,
        25,
        26,
        27,
        28,
        29,
        30,
        31,
        32,
        33,
        34,
        35,
        36,
        37,
        38,
        39,
        40,
        41
      ],
      "CsaImage.SlicePosition_PCS": [
        [
          -102.31479478,
          -140.14836314,
          -42.92897745
        ],
        [
          -102.4918763,
          -139.85558512,
          -39.94855447
        ],
        [
          -102.66895783,
          -139.56280711,
          -36.9681315
        ],
        [
          -102.84603935,
          -139.27002909,
          -33.98770852
        ],
        [
          -103.02312088,
          -138.97725108,
          -31.00728555
        ],
        [
          -103.2002024,
          -138.68447306,
          -28.02685876
        ],
        [
          -103.37728393,
          -138.39169505,
          -25.0464377
        ],
        [
          -103.55436545,
          -138.09891703,
          -22.06601472
        ],
        [
          -103.73144698,
          -137.80614093,
          -19.08558984
        ],
        [
          -103.9085285,
          -137.51336291,
          -16.10516687
        ],
        [
          -104.08561009,
          -137.2205849,
          -13.12474389
        ],
        [
          -104.26269155,
          -136.92780688,
          -10.14432092
        ],
        [
          -104.43977314,
          -136.63502887,
          -7.16389699
        ],
        [
          -104.6168546,
          -136.34225085,
          -4.18347402
        ],
        [
          -104.79393619,
          -136.04947283,
          -1.20305057
        ],
        [
          -104.97101766,
          -135.75669482,
          1.77737288
        ],
        [
          -105.14809912,
          -135.46391871,
          4.75779621
        ],
        [
          -105.32518071,
          -135.1711407,
          7.73821954
        ],
        [
          -105.50226229,
          -134.87836268,
          10.71864276
        ],
        [
          -105.67934388,
          -134.58558467,
          13.69906668
        ],
        [
          -105.85642522,
          -134.29280665,
          16.67948966
        ],
        [
          -106.03350681,
          -134.00002864,
          19.65991263
        ],
        [
          -106.21058839,
          -133.70725062,
          22.6403356
        ],
        [
          -106.38766998,
          -133.41447261,
          25.62076048
        ],
        [
          -106.56475132,
          -133.1216965,
          28.60118346
        ],
        [
          -106.74183291,
          -132.82891848,
          31.58160643
        ],
        [
          -106.91891449,
          -132.53614047,
          34.56202941
        ],
        [
          -107.09599608,
          -132.24336245,
          37.54245429
        ],
        [
          -107.27307766,
          -131.95058444,
          40.52287726
        ],
        [
          -107.45015925,
          -131.65780642,
          43.50330023
        ],
        [
          -107.62724036,
          -131.36502841,
          46.48372321
        ],
        [
          -107.80432194,
          -131.07225039,
          49.46414618
        ],
        [
          -107.98140353,
          -130.77947428,
          52.44456915
        ],
        [
          -108.15848511,
          -130.48669627,
          55.42499213
        ],
        [
          -108.3355667,
          -130.19391825,
          58.4054151
        ],
        [
          -108.51264828,
          -129.90114024,
          61.38583808
        ],
        [
          -108.68972987,
          -129.60836222,
          64.36626486
        ],
        [
          -108.86681145,
          -129.31558421,
          67.34668784
        ],
        [
          -109.04389256,
          -129.02280619,
          70.32711081
        ],
        [
          -109.22097414,
          -128.73002818,
          73.30753378
        ],
        [
          -109.39805573,
          -128.43725207,
          76.28795676
        ],
        [
          -109.57513731,
          -128.14447406,
          79.26837973
        ]
      ],
      "CsaImage.TimeAfterStart": [
        0.7825,
        0.5225,
        0.795,
        0.535,
        0.8075,
        0.5475,
        0.82,
        0.56,
        0.8325,
        0.5725,
        0.845,
        0.585,
        0.8575,
        0.5975,
        0.87,
        0.61,
        0.8825,
        0.6225,
        0.895,
        0.635,
        0.9075,
        0.6475,
        0.92,
        0.66,
        0.9325,
        0.6725,
        0.945,
        0.685,
        0.9575,
        0.6975,
        0.97,
        0.71,
        0.9825,
        0.7225,
        0.9925,
        0.7325,
        1.005,
        0.745,
        1.0175,
        0.7575,
        1.03,
        0.77
      ],
      "ImagePositionPatient": [
        [
          -102.31479477551,
          -140.14836313934,
          -42.92897744586
        ],
        [
          -102.49187630083,
          -139.8555851242,
          -39.948554472227
        ],
        [
          -102.66895782616,
          -139.56280710907,
          -36.968131498594
        ],
        [
          -102.84603935148,
          -139.27002909393,
          -33.987708524961
        ],
        [
          -103.02312088054,
          -138.97725107879,
          -31.007285551328
        ],
        [
          -103.20020240214,
          -138.68447306366,
          -28.026858762998
        ],
        [
          -103.37728392746,
          -138.39169504852,
          -25.046437696714
        ],
        [
          -103.55436545279,
          -138.09891703338,
          -22.066014723081
        ],
        [
          -103.73144697811,
          -137.80614092559,
          -19.0855898421
        ],
        [
          -103.90852850344,
          -137.51336291046,
          -16.105166868467
        ],
        [
          -104.08561008837,
          -137.22058489532,
          -13.124743894834
        ],
        [
          -104.26269155409,
          -136.92780688018,
          -10.144320921201
        ],
        [
          -104.43977313902,
          -136.63502886505,
          -7.1638969938943
        ],
        [
          -104.61685460474,
          -136.34225084991,
          -4.1834740202615
        ],
        [
          -104.79393618967,
          -136.04947283477,
          -1.2030505697915
        ],
        [
          -104.97101765539,
          -135.75669481964,
          1.7773728806785
        ],
        [
          -105.14809912111,
          -135.46391871185,
          4.7577962119392
        ],
        [
          -105.32518070605,
          -135.17114069671,
          7.7382195431998
        ],
        [
          -105.50226229098,
          -134.87836268158,
          10.718642755251
        ],
        [
          -105.67934387591,
          -134.58558466644,
          13.699066682558
        ],
        [
          -105.85642522242,
          -134.2928066513,
          16.679489656191
        ],
        [
          -106.03350680735,
          -134.00002863617,
          19.659912629824
        ],
        [
          -106.21058839228,
          -133.70725062103,
          22.640335603457
        ],
        [
          -106.38766997721,
          -133.41447260589,
          25.620760484438
        ],
        [
          -106.56475132372,
          -133.1216964981,
          28.601183458071
        ],
        [
          -106.74183290865,
          -132.82891848297,
          31.581606431704
        ],
        [
          -106.91891449358,
          -132.53614046783,
          34.562029405337
        ],
        [
          -107.09599607851,
          -132.24336245269,
          37.542454286318
        ],
        [
          -107.27307766344,
          -131.95058443756,
          40.522877259951
        ],
        [
          -107.45015924837,
          -131.65780642242,
          43.503300233584
        ],
        [
          -107.62724035647,
          -131.36502840728,
          46.483723207217
        ],
        [
          -107.8043219414,
          -131.07225039215,
          49.464146180849
        ],
        [
          -107.98140352633,
          -130.77947428436,
          52.444569154482
        ],
        [
          -108.15848511126,
          -130.48669626922,
          55.424992128115
        ],
        [
          -108.33556669619,
          -130.19391825408,
          58.405415101748
        ],
        [
          -108.51264828112,
          -129.90114023895,
          61.385838075381
        ],
        [
          -108.68972986605,
          -129.60836222381,
          64.366264863711
        ],
        [
          -108.86681145098,
          -129.31558420867,
          67.346687837344
        ],
        [
          -109.04389255907,
          -129.02280619354,
          70.327110810976
        ],
        [
          -109.220974144,
          -128.7300281784,
          73.307533784609
        ],
        [
          -109.39805572893,
          -128.43725207061,
          76.287956758242
        ],
        [
          -109.57513731386,
          -128.14447405548,
          79.268379731875
        ]
      ],
      "InstanceCreationTime": [
        "190029.322000",
        "190029.273000",
        "190029.325000",
        "190029.275000",
        "190029.327000",
        "190029.277000",
        "190029.329000",
        "190029.284000",
        "190029.331000",
        "190029.286000",
        "190029.333000",
        "190029.288000",
        "190029.335000",
        "190029.290000",
        "190029.337000",
        "190029.293000",
        "190029.340000",
        "190029.295000",
        "190029.342000",
        "190029.297000",
        "190029.344000",
        "190029.299000",
        "190029.346000",
        "190029.301000",
        "190029.348000",
        "190029.303000",
        "190029.350000",
        "190029.305000",
        "190029.353000",
        "190029.307000",
        "190029.355000",
        "190029.310000",
        "190029.357000",
        "190029.312000",
        "190029.359000",
        "190029.314000",
        "190029.361000",
        "190029.316000",
        "190029.363000",
        "190029.318000",
        "190029.365000",
        "190029.320000"
      ],
      "InstanceNumber": [
        1,
        2,
        3,
        4,
        5,
        6,
        7,
        8,
        9,
        10,
        11,
        12,
        13,
        14,
        15,
        16,
        17,
        18,
        19,
        20,
        21,
        22,
        23,
        24,
        25,
        26,
        27,
        28,
        29,
        30,
        31,
        32,
        33,
        34,
        35,
        36,
        37,
        38,
        39,
        40,
        41,
        42
      ],
      "LargestImagePixelValue": [
        4090,
        4081,
        4093,
        4095,
        4094,
        4087,
        4090,
        4082,
        4079,
        4086,
        4090,
        4081,
        4087,
        4084,
        4093,
        4092,
        4082,
        4091,
        4083,
        4095,
        4093,
        4088,
        4087,
        4068,
        4079,
        4089,
        4091,
        4068,
        4092,
        4073,
        4089,
        4086,
        4092,
        4094,
        4090,
        4092,
        4094,
        4094,
        4090,
        4095,
        4093,
        4093
      ],
      "SliceLocation": [
        -50.286931257294,
        -47.286931601542,
        -44.286931945789,
        -41.286932290036,
        -38.286932634063,
        -35.286929188726,
        -32.286931427875,
        -29.286931772122,
        -26.28693040761,
        -23.286930751858,
        -20.286931092586,
        -17.286931440352,
        -14.28693083363,
        -11.286931181395,
        -8.2869310483983,
        -5.2869309224382,
        -2.2869311010526,
        0.71306891351271,
        3.7130688096466,
        6.7130694163688,
        9.7130690615668,
        12.713068720838,
        15.713068380109,
        18.713069934282,
        21.713069393337,
        24.713069052608,
        27.71306871188,
        30.713070266053,
        33.713069925324,
        36.713069584595,
        39.71306921572,
        42.713068874991,
        45.713068348119,
        48.71306800739,
        51.713067666662,
        54.713067325933,
        57.713070775008,
        60.713070434279,
        63.713070065404,
        66.713069724675,
        69.713069197803,
        72.713068857074
      ],
      "SmallestImagePixelValue": [
        10,
        0,
        5,
        6,
        0,
        3,
        3,
        1,
        2,
        0,
        12,
        4,
        5,
        20,
        2,
        22,
        26,
        52,
        16,
        10,
        12,
        7,
        1,
        5,
        5,
        7,
        0,
        4,
        4,
        0,
        38,
        2,
        2,
        3,
        7,
        2,
        1,
        0,
        3,
        0,
        0,
        0
      ],
      "WindowCenter": [
        -330.0,
        -274.0,
        -280.0,
        -254.0,
        -238.0,
        -302.0,
        -328.0,
        -294.0,
        -240.0,
        -212.0,
        -190.0,
        -136.0,
        -90.0,
        -126.0,
        -110.0,
        -124.0,
        -128.0,
        -106.0,
        -92.0,
        -56.0,
        -238.0,
        -228.0,
        -228.0,
        -38.0,
        -42.0,
        -136.0,
        -56.0,
        -150.0,
        -220.0,
        -252.0,
        -256.0,
        -218.0,
        -208.0,
        -108.0,
        -66.0,
        -82.0,
        -74.0,
        -80.0,
        -154.0,
        -112.0,
        -144.0,
        -162.0
      ],
      "WindowWidth": [
        6022.0,
        6124.0,
        6154.0,
        6206.0,
        6232.0,
        6142.0,
        5978.0,
        5720.0,
        5678.0,
        5548.0,
        5548.0,
        5304.0,
        5506.0,
        5350.0,
        5392.0,
        5370.0,
        5366.0,
        5340.0,
        5320.0,
        5430.0,
        4598.0,
        4576.0,
        4562.0,
        5196.0,
        4992.0,
        4478.0,
        4762.0,
        4468.0,
        4514.0,
        4528.0,
        4530.0,
        4542.0,
        4552.0,
        5028.0,
        5332.0,
        5336.0,
        5462.0,
        5522.0,
        5394.0,
        5740.0,
        5848.0,
        5876.0
      ]
    }
  }
}