{
  "AcquisitionMatrixPE": 72,
  "AcquisitionNumber": 1,
  "AcquisitionTime": "17:37:44.745000",
  "BandwidthPerPixelPhaseEncode": 17.943,
  "BaseResolution": 96,
  "BodyPartExamined": "BRAIN",
  "CoilCombinationMethod": "Sum of Squares",
  "ConsistencyInfo": "N4_VE11C_LATEST_20160120",
  "ConversionSoftware": "dcm2niix",
  "ConversionSoftwareVersion": "v1.0.20211006",
  "DerivedVendorReportedEchoSpacing": 0.000552897,
  "DeviceSerialNumber": "166011",
  "EchoTime": 0.03,
  "EchoTrainLength": 58,
  "EffectiveEchoSpacing": 0.000580542,
  "FlipAngle": 62,
  "ImageOrientationPatientDICOM": [0.999865, -0.00616565, -0.0152, 0.00331569, 0.983507, -0.180837],
  "ImageType": [
    "ORIGINAL",
    "PRIMARY",
    "M",
    "ND",
    "MOSAIC"
],
  "ImagingFrequency": 123.259,
  "InPlanePhaseEncodingDirectionDICOM": "COL",
  "InstitutionAddress": "West 130th Street 610,NY,NYC,US,10025",
  "InstitutionName": "MBBI",
  "MRAcquisitionType": "2D",
  "MagneticFieldStrength": 3,
  "Manufacturer": "Siemens",
  "ManufacturersModelName": "Prisma",
  "Modality": "MR",
  "MultibandAccelerationFactor": 3,
  "PartialFourier": 0.75,
  "PatientPosition": "HFS",
  "PercentPhaseFOV": 100,
  "PercentSampling": 75,
  "PhaseEncodingDirection": "j-",
  "PhaseEncodingSteps": 58,
  "PhaseOversampling": 0.05,
  "PhaseResolution": 0.75,
  "PixelBandwidth": 2265,
  "ProcedureStepDescription": "White^Word_recognition",
  "ProtocolName": "func_language_run2",
  "PulseSequenceDetails": "%SiemensSeq%\\ep2d_bold",
  "ReceiveCoilActiveElements": "HC1-7",
  "ReceiveCoilName": "HeadNeck_64",
  "ReconMatrixPE": 96,
  "RefLinesPE": 40,
  "RepetitionTime": 1.5,
  "SAR": 0.0496862,
  "ScanOptions": "PFP\\FS",
  "ScanningSequence": "EP",
  "SequenceName": "*epfid2d1_72",
  "SequenceVariant": "SK\\OSP",
  "SeriesDescription": "func_language_run2",
  "SeriesNumber": 12,
  "ShimSetting": [-1149, -1328, 629, 675, -75, -93, 97, 42],
  "SliceThickness": 2,
  "SliceTiming": [1.0775, 0, 0.74, 0.0675, 0.8075, 0.135, 0.875, 0.2025, 0.9425, 0.27, 1.01, 0.405, 1.145, 0.4725, 1.2125, 0.54, 1.28, 0.6075, 1.3475, 0.675, 1.415, 0.3375, 1.0775, 0, 0.74, 0.0675, 0.8075, 0.135, 0.875, 0.2025, 0.9425, 0.27, 1.01, 0.405, 1.145, 0.4725, 1.2125, 0.54, 1.28, 0.6075, 1.3475, 0.675, 1.415, 0.3375, 1.0775, 0, 0.74, 0.0675, 0.8075, 0.135, 0.875, 0.2025, 0.9425, 0.27, 1.01, 0.405, 1.145, 0.4725, 1.2125, 0.54, 1.28, 0.6075, 1.3475, 0.675, 1.415, 0.3375],
  "SoftwareVersions": "syngo MR E11",
  "SpacingBetweenSlices": 2,
  "StationName": "AWP166011",
  "TaskName": "langLoc",
  "TotalReadoutTime": 0.0551515,
  "TxRefAmp": 228.524,
  "dcmmeta_affine": [
    [-1.9997309446334839, 0.006631380878388882, -0.03212849795818329, 96.48507690429688],
    [0.012331300415098667, 1.9670149087905884, -0.3615250587463379, -54.946258544921875],
    [-0.03039991296827793, 0.3616745173931122, 1.9667911529541016, -87.13145446777344],
    [0.0, 0.0, 0.0, 1.0]
],
  "dcmmeta_reorient_transform": [
    [0.0, -1.0, 0.0, 95.0],
    [1.0, 0.0, 0.0, 0.0],
    [0.0, 0.0, 1.0, 0.0],
    [0.0, 0.0, 0.0, 1.0]
],
  "dcmmeta_shape": [96, 96, 66, 239],
  "dcmmeta_slice_dim": 2,
  "dcmmeta_version": 0.6,
  "global": {
    "const": {
      "AcquisitionMatrix": [96, 0, 0, 72],
      "AngioFlag": "N",
      "BitsAllocated": 16,
      "BitsStored": 12,
      "BodyPartExamined": "BRAIN",
      "Columns": 864,
      "EchoNumbers": 1,
      "EchoTime": 30.0,
      "EchoTrainLength": 58,
      "FlipAngle": 62.0,
      "HighBit": 11,
      "ImageOrientationPatient": [0.99986546398525, -0.0061656501989, -0.0151999568156, 0.00331569048546, 0.98350744452399, -0.1808372549076],
      "ImagePositionPatient": [-867.55818737456, -882.51865484035, 97.784201465923],
      "ImageType": [
        "ORIGINAL",
        "PRIMARY",
        "M",
        "ND",
        "MOSAIC"
],
      "ImagedNucleus": "1H",
      "ImagingFrequency": 123.259494,
      "InPlanePhaseEncodingDirection": "COL",
      "MRAcquisitionType": "2D",
      "MagneticFieldStrength": 3.0,
      "Manufacturer": "SIEMENS",
      "ManufacturerModelName": "Prisma",
      "Modality": "MR",
      "NumberOfAverages": 1.0,
      "NumberOfPhaseEncodingSteps": 58,
      "PercentPhaseFieldOfView": 100.0,
      "PercentSampling": 75.0,
      "PerformedProcedureStepStartTime": "164451.895000",
      "PhotometricInterpretation": "MONOCHROME2",
      "PixelBandwidth": 2265.0,
      "PixelRepresentation": 0,
      "PixelSpacing": [2.0, 2.0],
      "ProtocolName": "func_language_run2",
      "RepetitionTime": 1500.0,
      "Rows": 864,
      "SAR": 0.04968616938691,
      "SamplesPerPixel": 1,
      "ScanOptions": [
        "PFP",
        "FS"
],
      "ScanningSequence": "EP",
      "SequenceName": "*epfid2d1_72",
      "SequenceVariant": [
        "SK",
        "OSP"
],
      "SeriesDescription": "func_language_run2",
      "SeriesNumber": 12,
      "SeriesTime": "173820.380000",
      "SliceLocation": -77.302423505315,
      "SliceThickness": 2.0,
      "SmallestImagePixelValue": 0,
      "SoftwareVersions": "syngo MR E11",
      "SpacingBetweenSlices": 1.9999999898506,
      "SpecificCharacterSet": "ISO_IR 100",
      "StudyID": "1",
      "StudyTime": "164451.814000",
      "TransmitCoilName": "Body",
      "VariableFlipAngleFlag": "N",
      "WindowCenterWidthExplanation": "Algo1",
      "dBdt": 0.0},
    "slices": {}
  },
  "time": {
    "samples": {
      "AcquisitionNumber": [1, 2, 3, 4, 5, 6, 7, 8, 9, 10, 11, 12, 13, 14, 15, 16, 17, 18, 19, 20, 21, 22, 23, 24, 25, 26, 27, 28, 29, 30, 31, 32, 33, 34, 35, 36, 37, 38, 39, 40, 41, 42, 43, 44, 45, 46, 47, 48, 49, 50, 51, 52, 53, 54, 55, 56, 57, 58, 59, 60, 61, 62, 63, 64, 65, 66, 67, 68, 69, 70, 71, 72, 73, 74, 75, 76, 77, 78, 79, 80, 81, 82, 83, 84, 85, 86, 87, 88, 89, 90, 91, 92, 93, 94, 95, 96, 97, 98, 99, 100, 101, 102, 103, 104, 105, 106, 107, 108, 109, 110, 111, 112, 113, 114, 115, 116, 117, 118, 119, 120, 121, 122, 123, 124, 125, 126, 127, 128, 129, 130, 131, 132, 133, 134, 135, 136, 137, 138, 139, 140, 141, 142, 143, 144, 145, 146, 147, 148, 149, 150, 151, 152, 153, 154, 155, 156, 157, 158, 159, 160, 161, 162, 163, 164, 165, 166, 167, 168, 169, 170, 171, 172, 173, 174, 175, 176, 177, 178, 179, 180, 181, 182, 183, 184, 185, 186, 187, 188, 189, 190, 191, 192, 193, 194, 195, 196, 197, 198, 199, 200, 201, 202, 203, 204, 205, 206, 207, 208, 209, 210, 211, 212, 213, 214, 215, 216, 217, 218, 219, 220, 221, 222, 223, 224, 225, 226, 227, 228, 229, 230, 231, 232, 233, 234, 235, 236, 237, 238, 239],
      "AcquisitionTime": ["173744.745000", "173746.245000", "173747.745000", "173749.245000", "173750.745000", "173752.245000", "173753.745000", "173755.245000", "173756.745000", "173758.245000", "173759.745000", "173801.245000", "173802.745000", "173804.245000", "173805.745000", "173807.245000", "173808.745000", "173810.245000", "173811.745000", "173813.245000", "173814.745000", "173816.245000", "173817.745000", "173819.245000", "173820.745000", "173822.245000", "173823.745000", "173825.245000", "173826.745000", "173828.245000", "173829.745000", "173831.245000", "173832.745000", "173834.245000", "173835.745000", "173837.245000", "173838.745000", "173840.245000", "173841.745000", "173843.245000", "173844.745000", "173846.245000", "173847.745000", "173849.245000", "173850.745000", "173852.245000", "173853.745000", "173855.245000", "173856.745000", "173858.245000", "173859.745000", "173901.245000", "173902.745000", "173904.245000", "173905.745000", "173907.245000", "173908.745000", "173910.245000", "173911.745000", "173913.245000", "173914.745000", "173916.245000", "173917.745000", "173919.245000", "173920.745000", "173922.245000", "173923.745000", "173925.245000", "173926.745000", "173928.245000", "173929.745000", "173931.245000", "173932.745000", "173934.245000", "173935.745000", "173937.245000", "173938.745000", "173940.245000", "173941.745000", "173943.245000", "173944.745000", "173946.245000", "173947.745000", "173949.245000", "173950.745000", "173952.245000", "173953.745000", "173955.245000", "173956.745000", "173958.245000", "173959.745000", "174001.245000", "174002.745000", "174004.245000", "174005.745000", "174007.245000", "174008.745000", "174010.245000", "174011.745000", "174013.245000", "174014.745000", "174016.245000", "174017.745000", "174019.245000", "174020.745000", "174022.245000", "174023.745000", "174025.245000", "174026.745000", "174028.245000", "174029.745000", "174031.245000", "174032.745000", "174034.245000", "174035.745000", "174037.245000", "174038.745000", "174040.245000", "174041.745000", "174043.245000", "174044.745000", "174046.245000", "174047.745000", "174049.245000", "174050.745000", "174052.245000", "174053.745000", "174055.245000", "174056.745000", "174058.245000", "174059.745000", "174101.245000", "174102.745000", "174104.245000", "174105.745000", "174107.245000", "174108.745000", "174110.245000", "174111.745000", "174113.245000", "174114.745000", "174116.245000", "174117.745000", "174119.245000", "174120.745000", "174122.245000", "174123.745000", "174125.245000", "174126.745000", "174128.245000", "174129.745000", "174131.245000", "174132.745000", "174134.245000", "174135.745000", "174137.245000", "174138.745000", "174140.245000", "174141.745000", "174143.245000", "174144.745000", "174146.245000", "174147.745000", "174149.245000", "174150.745000", "174152.245000", "174153.745000", "174155.245000", "174156.745000", "174158.245000", "174159.745000", "174201.245000", "174202.745000", "174204.245000", "174205.745000", "174207.245000", "174208.745000", "174210.245000", "174211.745000", "174213.245000", "174214.745000", "174216.245000", "174217.745000", "174219.245000", "174220.745000", "174222.245000", "174223.745000", "174225.245000", "174226.745000", "174228.245000", "174229.745000", "174231.245000", "174232.745000", "174234.245000", "174235.745000", "174237.245000", "174238.745000", "174240.245000", "174241.745000", "174243.245000", "174244.745000", "174246.245000", "174247.745000", "174249.245000", "174250.745000", "174252.245000", "174253.745000", "174255.245000", "174256.745000", "174258.245000", "174259.745000", "174301.245000", "174302.745000", "174304.245000", "174305.745000", "174307.245000", "174308.745000", "174310.245000", "174311.745000", "174313.245000", "174314.745000", "174316.245000", "174317.745000", "174319.245000", "174320.745000", "174322.245000", "174323.745000", "174325.245000", "174326.745000", "174328.245000", "174329.745000", "174331.245000", "174332.745000", "174334.245000", "174335.745000", "174337.245000", "174338.745000", "174340.245000", "174341.745000"],
      "ContentTime": ["173820.384000", "173820.388000", "173820.391000", "173820.394000", "173820.398000", "173820.401000", "173820.404000", "173820.407000", "173820.410000", "173820.413000", "173820.424000", "173820.431000", "173820.434000", "173820.437000", "173820.447000", "173820.450000", "173820.453000", "173820.456000", "173820.459000", "173820.462000", "173820.465000", "173820.468000", "173820.472000", "173900.359000", "173900.362000", "173900.365000", "173900.368000", "173900.371000", "173900.374000", "173900.378000", "173900.381000", "173900.384000", "173900.387000", "173900.390000", "173900.393000", "173900.396000", "173900.399000", "173900.402000", "173900.405000", "173900.408000", "173900.411000", "173900.414000", "173900.417000", "173900.420000", "173900.423000", "173900.426000", "173900.429000", "173900.433000", "173900.436000", "173900.439000", "173940.359000", "173940.362000", "173940.365000", "173940.368000", "173940.372000", "173940.375000", "173940.386000", "173940.389000", "173940.392000", "173940.395000", "173940.398000", "173940.401000", "173940.405000", "173940.408000", "173940.411000", "173940.414000", "173940.417000", "173940.420000", "173940.423000", "173940.426000", "173940.429000", "173940.432000", "173940.435000", "173940.438000", "173940.441000", "173940.445000", "173940.448000", "174020.360000", "174020.363000", "174020.366000", "174020.369000", "174020.373000", "174020.376000", "174020.379000", "174020.382000", "174020.385000", "174020.388000", "174020.391000", "174020.394000", "174020.397000", "174020.400000", "174020.403000", "174020.406000", "174020.410000", "174020.413000", "174020.416000", "174020.419000", "174020.422000", "174020.425000", "174020.428000", "174020.431000", "174020.435000", "174020.438000", "174100.360000", "174100.363000", "174100.366000", "174100.369000", "174100.373000", "174100.376000", "174100.379000", "174100.382000", "174100.385000", "174100.388000", "174100.391000", "174100.394000", "174100.397000", "174100.410000", "174100.413000", "174100.416000", "174100.419000", "174100.422000", "174100.425000", "174100.428000", "174100.431000", "174100.435000", "174100.438000", "174100.441000", "174100.444000", "174100.447000", "174100.450000", "174140.359000", "174140.362000", "174140.365000", "174140.368000", "174140.371000", "174140.374000", "174140.377000", "174140.380000", "174140.384000", "174140.387000", "174140.390000", "174140.393000", "174140.396000", "174140.399000", "174140.402000", "174140.405000", "174140.408000", "174140.411000", "174140.414000", "174140.417000", "174140.420000", "174140.423000", "174140.427000", "174140.430000", "174140.433000", "174140.436000", "174140.439000", "174220.360000", "174220.363000", "174220.366000", "174220.369000", "174220.373000", "174220.376000", "174220.379000", "174220.382000", "174220.385000", "174220.388000", "174220.391000", "174220.394000", "174220.398000", "174220.401000", "174220.404000", "174220.407000", "174220.410000", "174220.413000", "174220.416000", "174220.419000", "174220.422000", "174220.425000", "174220.428000", "174220.431000", "174220.435000", "174220.438000", "174300.360000", "174300.363000", "174300.366000", "174300.369000", "174300.390000", "174300.394000", "174300.397000", "174300.400000", "174300.403000", "174300.406000", "174300.409000", "174300.412000", "174300.415000", "174300.418000", "174300.421000", "174300.424000", "174300.428000", "174300.431000", "174300.434000", "174300.437000", "174300.440000", "174300.443000", "174300.446000", "174300.449000", "174300.452000", "174300.455000", "174300.458000", "174340.359000", "174340.362000", "174340.365000", "174340.369000", "174340.372000", "174340.375000", "174340.378000", "174340.381000", "174340.384000", "174340.387000", "174340.390000", "174340.393000", "174340.396000", "174340.399000", "174340.402000", "174340.406000", "174340.409000", "174340.412000", "174340.415000", "174340.418000", "174340.421000", "174340.424000", "174340.427000", "174340.431000", "174340.434000", "174340.437000", "174340.440000", "174343.014000", "174343.017000"],
      "InstanceCreationTime": ["173820.384000", "173820.388000", "173820.391000", "173820.394000", "173820.398000", "173820.401000", "173820.404000", "173820.407000", "173820.410000", "173820.413000", "173820.424000", "173820.431000", "173820.434000", "173820.437000", "173820.447000", "173820.450000", "173820.453000", "173820.456000", "173820.459000", "173820.462000", "173820.465000", "173820.468000", "173820.472000", "173900.359000", "173900.362000", "173900.365000", "173900.368000", "173900.371000", "173900.374000", "173900.378000", "173900.381000", "173900.384000", "173900.387000", "173900.390000", "173900.393000", "173900.396000", "173900.399000", "173900.402000", "173900.405000", "173900.408000", "173900.411000", "173900.414000", "173900.417000", "173900.420000", "173900.423000", "173900.426000", "173900.429000", "173900.433000", "173900.436000", "173900.439000", "173940.359000", "173940.362000", "173940.365000", "173940.368000", "173940.372000", "173940.375000", "173940.386000", "173940.389000", "173940.392000", "173940.395000", "173940.398000", "173940.401000", "173940.405000", "173940.408000", "173940.411000", "173940.414000", "173940.417000", "173940.420000", "173940.423000", "173940.426000", "173940.429000", "173940.432000", "173940.435000", "173940.438000", "173940.441000", "173940.445000", "173940.448000", "174020.360000", "174020.363000", "174020.366000", "174020.369000", "174020.373000", "174020.376000", "174020.379000", "174020.382000", "174020.385000", "174020.388000", "174020.391000", "174020.394000", "174020.397000", "174020.400000", "174020.403000", "174020.406000", "174020.410000", "174020.413000", "174020.416000", "174020.419000", "174020.422000", "174020.425000", "174020.428000", "174020.431000", "174020.435000", "174020.438000", "174100.360000", "174100.363000", "174100.366000", "174100.369000", "174100.373000", "174100.376000", "174100.379000", "174100.382000", "174100.385000", "174100.388000", "174100.391000", "174100.394000", "174100.397000", "174100.410000", "174100.413000", "174100.416000", "174100.419000", "174100.422000", "174100.425000", "174100.428000", "174100.431000", "174100.435000", "174100.438000", "174100.441000", "174100.444000", "174100.447000", "174100.450000", "174140.359000", "174140.362000", "174140.365000", "174140.368000", "174140.371000", "174140.374000", "174140.377000", "174140.380000", "174140.384000", "174140.387000", "174140.390000", "174140.393000", "174140.396000", "174140.399000", "174140.402000", "174140.405000", "174140.408000", "174140.411000", "174140.414000", "174140.417000", "174140.420000", "174140.423000", "174140.427000", "174140.430000", "174140.433000", "174140.436000", "174140.439000", "174220.360000", "174220.363000", "174220.366000", "174220.369000", "174220.373000", "174220.376000", "174220.379000", "174220.382000", "174220.385000", "174220.388000", "174220.391000", "174220.394000", "174220.398000", "174220.401000", "174220.404000", "174220.407000", "174220.410000", "174220.413000", "174220.416000", "174220.419000", "174220.422000", "174220.425000", "174220.428000", "174220.431000", "174220.435000", "174220.438000", "174300.360000", "174300.363000", "174300.366000", "174300.369000", "174300.390000", "174300.394000", "174300.397000", "174300.400000", "174300.403000", "174300.406000", "174300.409000", "174300.412000", "174300.415000", "174300.418000", "174300.421000", "174300.424000", "174300.428000", "174300.431000", "174300.434000", "174300.437000", "174300.440000", "174300.443000", "174300.446000", "174300.449000", "174300.452000", "174300.455000", "174300.458000", "174340.359000", "174340.362000", "174340.365000", "174340.369000", "174340.372000", "174340.375000", "174340.378000", "174340.381000", "174340.384000", "174340.387000", "174340.390000", "174340.393000", "174340.396000", "174340.399000", "174340.402000", "174340.406000", "174340.409000", "174340.412000", "174340.415000", "174340.418000", "174340.421000", "174340.424000", "174340.427000", "174340.431000", "174340.434000", "174340.437000", "174340.440000", "174343.014000", "174343.017000"],
      "InstanceNumber": [1, 2, 3, 4, 5, 6, 7, 8, 9, 10, 11, 12, 13, 14, 15, 16, 17, 18, 19, 20, 21, 22, 23, 24, 25, 26, 27, 28, 29, 30, 31, 32, 33, 34, 35, 36, 37, 38, 39, 40, 41, 42, 43, 44, 45, 46, 47, 48, 49, 50, 51, 52, 53, 54, 55, 56, 57, 58, 59, 60, 61, 62, 63, 64, 65, 66, 67, 68, 69, 70, 71, 72, 73, 74, 75, 76, 77, 78, 79, 80, 81, 82, 83, 84, 85, 86, 87, 88, 89, 90, 91, 92, 93, 94, 95, 96, 97, 98, 99, 100, 101, 102, 103, 104, 105, 106, 107, 108, 109, 110, 111, 112, 113, 114, 115, 116, 117, 118, 119, 120, 121, 122, 123, 124, 125, 126, 127, 128, 129, 130, 131, 132, 133, 134, 135, 136, 137, 138, 139, 140, 141, 142, 143, 144, 145, 146, 147, 148, 149, 150, 151, 152, 153, 154, 155, 156, 157, 158, 159, 160, 161, 162, 163, 164, 165, 166, 167, 168, 169, 170, 171, 172, 173, 174, 175, 176, 177, 178, 179, 180, 181, 182, 183, 184, 185, 186, 187, 188, 189, 190, 191, 192, 193, 194, 195, 196, 197, 198, 199, 200, 201, 202, 203, 204, 205, 206, 207, 208, 209, 210, 211, 212, 213, 214, 215, 216, 217, 218, 219, 220, 221, 222, 223, 224, 225, 226, 227, 228, 229, 230, 231, 232, 233, 234, 235, 236, 237, 238, 239],
      "LargestImagePixelValue": [4095, 4002, 3960, 3940, 3921, 3894, 3865, 3860, 3753, 3866, 3838, 3876, 3807, 3877, 3787, 3879, 3831, 3835, 3782, 3862, 3881, 3841, 3762, 3860, 3835, 3850, 3811, 3922, 3905, 3867, 3798, 3774, 3754, 3813, 3825, 3839, 3840, 3762, 3847, 3747, 3876, 3720, 3842, 3690, 3810, 3705, 3802, 3697, 3797, 3695, 3783, 3725, 3768, 3808, 3780, 3783, 3757, 3840, 3781, 3754, 3781, 3735, 3832, 3914, 3704, 3688, 3734, 3743, 3838, 3769, 3763, 3762, 3741, 3758, 3834, 3789, 3887, 3800, 3663, 3709, 3740, 3743, 3732, 3747, 3755, 3746, 3734, 3722, 3785, 3761, 3778, 3759, 3724, 3815, 3766, 3810, 3739, 3759, 3767, 3785, 3710, 3751, 3752, 3779, 3801, 3725, 3764, 3699, 3748, 3735, 3757, 3728, 3761, 3731, 3761, 3764, 3749, 3699, 3756, 3974, 3781, 3788, 3739, 3720, 3706, 3704, 3770, 3845, 3783, 3753, 3766, 3761, 3743, 3780, 3757, 3783, 3762, 3636, 3621, 3677, 3648, 3670, 3636, 3601, 3614, 3629, 3750, 3780, 3738, 3681, 3751, 3671, 3670, 3649, 3687, 3730, 3699, 3725, 3802, 3757, 3750, 3773, 3786, 3617, 3918, 3791, 3676, 3807, 3740, 3770, 3658, 3844, 3733, 3731, 3716, 3768, 3741, 3760, 3774, 3743, 3797, 3765, 3789, 3769, 3789, 3771, 3792, 3762, 3906, 3703, 3734, 3620, 3869, 3739, 3744, 3783, 3793, 3748, 3838, 3780, 3874, 3753, 3671, 3740, 3662, 3906, 3674, 3655, 3649, 3672, 3646, 3637, 3746, 3664, 3778, 3631, 3657, 3610, 3521, 3435, 4095, 3797, 3762, 3797, 3761, 3795, 3803, 3850, 3856, 3843, 3736, 3856, 3664, 3795, 3661, 3652, 3642, 3698, 3677],
      "WindowCenter": [705.0, 704.0, 703.0, 701.0, 701.0, 703.0, 700.0, 701.0, 701.0, 701.0, 699.0, 699.0, 699.0, 702.0, 703.0, 704.0, 702.0, 700.0, 700.0, 703.0, 703.0, 702.0, 698.0, 701.0, 702.0, 703.0, 702.0, 704.0, 704.0, 702.0, 699.0, 698.0, 698.0, 698.0, 699.0, 700.0, 702.0, 701.0, 700.0, 701.0, 702.0, 700.0, 701.0, 702.0, 704.0, 702.0, 702.0, 702.0, 704.0, 700.0, 700.0, 701.0, 701.0, 700.0, 700.0, 701.0, 702.0, 700.0, 700.0, 702.0, 704.0, 702.0, 700.0, 702.0, 699.0, 699.0, 700.0, 699.0, 700.0, 700.0, 700.0, 700.0, 701.0, 702.0, 702.0, 691.0, 700.0, 697.0, 695.0, 696.0, 698.0, 699.0, 697.0, 695.0, 696.0, 697.0, 698.0, 697.0, 698.0, 699.0, 700.0, 699.0, 697.0, 699.0, 700.0, 700.0, 700.0, 701.0, 700.0, 698.0, 697.0, 698.0, 700.0, 702.0, 702.0, 699.0, 698.0, 697.0, 699.0, 699.0, 700.0, 699.0, 700.0, 701.0, 701.0, 701.0, 698.0, 700.0, 700.0, 704.0, 701.0, 699.0, 698.0, 697.0, 701.0, 698.0, 699.0, 700.0, 699.0, 699.0, 699.0, 700.0, 700.0, 701.0, 691.0, 680.0, 692.0, 691.0, 692.0, 692.0, 692.0, 692.0, 692.0, 690.0, 690.0, 690.0, 693.0, 696.0, 695.0, 694.0, 694.0, 697.0, 699.0, 697.0, 696.0, 694.0, 692.0, 692.0, 694.0, 694.0, 695.0, 695.0, 693.0, 692.0, 695.0, 694.0, 695.0, 696.0, 694.0, 692.0, 691.0, 691.0, 690.0, 692.0, 694.0, 694.0, 692.0, 692.0, 693.0, 694.0, 693.0, 693.0, 694.0, 695.0, 695.0, 694.0, 694.0, 696.0, 698.0, 695.0, 696.0, 696.0, 698.0, 699.0, 697.0, 696.0, 694.0, 693.0, 693.0, 694.0, 695.0, 695.0, 691.0, 694.0, 693.0, 691.0, 689.0, 690.0, 692.0, 693.0, 692.0, 691.0, 689.0, 688.0, 689.0, 690.0, 691.0, 690.0, 685.0, 685.0, 700.0, 706.0, 704.0, 704.0, 700.0, 700.0, 699.0, 700.0, 698.0, 698.0, 697.0, 698.0, 698.0, 698.0, 695.0, 695.0, 695.0, 696.0, 696.0],
      "WindowWidth": [1553.0, 1549.0, 1545.0, 1539.0, 1539.0, 1543.0, 1537.0, 1538.0, 1538.0, 1538.0, 1534.0, 1533.0, 1534.0, 1540.0, 1544.0, 1547.0, 1540.0, 1537.0, 1536.0, 1544.0, 1545.0, 1541.0, 1531.0, 1538.0, 1544.0, 1545.0, 1542.0, 1547.0, 1547.0, 1542.0, 1532.0, 1530.0, 1529.0, 1531.0, 1532.0, 1536.0, 1541.0, 1539.0, 1536.0, 1538.0, 1543.0, 1537.0, 1540.0, 1543.0, 1547.0, 1541.0, 1541.0, 1544.0, 1547.0, 1537.0, 1536.0, 1538.0, 1539.0, 1535.0, 1536.0, 1539.0, 1541.0, 1537.0, 1536.0, 1542.0, 1547.0, 1541.0, 1538.0, 1545.0, 1533.0, 1534.0, 1536.0, 1535.0, 1536.0, 1538.0, 1538.0, 1538.0, 1539.0, 1543.0, 1542.0, 1510.0, 1536.0, 1529.0, 1524.0, 1526.0, 1530.0, 1534.0, 1527.0, 1522.0, 1524.0, 1528.0, 1532.0, 1528.0, 1531.0, 1534.0, 1536.0, 1532.0, 1529.0, 1533.0, 1537.0, 1535.0, 1536.0, 1539.0, 1537.0, 1532.0, 1529.0, 1530.0, 1536.0, 1542.0, 1544.0, 1534.0, 1530.0, 1527.0, 1533.0, 1534.0, 1536.0, 1534.0, 1538.0, 1539.0, 1540.0, 1539.0, 1529.0, 1536.0, 1537.0, 1548.0, 1539.0, 1533.0, 1530.0, 1528.0, 1538.0, 1531.0, 1534.0, 1536.0, 1533.0, 1533.0, 1534.0, 1535.0, 1537.0, 1539.0, 1511.0, 1484.0, 1514.0, 1511.0, 1512.0, 1513.0, 1513.0, 1514.0, 1513.0, 1507.0, 1506.0, 1508.0, 1517.0, 1524.0, 1522.0, 1518.0, 1519.0, 1526.0, 1532.0, 1527.0, 1524.0, 1518.0, 1514.0, 1515.0, 1518.0, 1520.0, 1522.0, 1522.0, 1517.0, 1513.0, 1522.0, 1519.0, 1522.0, 1524.0, 1519.0, 1513.0, 1511.0, 1510.0, 1508.0, 1513.0, 1519.0, 1518.0, 1515.0, 1515.0, 1517.0, 1520.0, 1517.0, 1518.0, 1521.0, 1522.0, 1522.0, 1520.0, 1520.0, 1526.0, 1531.0, 1524.0, 1525.0, 1525.0, 1530.0, 1532.0, 1526.0, 1523.0, 1519.0, 1515.0, 1517.0, 1520.0, 1523.0, 1523.0, 1508.0, 1520.0, 1515.0, 1510.0, 1506.0, 1509.0, 1513.0, 1516.0, 1514.0, 1510.0, 1505.0, 1502.0, 1505.0, 1508.0, 1512.0, 1508.0, 1494.0, 1498.0, 1537.0, 1551.0, 1547.0, 1546.0, 1536.0, 1536.0, 1533.0, 1535.0, 1530.0, 1529.0, 1528.0, 1531.0, 1529.0, 1529.0, 1522.0, 1521.0, 1522.0, 1526.0, 1524.0]
    },
    "slices": {}
  }
}