{
  "AcquisitionMatrixPE": 72,
  "AcquisitionNumber": 1,
  "AcquisitionTime": "17:16:42.770000",
  "BandwidthPerPixelPhaseEncode": 17.943,
  "BaseResolution": 96,
  "BodyPartExamined": "BRAIN",
  "CoilCombinationMethod": "Sum of Squares",
  "ConsistencyInfo": "N4_VE11C_LATEST_20160120",
  "ConversionSoftware": "dcm2niix",
  "ConversionSoftwareVersion": "v1.0.20211006",
  "DerivedVendorReportedEchoSpacing": 0.000552897,
  "DeviceSerialNumber": "166011",
  "EchoTime": 0.03,
  "EchoTrainLength": 58,
  "EffectiveEchoSpacing": 0.000580542,
  "FlipAngle": 62,
  "ImageOrientationPatientDICOM": [0.999865, -0.00616565, -0.0152, 0.00331569, 0.983507, -0.180837],
  "ImageType": [
    "ORIGINAL",
    "PRIMARY",
    "M",
    "ND",
    "MOSAIC"
],
  "ImagingFrequency": 123.259,
  "InPlanePhaseEncodingDirectionDICOM": "COL",
  "InstitutionAddress": "West 130th Street 610,NY,NYC,US,10025",
  "InstitutionName": "MBBI",
  "MRAcquisitionType": "2D",
  "MagneticFieldStrength": 3,
  "Manufacturer": "Siemens",
  "ManufacturersModelName": "Prisma",
  "Modality": "MR",
  "MultibandAccelerationFactor": 3,
  "PartialFourier": 0.75,
  "PatientPosition": "HFS",
  "PercentPhaseFOV": 100,
  "PercentSampling": 75,
  "PhaseEncodingDirection": "j-",
  "PhaseEncodingSteps": 58,
  "PhaseOversampling": 0.05,
  "PhaseResolution": 0.75,
  "PixelBandwidth": 2265,
  "ProcedureStepDescription": "White^Word_recognition",
  "ProtocolName": "func_vwfate_run14",
  "PulseSequenceDetails": "%SiemensSeq%\\ep2d_bold",
  "ReceiveCoilActiveElements": "HC1-7",
  "ReceiveCoilName": "HeadNeck_64",
  "ReconMatrixPE": 96,
  "RefLinesPE": 40,
  "RepetitionTime": 1.5,
  "SAR": 0.0494775,
  "ScanOptions": "PFP\\FS",
  "ScanningSequence": "EP",
  "SequenceName": "*epfid2d1_72",
  "SequenceVariant": "SK\\OSP",
  "SeriesDescription": "func_vwfate_run14",
  "SeriesNumber": 9,
  "ShimSetting": [-1149, -1328, 629, 675, -75, -93, 97, 42],
  "SliceThickness": 2,
  "SliceTiming": [1.0775, 0, 0.74, 0.0675, 0.8075, 0.135, 0.875, 0.2025, 0.9425, 0.27, 1.01, 0.405, 1.145, 0.4725, 1.2125, 0.54, 1.28, 0.605, 1.345, 0.6725, 1.4125, 0.3375, 1.0775, 0, 0.74, 0.0675, 0.8075, 0.135, 0.875, 0.2025, 0.9425, 0.27, 1.01, 0.405, 1.145, 0.4725, 1.2125, 0.54, 1.28, 0.605, 1.345, 0.6725, 1.4125, 0.3375, 1.0775, 0, 0.74, 0.0675, 0.8075, 0.135, 0.875, 0.2025, 0.9425, 0.27, 1.01, 0.405, 1.145, 0.4725, 1.2125, 0.54, 1.28, 0.605, 1.345, 0.6725, 1.4125, 0.3375],
  "SoftwareVersions": "syngo MR E11",
  "SpacingBetweenSlices": 2,
  "StationName": "AWP166011",
  "TaskName": "vwfate",
  "TotalReadoutTime": 0.0551515,
  "TxRefAmp": 228.524,
  "dcmmeta_affine": [
    [-1.9997309446334839, 0.006631380878388882, -0.03212849795818329, 96.48507690429688],
    [0.012331300415098667, 1.9670149087905884, -0.3615250587463379, -54.946258544921875],
    [-0.03039991296827793, 0.3616745173931122, 1.9667911529541016, -87.13145446777344],
    [0.0, 0.0, 0.0, 1.0]
],
  "dcmmeta_reorient_transform": [
    [0.0, -1.0, 0.0, 95.0],
    [1.0, 0.0, 0.0, 0.0],
    [0.0, 0.0, 1.0, 0.0],
    [0.0, 0.0, 0.0, 1.0]
],
  "dcmmeta_shape": [96, 96, 66, 164],
  "dcmmeta_slice_dim": 2,
  "dcmmeta_version": 0.6,
  "global": {
    "const": {
      "AcquisitionMatrix": [96, 0, 0, 72],
      "AngioFlag": "N",
      "BitsAllocated": 16,
      "BitsStored": 12,
      "BodyPartExamined": "BRAIN",
      "Columns": 864,
      "EchoNumbers": 1,
      "EchoTime": 30.0,
      "EchoTrainLength": 58,
      "FlipAngle": 62.0,
      "HighBit": 11,
      "ImageOrientationPatient": [0.99986546398525, -0.0061656501989, -0.0151999568156, 0.00331569048546, 0.98350744452399, -0.1808372549076],
      "ImagePositionPatient": [-867.55818737456, -882.51865484035, 97.784201465923],
      "ImageType": [
        "ORIGINAL",
        "PRIMARY",
        "M",
        "ND",
        "MOSAIC"
],
      "ImagedNucleus": "1H",
      "ImagingFrequency": 123.259489,
      "InPlanePhaseEncodingDirection": "COL",
      "MRAcquisitionType": "2D",
      "MagneticFieldStrength": 3.0,
      "Manufacturer": "SIEMENS",
      "ManufacturerModelName": "Prisma",
      "Modality": "MR",
      "NumberOfAverages": 1.0,
      "NumberOfPhaseEncodingSteps": 58,
      "PercentPhaseFieldOfView": 100.0,
      "PercentSampling": 75.0,
      "PerformedProcedureStepStartTime": "164451.895000",
      "PhotometricInterpretation": "MONOCHROME2",
      "PixelBandwidth": 2265.0,
      "PixelRepresentation": 0,
      "PixelSpacing": [2.0, 2.0],
      "ProtocolName": "func_vwfate_run14",
      "RepetitionTime": 1500.0,
      "Rows": 864,
      "SAR": 0.04947752061568,
      "SamplesPerPixel": 1,
      "ScanOptions": [
        "PFP",
        "FS"
],
      "ScanningSequence": "EP",
      "SequenceName": "*epfid2d1_72",
      "SequenceVariant": [
        "SK",
        "OSP"
],
      "SeriesDescription": "func_vwfate_run14",
      "SeriesNumber": 9,
      "SeriesTime": "171720.361000",
      "SliceLocation": -77.302423505315,
      "SliceThickness": 2.0,
      "SmallestImagePixelValue": 0,
      "SoftwareVersions": "syngo MR E11",
      "SpacingBetweenSlices": 1.9999999898506,
      "SpecificCharacterSet": "ISO_IR 100",
      "StudyID": "1",
      "StudyTime": "164451.814000",
      "TransmitCoilName": "Body",
      "VariableFlipAngleFlag": "N",
      "WindowCenterWidthExplanation": "Algo1",
      "dBdt": 0.0},
    "slices": {}
  },
  "time": {
    "samples": {
      "AcquisitionNumber": [1, 2, 3, 4, 5, 6, 7, 8, 9, 10, 11, 12, 13, 14, 15, 16, 17, 18, 19, 20, 21, 22, 23, 24, 25, 26, 27, 28, 29, 30, 31, 32, 33, 34, 35, 36, 37, 38, 39, 40, 41, 42, 43, 44, 45, 46, 47, 48, 49, 50, 51, 52, 53, 54, 55, 56, 57, 58, 59, 60, 61, 62, 63, 64, 65, 66, 67, 68, 69, 70, 71, 72, 73, 74, 75, 76, 77, 78, 79, 80, 81, 82, 83, 84, 85, 86, 87, 88, 89, 90, 91, 92, 93, 94, 95, 96, 97, 98, 99, 100, 101, 102, 103, 104, 105, 106, 107, 108, 109, 110, 111, 112, 113, 114, 115, 116, 117, 118, 119, 120, 121, 122, 123, 124, 125, 126, 127, 128, 129, 130, 131, 132, 133, 134, 135, 136, 137, 138, 139, 140, 141, 142, 143, 144, 145, 146, 147, 148, 149, 150, 151, 152, 153, 154, 155, 156, 157, 158, 159, 160, 161, 162, 163, 164],
      "AcquisitionTime": ["171642.770000", "171644.270000", "171645.770000", "171647.270000", "171648.770000", "171650.270000", "171651.770000", "171653.270000", "171654.770000", "171656.270000", "171657.770000", "171659.270000", "171700.770000", "171702.270000", "171703.770000", "171705.270000", "171706.770000", "171708.270000", "171709.770000", "171711.270000", "171712.770000", "171714.270000", "171715.770000", "171717.270000", "171718.770000", "171720.270000", "171721.770000", "171723.270000", "171724.770000", "171726.270000", "171727.770000", "171729.270000", "171730.770000", "171732.270000", "171733.770000", "171735.270000", "171736.770000", "171738.270000", "171739.770000", "171741.270000", "171742.770000", "171744.270000", "171745.770000", "171747.270000", "171748.770000", "171750.270000", "171751.770000", "171753.270000", "171754.770000", "171756.270000", "171757.770000", "171759.270000", "171800.770000", "171802.270000", "171803.770000", "171805.270000", "171806.770000", "171808.270000", "171809.770000", "171811.270000", "171812.770000", "171814.270000", "171815.770000", "171817.270000", "171818.770000", "171820.270000", "171821.770000", "171823.270000", "171824.770000", "171826.270000", "171827.770000", "171829.270000", "171830.770000", "171832.270000", "171833.770000", "171835.270000", "171836.770000", "171838.270000", "171839.770000", "171841.270000", "171842.770000", "171844.270000", "171845.770000", "171847.270000", "171848.770000", "171850.270000", "171851.770000", "171853.270000", "171854.770000", "171856.270000", "171857.770000", "171859.270000", "171900.770000", "171902.270000", "171903.770000", "171905.270000", "171906.770000", "171908.270000", "171909.770000", "171911.270000", "171912.770000", "171914.270000", "171915.770000", "171917.270000", "171918.770000", "171920.270000", "171921.770000", "171923.270000", "171924.770000", "171926.270000", "171927.770000", "171929.270000", "171930.770000", "171932.270000", "171933.770000", "171935.270000", "171936.770000", "171938.270000", "171939.770000", "171941.270000", "171942.770000", "171944.270000", "171945.770000", "171947.270000", "171948.770000", "171950.270000", "171951.770000", "171953.270000", "171954.770000", "171956.270000", "171957.770000", "171959.270000", "172000.770000", "172002.270000", "172003.770000", "172005.270000", "172006.770000", "172008.270000", "172009.770000", "172011.270000", "172012.770000", "172014.270000", "172015.770000", "172017.270000", "172018.770000", "172020.270000", "172021.770000", "172023.270000", "172024.770000", "172026.270000", "172027.770000", "172029.270000", "172030.770000", "172032.270000", "172033.770000", "172035.270000", "172036.770000", "172038.270000", "172039.770000", "172041.270000", "172042.770000", "172044.270000", "172045.770000", "172047.270000"],
      "ContentTime": ["171720.365000", "171720.371000", "171720.381000", "171720.407000", "171720.410000", "171720.413000", "171720.416000", "171720.420000", "171720.423000", "171720.426000", "171720.429000", "171720.432000", "171720.435000", "171720.438000", "171720.441000", "171720.444000", "171720.447000", "171720.450000", "171720.453000", "171720.456000", "171720.468000", "171720.471000", "171720.474000", "171720.477000", "171800.360000", "171800.363000", "171800.373000", "171800.376000", "171800.379000", "171800.382000", "171800.385000", "171800.388000", "171800.391000", "171800.394000", "171800.398000", "171800.401000", "171800.404000", "171800.407000", "171800.410000", "171800.413000", "171800.416000", "171800.420000", "171800.423000", "171800.426000", "171800.429000", "171800.432000", "171800.435000", "171800.438000", "171800.441000", "171800.445000", "171800.448000", "171840.359000", "171840.362000", "171840.366000", "171840.369000", "171840.372000", "171840.375000", "171840.378000", "171840.381000", "171840.384000", "171840.387000", "171840.390000", "171840.393000", "171840.396000", "171840.399000", "171840.402000", "171840.405000", "171840.408000", "171840.412000", "171840.415000", "171840.418000", "171840.421000", "171840.424000", "171840.427000", "171840.430000", "171840.433000", "171840.436000", "171840.439000", "171920.360000", "171920.365000", "171920.369000", "171920.372000", "171920.375000", "171920.378000", "171920.381000", "171920.384000", "171920.388000", "171920.391000", "171920.394000", "171920.397000", "171920.400000", "171920.403000", "171920.406000", "171920.409000", "171920.412000", "171920.415000", "171920.418000", "171920.421000", "171920.424000", "171920.427000", "171920.430000", "171920.433000", "171920.437000", "171920.440000", "172000.360000", "172000.363000", "172000.367000", "172000.370000", "172000.373000", "172000.376000", "172000.379000", "172000.382000", "172000.404000", "172000.407000", "172000.410000", "172000.413000", "172000.416000", "172000.419000", "172000.422000", "172000.425000", "172000.428000", "172000.432000", "172000.435000", "172000.438000", "172000.441000", "172000.444000", "172000.447000", "172000.450000", "172000.453000", "172000.456000", "172000.459000", "172040.359000", "172040.362000", "172040.365000", "172040.369000", "172040.372000", "172040.375000", "172040.378000", "172040.381000", "172040.384000", "172040.387000", "172040.390000", "172040.393000", "172040.396000", "172040.399000", "172040.402000", "172040.405000", "172040.408000", "172040.412000", "172040.415000", "172040.418000", "172040.421000", "172040.424000", "172040.427000", "172040.430000", "172040.433000", "172040.436000", "172040.439000", "172048.865000", "172048.868000", "172048.872000", "172048.875000", "172048.878000", "172048.881000"],
      "InstanceCreationTime": ["171720.365000", "171720.371000", "171720.381000", "171720.407000", "171720.410000", "171720.413000", "171720.416000", "171720.420000", "171720.423000", "171720.426000", "171720.429000", "171720.432000", "171720.435000", "171720.438000", "171720.441000", "171720.444000", "171720.447000", "171720.450000", "171720.453000", "171720.456000", "171720.468000", "171720.471000", "171720.474000", "171720.477000", "171800.360000", "171800.363000", "171800.373000", "171800.376000", "171800.379000", "171800.382000", "171800.385000", "171800.388000", "171800.391000", "171800.394000", "171800.398000", "171800.401000", "171800.404000", "171800.407000", "171800.410000", "171800.413000", "171800.416000", "171800.420000", "171800.423000", "171800.426000", "171800.429000", "171800.432000", "171800.435000", "171800.438000", "171800.441000", "171800.445000", "171800.448000", "171840.359000", "171840.362000", "171840.366000", "171840.369000", "171840.372000", "171840.375000", "171840.378000", "171840.381000", "171840.384000", "171840.387000", "171840.390000", "171840.393000", "171840.396000", "171840.399000", "171840.402000", "171840.405000", "171840.408000", "171840.412000", "171840.415000", "171840.418000", "171840.421000", "171840.424000", "171840.427000", "171840.430000", "171840.433000", "171840.436000", "171840.439000", "171920.360000", "171920.365000", "171920.369000", "171920.372000", "171920.375000", "171920.378000", "171920.381000", "171920.384000", "171920.388000", "171920.391000", "171920.394000", "171920.397000", "171920.400000", "171920.403000", "171920.406000", "171920.409000", "171920.412000", "171920.415000", "171920.418000", "171920.421000", "171920.424000", "171920.427000", "171920.430000", "171920.433000", "171920.437000", "171920.440000", "172000.360000", "172000.363000", "172000.367000", "172000.370000", "172000.373000", "172000.376000", "172000.379000", "172000.382000", "172000.404000", "172000.407000", "172000.410000", "172000.413000", "172000.416000", "172000.419000", "172000.422000", "172000.425000", "172000.428000", "172000.432000", "172000.435000", "172000.438000", "172000.441000", "172000.444000", "172000.447000", "172000.450000", "172000.453000", "172000.456000", "172000.459000", "172040.359000", "172040.362000", "172040.365000", "172040.369000", "172040.372000", "172040.375000", "172040.378000", "172040.381000", "172040.384000", "172040.387000", "172040.390000", "172040.393000", "172040.396000", "172040.399000", "172040.402000", "172040.405000", "172040.408000", "172040.412000", "172040.415000", "172040.418000", "172040.421000", "172040.424000", "172040.427000", "172040.430000", "172040.433000", "172040.436000", "172040.439000", "172048.865000", "172048.868000", "172048.872000", "172048.875000", "172048.878000", "172048.881000"],
      "InstanceNumber": [1, 2, 3, 4, 5, 6, 7, 8, 9, 10, 11, 12, 13, 14, 15, 16, 17, 18, 19, 20, 21, 22, 23, 24, 25, 26, 27, 28, 29, 30, 31, 32, 33, 34, 35, 36, 37, 38, 39, 40, 41, 42, 43, 44, 45, 46, 47, 48, 49, 50, 51, 52, 53, 54, 55, 56, 57, 58, 59, 60, 61, 62, 63, 64, 65, 66, 67, 68, 69, 70, 71, 72, 73, 74, 75, 76, 77, 78, 79, 80, 81, 82, 83, 84, 85, 86, 87, 88, 89, 90, 91, 92, 93, 94, 95, 96, 97, 98, 99, 100, 101, 102, 103, 104, 105, 106, 107, 108, 109, 110, 111, 112, 113, 114, 115, 116, 117, 118, 119, 120, 121, 122, 123, 124, 125, 126, 127, 128, 129, 130, 131, 132, 133, 134, 135, 136, 137, 138, 139, 140, 141, 142, 143, 144, 145, 146, 147, 148, 149, 150, 151, 152, 153, 154, 155, 156, 157, 158, 159, 160, 161, 162, 163, 164],
      "LargestImagePixelValue": [3816, 3822, 3883, 3883, 3850, 3885, 3827, 3835, 3830, 3856, 3853, 3834, 3861, 3753, 3771, 3849, 3730, 3839, 3807, 3854, 3830, 3843, 3838, 3818, 3822, 3827, 3863, 3785, 3808, 3817, 3823, 3792, 3835, 3800, 3828, 3814, 3798, 3856, 3793, 3866, 3845, 3886, 3807, 3887, 3831, 3852, 3766, 3865, 3770, 3897, 3774, 3862, 3756, 3816, 3783, 3807, 3779, 3802, 3770, 3824, 3796, 3716, 3784, 3740, 3757, 3709, 3795, 3728, 3830, 3803, 3842, 3793, 3852, 3825, 3869, 3770, 3818, 3784, 3855, 3806, 3867, 3827, 3917, 3886, 3901, 3919, 3891, 3914, 3763, 3844, 3890, 3892, 3915, 3973, 3918, 3991, 3973, 4025, 3950, 4046, 3935, 3985, 4003, 3955, 3805, 3976, 3948, 3970, 3976, 3982, 4009, 3999, 3975, 4002, 3976, 3977, 4002, 3962, 3928, 3963, 3979, 3972, 3971, 3986, 3980, 3997, 3976, 4003, 3994, 4012, 4038, 3999, 3976, 4003, 3973, 4025, 3996, 4036, 4021, 3973, 3990, 3974, 3978, 3973, 3980, 3977, 3975, 3828, 3964, 3970, 3900, 3993, 3907, 3932, 3907, 3941, 3887, 3995, 3993, 3973, 3960, 3934, 4001, 3932],
      "WindowCenter": [702.0, 700.0, 700.0, 700.0, 700.0, 700.0, 699.0, 700.0, 699.0, 699.0, 700.0, 701.0, 702.0, 701.0, 700.0, 702.0, 701.0, 702.0, 700.0, 700.0, 701.0, 700.0, 700.0, 700.0, 701.0, 701.0, 701.0, 701.0, 700.0, 700.0, 700.0, 700.0, 700.0, 700.0, 700.0, 700.0, 699.0, 699.0, 698.0, 699.0, 699.0, 699.0, 699.0, 700.0, 699.0, 699.0, 699.0, 700.0, 699.0, 699.0, 699.0, 700.0, 699.0, 700.0, 699.0, 699.0, 698.0, 699.0, 699.0, 700.0, 699.0, 698.0, 699.0, 699.0, 699.0, 697.0, 697.0, 697.0, 699.0, 700.0, 700.0, 701.0, 700.0, 700.0, 699.0, 699.0, 699.0, 699.0, 699.0, 700.0, 699.0, 699.0, 698.0, 699.0, 699.0, 699.0, 699.0, 699.0, 698.0, 698.0, 699.0, 699.0, 699.0, 699.0, 699.0, 701.0, 701.0, 701.0, 700.0, 700.0, 699.0, 700.0, 700.0, 700.0, 698.0, 696.0, 698.0, 697.0, 697.0, 696.0, 694.0, 691.0, 692.0, 694.0, 695.0, 693.0, 694.0, 696.0, 697.0, 699.0, 698.0, 696.0, 697.0, 699.0, 700.0, 699.0, 697.0, 697.0, 698.0, 697.0, 698.0, 699.0, 698.0, 699.0, 697.0, 697.0, 697.0, 697.0, 698.0, 698.0, 697.0, 696.0, 696.0, 695.0, 696.0, 696.0, 697.0, 697.0, 698.0, 699.0, 698.0, 698.0, 697.0, 696.0, 698.0, 697.0, 696.0, 697.0, 697.0, 697.0, 697.0, 697.0, 698.0, 698.0],
      "WindowWidth": [1543.0, 1538.0, 1537.0, 1537.0, 1538.0, 1535.0, 1535.0, 1538.0, 1534.0, 1534.0, 1537.0, 1540.0, 1543.0, 1540.0, 1538.0, 1541.0, 1541.0, 1542.0, 1538.0, 1538.0, 1540.0, 1538.0, 1536.0, 1538.0, 1539.0, 1540.0, 1538.0, 1539.0, 1537.0, 1538.0, 1536.0, 1538.0, 1537.0, 1538.0, 1538.0, 1538.0, 1535.0, 1534.0, 1532.0, 1536.0, 1534.0, 1535.0, 1535.0, 1536.0, 1535.0, 1535.0, 1534.0, 1536.0, 1534.0, 1535.0, 1534.0, 1537.0, 1535.0, 1536.0, 1534.0, 1534.0, 1532.0, 1534.0, 1532.0, 1536.0, 1534.0, 1533.0, 1535.0, 1536.0, 1536.0, 1529.0, 1528.0, 1530.0, 1534.0, 1537.0, 1538.0, 1539.0, 1538.0, 1537.0, 1535.0, 1535.0, 1534.0, 1534.0, 1534.0, 1537.0, 1535.0, 1536.0, 1532.0, 1534.0, 1533.0, 1535.0, 1533.0, 1534.0, 1531.0, 1533.0, 1534.0, 1535.0, 1534.0, 1534.0, 1535.0, 1539.0, 1540.0, 1541.0, 1538.0, 1539.0, 1536.0, 1537.0, 1537.0, 1537.0, 1532.0, 1528.0, 1531.0, 1530.0, 1529.0, 1526.0, 1519.0, 1513.0, 1515.0, 1521.0, 1524.0, 1518.0, 1521.0, 1527.0, 1530.0, 1534.0, 1531.0, 1527.0, 1530.0, 1536.0, 1537.0, 1534.0, 1530.0, 1530.0, 1533.0, 1528.0, 1532.0, 1535.0, 1532.0, 1535.0, 1530.0, 1531.0, 1530.0, 1528.0, 1533.0, 1533.0, 1529.0, 1527.0, 1526.0, 1524.0, 1528.0, 1527.0, 1530.0, 1529.0, 1533.0, 1535.0, 1531.0, 1531.0, 1528.0, 1528.0, 1531.0, 1531.0, 1527.0, 1529.0, 1530.0, 1529.0, 1529.0, 1530.0, 1533.0, 1531.0]
    },
    "slices": {}
  }
}