{
  "AcquisitionMatrixPE": 72,
  "AcquisitionNumber": 1,
  "AcquisitionTime": "17:38:8.230000",
  "BandwidthPerPixelPhaseEncode": 17.943,
  "BaseResolution": 96,
  "BodyPartExamined": "BRAIN",
  "CoilCombinationMethod": "Sum of Squares",
  "ConsistencyInfo": "N4_VE11C_LATEST_20160120",
  "ConversionSoftware": "dcm2niix",
  "ConversionSoftwareVersion": "v1.0.20211006",
  "DerivedVendorReportedEchoSpacing": 0.000552897,
  "DeviceSerialNumber": "166011",
  "EchoTime": 0.03,
  "EchoTrainLength": 58,
  "EffectiveEchoSpacing": 0.000580542,
  "FlipAngle": 62,
  "ImageOrientationPatientDICOM": [0.99644, -0.0588836, -0.060336, 0.054663, 0.996093, -0.0693641],
  "ImageType": [
    "ORIGINAL",
    "PRIMARY",
    "M",
    "ND",
    "MOSAIC"
],
  "ImagingFrequency": 123.259,
  "InPlanePhaseEncodingDirectionDICOM": "COL",
  "InstitutionAddress": "West 130th Street 610,NY,NYC,US,10025",
  "InstitutionName": "MBBI",
  "MRAcquisitionType": "2D",
  "MagneticFieldStrength": 3,
  "Manufacturer": "Siemens",
  "ManufacturersModelName": "Prisma",
  "Modality": "MR",
  "MultibandAccelerationFactor": 3,
  "PartialFourier": 0.75,
  "PatientPosition": "HFS",
  "PercentPhaseFOV": 100,
  "PercentSampling": 75,
  "PhaseEncodingDirection": "j-",
  "PhaseEncodingSteps": 58,
  "PhaseOversampling": 0.05,
  "PhaseResolution": 0.75,
  "PixelBandwidth": 2265,
  "ProcedureStepDescription": "White^Word_recognition",
  "ProtocolName": "func_vwfate_run11",
  "PulseSequenceDetails": "%SiemensSeq%\\ep2d_bold",
  "ReceiveCoilActiveElements": "HC1-7",
  "ReceiveCoilName": "HeadNeck_64",
  "ReconMatrixPE": 96,
  "RefLinesPE": 40,
  "RepetitionTime": 1.5,
  "SAR": 0.0494343,
  "ScanOptions": "PFP\\FS",
  "ScanningSequence": "EP",
  "SequenceName": "*epfid2d1_72",
  "SequenceVariant": "SK\\OSP",
  "SeriesDescription": "func_vwfate_run11",
  "SeriesNumber": 14,
  "ShimSetting": [-1156, -1381, 712, 635, -68, -19, -69, 19],
  "SliceThickness": 2,
  "SliceTiming": [1.075, 0, 0.74, 0.0675, 0.8075, 0.135, 0.8725, 0.2, 0.94, 0.2675, 1.0075, 0.4025, 1.1425, 0.47, 1.21, 0.5375, 1.2775, 0.605, 1.345, 0.6725, 1.4125, 0.335, 1.075, 0, 0.74, 0.0675, 0.8075, 0.135, 0.8725, 0.2, 0.94, 0.2675, 1.0075, 0.4025, 1.1425, 0.47, 1.21, 0.5375, 1.2775, 0.605, 1.345, 0.6725, 1.4125, 0.335, 1.075, 0, 0.74, 0.0675, 0.8075, 0.135, 0.8725, 0.2, 0.94, 0.2675, 1.0075, 0.4025, 1.1425, 0.47, 1.21, 0.5375, 1.2775, 0.605, 1.345, 0.6725, 1.4125, 0.335],
  "SoftwareVersions": "syngo MR E11",
  "SpacingBetweenSlices": 2,
  "StationName": "AWP166011",
  "TaskName": "vwfate",
  "TotalReadoutTime": 0.0551515,
  "TxRefAmp": 213.598,
  "dcmmeta_affine": [
    [-1.9928796291351318, 0.10932596027851105, -0.12836939096450806, 98.06938934326172],
    [0.11776719987392426, 1.992185354232788, -0.13163793087005615, -63.14653396606445],
    [-0.1206720843911171, 0.13872812688350677, 1.991530179977417, -55.11629104614258],
    [0.0, 0.0, 0.0, 1.0]
],
  "dcmmeta_reorient_transform": [
    [0.0, -1.0, 0.0, 95.0],
    [1.0, 0.0, 0.0, 0.0],
    [0.0, 0.0, 1.0, 0.0],
    [0.0, 0.0, 0.0, 1.0]
],
  "dcmmeta_shape": [96, 96, 66, 164],
  "dcmmeta_slice_dim": 2,
  "dcmmeta_version": 0.6,
  "global": {
    "const": {
      "AcquisitionMatrix": [96, 0, 0, 72],
      "AngioFlag": "N",
      "BitsAllocated": 16,
      "BitsStored": 12,
      "BodyPartExamined": "BRAIN",
      "Columns": 864,
      "EchoNumbers": 1,
      "EchoTime": 30.0,
      "EchoTrainLength": 58,
      "FlipAngle": 62.0,
      "HighBit": 11,
      "ImageOrientationPatient": [0.99643980425988, -0.0588836014618, -0.06033604201, 0.05466298085878, 0.99609265878761, -0.0693640658632],
      "ImagePositionPatient": [-915.70229536383, -845.88762546845, 57.672564650156],
      "ImageType": [
        "ORIGINAL",
        "PRIMARY",
        "M",
        "ND",
        "MOSAIC"
],
      "ImagedNucleus": "1H",
      "ImagingFrequency": 123.259488,
      "InPlanePhaseEncodingDirection": "COL",
      "MRAcquisitionType": "2D",
      "MagneticFieldStrength": 3.0,
      "Manufacturer": "SIEMENS",
      "ManufacturerModelName": "Prisma",
      "Modality": "MR",
      "NumberOfAverages": 1.0,
      "NumberOfPhaseEncodingSteps": 58,
      "PercentPhaseFieldOfView": 100.0,
      "PercentSampling": 75.0,
      "PerformedProcedureStepStartTime": "164022.172000",
      "PhotometricInterpretation": "MONOCHROME2",
      "PixelBandwidth": 2265.0,
      "PixelRepresentation": 0,
      "PixelSpacing": [2.0, 2.0],
      "ProtocolName": "func_vwfate_run11",
      "RepetitionTime": 1500.0,
      "Rows": 864,
      "SAR": 0.04943426579907,
      "SamplesPerPixel": 1,
      "ScanOptions": [
        "PFP",
        "FS"
],
      "ScanningSequence": "EP",
      "SequenceName": "*epfid2d1_72",
      "SequenceVariant": [
        "SK",
        "OSP"
],
      "SeriesDescription": "func_vwfate_run11",
      "SeriesNumber": 14,
      "SeriesTime": "173856.960000",
      "SliceLocation": -57.021194233065,
      "SliceThickness": 2.0,
      "SmallestImagePixelValue": 0,
      "SoftwareVersions": "syngo MR E11",
      "SpacingBetweenSlices": 1.99999994345,
      "SpecificCharacterSet": "ISO_IR 100",
      "StudyID": "2",
      "StudyTime": "164022.130000",
      "TransmitCoilName": "Body",
      "VariableFlipAngleFlag": "N",
      "WindowCenterWidthExplanation": "Algo1",
      "dBdt": 0.0},
    "slices": {}
  },
  "time": {
    "samples": {
      "AcquisitionNumber": [1, 2, 3, 4, 5, 6, 7, 8, 9, 10, 11, 12, 13, 14, 15, 16, 17, 18, 19, 20, 21, 22, 23, 24, 25, 26, 27, 28, 29, 30, 31, 32, 33, 34, 35, 36, 37, 38, 39, 40, 41, 42, 43, 44, 45, 46, 47, 48, 49, 50, 51, 52, 53, 54, 55, 56, 57, 58, 59, 60, 61, 62, 63, 64, 65, 66, 67, 68, 69, 70, 71, 72, 73, 74, 75, 76, 77, 78, 79, 80, 81, 82, 83, 84, 85, 86, 87, 88, 89, 90, 91, 92, 93, 94, 95, 96, 97, 98, 99, 100, 101, 102, 103, 104, 105, 106, 107, 108, 109, 110, 111, 112, 113, 114, 115, 116, 117, 118, 119, 120, 121, 122, 123, 124, 125, 126, 127, 128, 129, 130, 131, 132, 133, 134, 135, 136, 137, 138, 139, 140, 141, 142, 143, 144, 145, 146, 147, 148, 149, 150, 151, 152, 153, 154, 155, 156, 157, 158, 159, 160, 161, 162, 163, 164],
      "AcquisitionTime": ["173808.230000", "173809.730000", "173811.230000", "173812.730000", "173814.230000", "173815.730000", "173817.230000", "173818.730000", "173820.230000", "173821.730000", "173823.230000", "173824.730000", "173826.230000", "173827.730000", "173829.230000", "173830.730000", "173832.230000", "173833.730000", "173835.230000", "173836.730000", "173838.230000", "173839.730000", "173841.230000", "173842.730000", "173844.230000", "173845.730000", "173847.230000", "173848.730000", "173850.230000", "173851.730000", "173853.230000", "173854.730000", "173856.230000", "173857.730000", "173859.230000", "173900.730000", "173902.230000", "173903.730000", "173905.230000", "173906.730000", "173908.230000", "173909.730000", "173911.230000", "173912.730000", "173914.230000", "173915.730000", "173917.230000", "173918.730000", "173920.230000", "173921.730000", "173923.230000", "173924.730000", "173926.230000", "173927.730000", "173929.230000", "173930.730000", "173932.230000", "173933.730000", "173935.230000", "173936.730000", "173938.230000", "173939.730000", "173941.230000", "173942.730000", "173944.230000", "173945.730000", "173947.230000", "173948.730000", "173950.230000", "173951.730000", "173953.230000", "173954.730000", "173956.230000", "173957.730000", "173959.230000", "174000.730000", "174002.230000", "174003.730000", "174005.230000", "174006.730000", "174008.230000", "174009.730000", "174011.230000", "174012.730000", "174014.230000", "174015.730000", "174017.230000", "174018.730000", "174020.230000", "174021.730000", "174023.230000", "174024.730000", "174026.230000", "174027.730000", "174029.230000", "174030.730000", "174032.230000", "174033.730000", "174035.230000", "174036.730000", "174038.230000", "174039.730000", "174041.230000", "174042.730000", "174044.230000", "174045.730000", "174047.230000", "174048.730000", "174050.230000", "174051.730000", "174053.230000", "174054.730000", "174056.230000", "174057.730000", "174059.230000", "174100.730000", "174102.230000", "174103.730000", "174105.230000", "174106.730000", "174108.230000", "174109.730000", "174111.230000", "174112.730000", "174114.230000", "174115.730000", "174117.230000", "174118.730000", "174120.230000", "174121.730000", "174123.230000", "174124.730000", "174126.230000", "174127.730000", "174129.230000", "174130.730000", "174132.230000", "174133.730000", "174135.230000", "174136.730000", "174138.230000", "174139.730000", "174141.230000", "174142.730000", "174144.230000", "174145.730000", "174147.230000", "174148.730000", "174150.230000", "174151.730000", "174153.230000", "174154.730000", "174156.230000", "174157.730000", "174159.230000", "174200.730000", "174202.230000", "174203.730000", "174205.230000", "174206.730000", "174208.230000", "174209.730000", "174211.230000", "174212.730000"],
      "ContentTime": ["173856.964000", "173856.968000", "173856.971000", "173856.982000", "173856.985000", "173856.988000", "173856.991000", "173856.994000", "173856.997000", "173857.001000", "173857.004000", "173857.008000", "173857.011000", "173857.017000", "173857.020000", "173857.023000", "173857.026000", "173857.029000", "173857.032000", "173857.035000", "173857.038000", "173857.042000", "173857.045000", "173857.048000", "173857.051000", "173857.054000", "173857.058000", "173857.061000", "173857.064000", "173857.067000", "173857.070000", "173857.073000", "173916.958000", "173916.961000", "173916.964000", "173916.968000", "173916.971000", "173916.974000", "173916.977000", "173916.980000", "173916.983000", "173916.986000", "173916.989000", "173916.992000", "173916.997000", "173917.001000", "173956.959000", "173956.962000", "173956.965000", "173956.968000", "173956.971000", "173956.975000", "173956.978000", "173956.981000", "173956.984000", "173956.987000", "173956.990000", "173956.993000", "173956.996000", "173957.000000", "173957.003000", "173957.006000", "173957.028000", "173957.031000", "173957.034000", "173957.037000", "173957.040000", "173957.043000", "173957.047000", "173957.050000", "173957.053000", "173957.056000", "174036.959000", "174036.962000", "174036.965000", "174036.968000", "174036.972000", "174036.975000", "174036.978000", "174036.981000", "174036.984000", "174036.987000", "174036.990000", "174036.993000", "174036.996000", "174037.000000", "174037.003000", "174037.006000", "174037.009000", "174037.013000", "174037.016000", "174037.019000", "174037.022000", "174037.025000", "174037.028000", "174037.031000", "174037.034000", "174037.037000", "174037.040000", "174116.959000", "174116.962000", "174116.965000", "174116.969000", "174116.972000", "174116.975000", "174116.978000", "174116.981000", "174116.984000", "174116.987000", "174116.990000", "174116.993000", "174116.996000", "174117.000000", "174117.003000", "174117.007000", "174117.010000", "174117.013000", "174117.016000", "174117.019000", "174117.022000", "174117.025000", "174117.028000", "174117.031000", "174117.034000", "174117.037000", "174117.040000", "174156.959000", "174156.962000", "174156.965000", "174156.968000", "174156.972000", "174156.975000", "174156.978000", "174156.981000", "174156.984000", "174156.987000", "174156.990000", "174156.993000", "174156.996000", "174157.001000", "174157.004000", "174157.007000", "174157.010000", "174157.013000", "174157.016000", "174157.019000", "174157.022000", "174157.025000", "174157.028000", "174157.031000", "174157.035000", "174157.038000", "174213.868000", "174213.872000", "174213.875000", "174213.878000", "174213.881000", "174213.885000", "174213.888000", "174213.891000", "174213.894000", "174213.898000", "174213.901000", "174213.904000"],
      "InstanceCreationTime": ["173856.964000", "173856.968000", "173856.971000", "173856.982000", "173856.985000", "173856.988000", "173856.991000", "173856.994000", "173856.997000", "173857.001000", "173857.004000", "173857.008000", "173857.011000", "173857.017000", "173857.020000", "173857.023000", "173857.026000", "173857.029000", "173857.032000", "173857.035000", "173857.038000", "173857.042000", "173857.045000", "173857.048000", "173857.051000", "173857.054000", "173857.058000", "173857.061000", "173857.064000", "173857.067000", "173857.070000", "173857.073000", "173916.958000", "173916.961000", "173916.964000", "173916.968000", "173916.971000", "173916.974000", "173916.977000", "173916.980000", "173916.983000", "173916.986000", "173916.989000", "173916.992000", "173916.997000", "173917.001000", "173956.959000", "173956.962000", "173956.965000", "173956.968000", "173956.971000", "173956.975000", "173956.978000", "173956.981000", "173956.984000", "173956.987000", "173956.990000", "173956.993000", "173956.996000", "173957.000000", "173957.003000", "173957.006000", "173957.028000", "173957.031000", "173957.034000", "173957.037000", "173957.040000", "173957.043000", "173957.047000", "173957.050000", "173957.053000", "173957.056000", "174036.959000", "174036.962000", "174036.965000", "174036.968000", "174036.972000", "174036.975000", "174036.978000", "174036.981000", "174036.984000", "174036.987000", "174036.990000", "174036.993000", "174036.996000", "174037.000000", "174037.003000", "174037.006000", "174037.009000", "174037.013000", "174037.016000", "174037.019000", "174037.022000", "174037.025000", "174037.028000", "174037.031000", "174037.034000", "174037.037000", "174037.040000", "174116.959000", "174116.962000", "174116.965000", "174116.969000", "174116.972000", "174116.975000", "174116.978000", "174116.981000", "174116.984000", "174116.987000", "174116.990000", "174116.993000", "174116.996000", "174117.000000", "174117.003000", "174117.007000", "174117.010000", "174117.013000", "174117.016000", "174117.019000", "174117.022000", "174117.025000", "174117.028000", "174117.031000", "174117.034000", "174117.037000", "174117.040000", "174156.959000", "174156.962000", "174156.965000", "174156.968000", "174156.972000", "174156.975000", "174156.978000", "174156.981000", "174156.984000", "174156.987000", "174156.990000", "174156.993000", "174156.996000", "174157.001000", "174157.004000", "174157.007000", "174157.010000", "174157.013000", "174157.016000", "174157.019000", "174157.022000", "174157.025000", "174157.028000", "174157.031000", "174157.035000", "174157.038000", "174213.868000", "174213.872000", "174213.875000", "174213.878000", "174213.881000", "174213.885000", "174213.888000", "174213.891000", "174213.894000", "174213.898000", "174213.901000", "174213.904000"],
      "InstanceNumber": [1, 2, 3, 4, 5, 6, 7, 8, 9, 10, 11, 12, 13, 14, 15, 16, 17, 18, 19, 20, 21, 22, 23, 24, 25, 26, 27, 28, 29, 30, 31, 32, 33, 34, 35, 36, 37, 38, 39, 40, 41, 42, 43, 44, 45, 46, 47, 48, 49, 50, 51, 52, 53, 54, 55, 56, 57, 58, 59, 60, 61, 62, 63, 64, 65, 66, 67, 68, 69, 70, 71, 72, 73, 74, 75, 76, 77, 78, 79, 80, 81, 82, 83, 84, 85, 86, 87, 88, 89, 90, 91, 92, 93, 94, 95, 96, 97, 98, 99, 100, 101, 102, 103, 104, 105, 106, 107, 108, 109, 110, 111, 112, 113, 114, 115, 116, 117, 118, 119, 120, 121, 122, 123, 124, 125, 126, 127, 128, 129, 130, 131, 132, 133, 134, 135, 136, 137, 138, 139, 140, 141, 142, 143, 144, 145, 146, 147, 148, 149, 150, 151, 152, 153, 154, 155, 156, 157, 158, 159, 160, 161, 162, 163, 164],
      "LargestImagePixelValue": [2934, 2939, 2862, 2858, 2865, 2899, 2849, 2881, 2856, 2868, 2919, 2853, 2836, 2841, 2833, 2863, 2885, 2843, 2846, 2933, 2918, 2935, 2868, 2843, 2819, 2859, 2893, 2886, 2912, 2917, 2888, 2928, 2884, 2893, 2899, 2882, 2909, 2868, 2908, 2856, 2932, 2922, 2876, 2970, 2893, 2900, 2918, 2861, 2865, 2886, 2848, 2926, 2840, 2935, 2841, 2862, 2882, 2812, 2884, 2900, 2823, 2928, 2799, 2790, 2821, 2755, 2815, 2732, 2894, 2893, 2808, 2815, 2786, 2840, 2749, 2807, 2842, 2746, 2838, 2811, 2779, 2807, 2791, 2782, 2833, 2769, 2799, 2825, 2841, 2783, 2846, 2861, 2779, 2766, 2759, 2830, 2706, 2787, 2687, 2715, 2742, 2753, 2713, 2717, 2693, 2697, 2711, 2713, 2722, 2693, 2735, 2710, 2720, 2750, 2749, 2788, 2722, 2740, 2715, 2718, 2712, 2717, 2711, 2813, 2767, 2739, 2736, 2722, 2747, 2762, 2765, 2743, 2723, 2740, 2692, 2705, 2850, 2824, 2871, 2790, 2737, 2859, 2813, 2798, 2803, 2717, 2829, 2684, 2845, 2798, 2762, 2780, 2796, 2761, 2769, 2738, 2767, 2760, 2762, 2799, 2784, 2831, 2781, 2852],
      "WindowCenter": [732.0, 731.0, 730.0, 731.0, 731.0, 730.0, 729.0, 728.0, 729.0, 729.0, 729.0, 728.0, 728.0, 728.0, 729.0, 730.0, 732.0, 731.0, 731.0, 731.0, 730.0, 728.0, 727.0, 726.0, 726.0, 728.0, 729.0, 730.0, 731.0, 731.0, 730.0, 730.0, 730.0, 731.0, 730.0, 729.0, 729.0, 729.0, 729.0, 730.0, 732.0, 732.0, 731.0, 731.0, 730.0, 729.0, 729.0, 730.0, 729.0, 729.0, 728.0, 728.0, 728.0, 729.0, 728.0, 729.0, 730.0, 731.0, 733.0, 732.0, 731.0, 729.0, 728.0, 728.0, 728.0, 728.0, 728.0, 727.0, 728.0, 728.0, 727.0, 727.0, 728.0, 729.0, 729.0, 729.0, 729.0, 729.0, 729.0, 729.0, 728.0, 728.0, 727.0, 727.0, 728.0, 728.0, 729.0, 728.0, 728.0, 727.0, 728.0, 729.0, 730.0, 730.0, 731.0, 730.0, 729.0, 729.0, 727.0, 727.0, 726.0, 725.0, 723.0, 722.0, 722.0, 722.0, 724.0, 725.0, 726.0, 727.0, 729.0, 731.0, 732.0, 732.0, 731.0, 731.0, 730.0, 729.0, 728.0, 728.0, 728.0, 728.0, 729.0, 730.0, 729.0, 729.0, 729.0, 730.0, 730.0, 731.0, 730.0, 729.0, 728.0, 728.0, 728.0, 729.0, 731.0, 730.0, 731.0, 730.0, 729.0, 730.0, 728.0, 727.0, 727.0, 726.0, 727.0, 725.0, 728.0, 727.0, 727.0, 726.0, 724.0, 726.0, 727.0, 727.0, 727.0, 727.0, 726.0, 726.0, 727.0, 728.0, 729.0, 729.0],
      "WindowWidth": [1580.0, 1576.0, 1574.0, 1575.0, 1575.0, 1572.0, 1569.0, 1568.0, 1569.0, 1570.0, 1571.0, 1568.0, 1568.0, 1567.0, 1570.0, 1572.0, 1577.0, 1577.0, 1575.0, 1575.0, 1571.0, 1568.0, 1563.0, 1562.0, 1563.0, 1566.0, 1571.0, 1573.0, 1574.0, 1574.0, 1573.0, 1574.0, 1573.0, 1574.0, 1572.0, 1570.0, 1570.0, 1569.0, 1570.0, 1573.0, 1578.0, 1579.0, 1576.0, 1575.0, 1572.0, 1571.0, 1571.0, 1571.0, 1570.0, 1569.0, 1566.0, 1568.0, 1567.0, 1569.0, 1568.0, 1569.0, 1572.0, 1576.0, 1580.0, 1578.0, 1574.0, 1571.0, 1567.0, 1567.0, 1568.0, 1567.0, 1567.0, 1566.0, 1568.0, 1567.0, 1564.0, 1565.0, 1566.0, 1570.0, 1569.0, 1569.0, 1569.0, 1568.0, 1569.0, 1568.0, 1566.0, 1565.0, 1565.0, 1565.0, 1567.0, 1567.0, 1569.0, 1568.0, 1568.0, 1565.0, 1566.0, 1570.0, 1572.0, 1573.0, 1574.0, 1573.0, 1570.0, 1570.0, 1565.0, 1564.0, 1563.0, 1559.0, 1553.0, 1550.0, 1550.0, 1552.0, 1555.0, 1558.0, 1562.0, 1565.0, 1571.0, 1575.0, 1577.0, 1578.0, 1576.0, 1574.0, 1572.0, 1570.0, 1568.0, 1568.0, 1566.0, 1568.0, 1569.0, 1574.0, 1572.0, 1570.0, 1569.0, 1572.0, 1574.0, 1574.0, 1573.0, 1570.0, 1568.0, 1567.0, 1568.0, 1572.0, 1576.0, 1576.0, 1577.0, 1575.0, 1572.0, 1572.0, 1569.0, 1565.0, 1564.0, 1561.0, 1565.0, 1559.0, 1568.0, 1565.0, 1564.0, 1563.0, 1557.0, 1563.0, 1564.0, 1564.0, 1565.0, 1564.0, 1561.0, 1561.0, 1564.0, 1568.0, 1569.0, 1571.0]
    },
    "slices": {}
  }
}