{
  "AcquisitionMatrixPE": 72,
  "AcquisitionNumber": 1,
  "AcquisitionTime": "17:18:34.977500",
  "BandwidthPerPixelPhaseEncode": 17.943,
  "BaseResolution": 96,
  "BodyPartExamined": "BRAIN",
  "CoilCombinationMethod": "Sum of Squares",
  "ConsistencyInfo": "N4_VE11C_LATEST_20160120",
  "ConversionSoftware": "dcm2niix",
  "ConversionSoftwareVersion": "v1.0.20211006",
  "DerivedVendorReportedEchoSpacing": 0.000552897,
  "DeviceSerialNumber": "166011",
  "EchoTime": 0.03,
  "EchoTrainLength": 58,
  "EffectiveEchoSpacing": 0.000580542,
  "FlipAngle": 62,
  "ImageOrientationPatientDICOM": [0.99644, -0.0588836, -0.060336, 0.054663, 0.996093, -0.0693641],
  "ImageType": [
    "ORIGINAL",
    "PRIMARY",
    "M",
    "ND",
    "MOSAIC"
],
  "ImagingFrequency": 123.259,
  "InPlanePhaseEncodingDirectionDICOM": "COL",
  "InstitutionAddress": "West 130th Street 610,NY,NYC,US,10025",
  "InstitutionName": "MBBI",
  "MRAcquisitionType": "2D",
  "MagneticFieldStrength": 3,
  "Manufacturer": "Siemens",
  "ManufacturersModelName": "Prisma",
  "Modality": "MR",
  "MultibandAccelerationFactor": 3,
  "PartialFourier": 0.75,
  "PatientPosition": "HFS",
  "PercentPhaseFOV": 100,
  "PercentSampling": 75,
  "PhaseEncodingDirection": "j-",
  "PhaseEncodingSteps": 58,
  "PhaseOversampling": 0.05,
  "PhaseResolution": 0.75,
  "PixelBandwidth": 2265,
  "ProcedureStepDescription": "White^Word_recognition",
  "ProtocolName": "func_vwfate_run9",
  "PulseSequenceDetails": "%SiemensSeq%\\ep2d_bold",
  "ReceiveCoilActiveElements": "HC1-7",
  "ReceiveCoilName": "HeadNeck_64",
  "ReconMatrixPE": 96,
  "RefLinesPE": 40,
  "RepetitionTime": 1.5,
  "SAR": 0.0494343,
  "ScanOptions": "PFP\\FS",
  "ScanningSequence": "EP",
  "SequenceName": "*epfid2d1_72",
  "SequenceVariant": "SK\\OSP",
  "SeriesDescription": "func_vwfate_run9",
  "SeriesNumber": 11,
  "ShimSetting": [-1156, -1381, 712, 635, -68, -19, -69, 19],
  "SliceThickness": 2,
  "SliceTiming": [1.0775, 0, 0.74, 0.0675, 0.8075, 0.135, 0.875, 0.2025, 0.9425, 0.27, 1.01, 0.405, 1.145, 0.4725, 1.2125, 0.54, 1.28, 0.6075, 1.3475, 0.675, 1.415, 0.3375, 1.0775, 0, 0.74, 0.0675, 0.8075, 0.135, 0.875, 0.2025, 0.9425, 0.27, 1.01, 0.405, 1.145, 0.4725, 1.2125, 0.54, 1.28, 0.6075, 1.3475, 0.675, 1.415, 0.3375, 1.0775, 0, 0.74, 0.0675, 0.8075, 0.135, 0.875, 0.2025, 0.9425, 0.27, 1.01, 0.405, 1.145, 0.4725, 1.2125, 0.54, 1.28, 0.6075, 1.3475, 0.675, 1.415, 0.3375],
  "SoftwareVersions": "syngo MR E11",
  "SpacingBetweenSlices": 2,
  "StationName": "AWP166011",
  "TaskName": "vwfate",
  "TotalReadoutTime": 0.0551515,
  "TxRefAmp": 213.598,
  "dcmmeta_affine": [
    [-1.9928796291351318, 0.10932596027851105, -0.12836939096450806, 98.06938934326172],
    [0.11776719987392426, 1.992185354232788, -0.13163793087005615, -63.14653396606445],
    [-0.1206720843911171, 0.13872812688350677, 1.991530179977417, -55.11629104614258],
    [0.0, 0.0, 0.0, 1.0]
],
  "dcmmeta_reorient_transform": [
    [0.0, -1.0, 0.0, 95.0],
    [1.0, 0.0, 0.0, 0.0],
    [0.0, 0.0, 1.0, 0.0],
    [0.0, 0.0, 0.0, 1.0]
],
  "dcmmeta_shape": [96, 96, 66, 164],
  "dcmmeta_slice_dim": 2,
  "dcmmeta_version": 0.6,
  "global": {
    "const": {
      "AcquisitionMatrix": [96, 0, 0, 72],
      "AngioFlag": "N",
      "BitsAllocated": 16,
      "BitsStored": 12,
      "BodyPartExamined": "BRAIN",
      "Columns": 864,
      "EchoNumbers": 1,
      "EchoTime": 30.0,
      "EchoTrainLength": 58,
      "FlipAngle": 62.0,
      "HighBit": 11,
      "ImageOrientationPatient": [0.99643980425988, -0.0588836014618, -0.06033604201, 0.05466298085878, 0.99609265878761, -0.0693640658632],
      "ImagePositionPatient": [-915.70229536383, -845.88762546845, 57.672564650156],
      "ImageType": [
        "ORIGINAL",
        "PRIMARY",
        "M",
        "ND",
        "MOSAIC"
],
      "ImagedNucleus": "1H",
      "ImagingFrequency": 123.259482,
      "InPlanePhaseEncodingDirection": "COL",
      "MRAcquisitionType": "2D",
      "MagneticFieldStrength": 3.0,
      "Manufacturer": "SIEMENS",
      "ManufacturerModelName": "Prisma",
      "Modality": "MR",
      "NumberOfAverages": 1.0,
      "NumberOfPhaseEncodingSteps": 58,
      "PercentPhaseFieldOfView": 100.0,
      "PercentSampling": 75.0,
      "PerformedProcedureStepStartTime": "164022.172000",
      "PhotometricInterpretation": "MONOCHROME2",
      "PixelBandwidth": 2265.0,
      "PixelRepresentation": 0,
      "PixelSpacing": [2.0, 2.0],
      "ProtocolName": "func_vwfate_run9",
      "RepetitionTime": 1500.0,
      "Rows": 864,
      "SAR": 0.04943426579907,
      "SamplesPerPixel": 1,
      "ScanOptions": [
        "PFP",
        "FS"
],
      "ScanningSequence": "EP",
      "SequenceName": "*epfid2d1_72",
      "SequenceVariant": [
        "SK",
        "OSP"
],
      "SeriesDescription": "func_vwfate_run9",
      "SeriesNumber": 11,
      "SeriesTime": "171916.960000",
      "SliceLocation": -57.021194233065,
      "SliceThickness": 2.0,
      "SmallestImagePixelValue": 0,
      "SoftwareVersions": "syngo MR E11",
      "SpacingBetweenSlices": 1.99999994345,
      "SpecificCharacterSet": "ISO_IR 100",
      "StudyID": "2",
      "StudyTime": "164022.130000",
      "TransmitCoilName": "Body",
      "VariableFlipAngleFlag": "N",
      "WindowCenterWidthExplanation": "Algo1",
      "dBdt": 0.0},
    "slices": {}
  },
  "time": {
    "samples": {
      "AcquisitionNumber": [1, 2, 3, 4, 5, 6, 7, 8, 9, 10, 11, 12, 13, 14, 15, 16, 17, 18, 19, 20, 21, 22, 23, 24, 25, 26, 27, 28, 29, 30, 31, 32, 33, 34, 35, 36, 37, 38, 39, 40, 41, 42, 43, 44, 45, 46, 47, 48, 49, 50, 51, 52, 53, 54, 55, 56, 57, 58, 59, 60, 61, 62, 63, 64, 65, 66, 67, 68, 69, 70, 71, 72, 73, 74, 75, 76, 77, 78, 79, 80, 81, 82, 83, 84, 85, 86, 87, 88, 89, 90, 91, 92, 93, 94, 95, 96, 97, 98, 99, 100, 101, 102, 103, 104, 105, 106, 107, 108, 109, 110, 111, 112, 113, 114, 115, 116, 117, 118, 119, 120, 121, 122, 123, 124, 125, 126, 127, 128, 129, 130, 131, 132, 133, 134, 135, 136, 137, 138, 139, 140, 141, 142, 143, 144, 145, 146, 147, 148, 149, 150, 151, 152, 153, 154, 155, 156, 157, 158, 159, 160, 161, 162, 163, 164],
      "AcquisitionTime": ["171834.977500", "171836.477500", "171837.977500", "171839.477500", "171840.977500", "171842.477500", "171843.977500", "171845.477500", "171846.977500", "171848.477500", "171849.977500", "171851.477500", "171852.977500", "171854.477500", "171855.977500", "171857.477500", "171858.977500", "171900.477500", "171901.977500", "171903.477500", "171904.977500", "171906.477500", "171907.977500", "171909.477500", "171910.977500", "171912.477500", "171913.977500", "171915.477500", "171916.977500", "171918.477500", "171919.977500", "171921.477500", "171922.977500", "171924.477500", "171925.977500", "171927.477500", "171928.977500", "171930.477500", "171931.977500", "171933.477500", "171934.977500", "171936.477500", "171937.977500", "171939.477500", "171940.977500", "171942.477500", "171943.977500", "171945.477500", "171946.977500", "171948.477500", "171949.977500", "171951.477500", "171952.977500", "171954.477500", "171955.977500", "171957.477500", "171958.977500", "172000.477500", "172001.977500", "172003.477500", "172004.977500", "172006.477500", "172007.977500", "172009.477500", "172010.977500", "172012.477500", "172013.977500", "172015.477500", "172016.977500", "172018.477500", "172019.977500", "172021.477500", "172022.977500", "172024.477500", "172025.977500", "172027.477500", "172028.977500", "172030.477500", "172031.977500", "172033.477500", "172034.977500", "172036.477500", "172037.977500", "172039.477500", "172040.977500", "172042.477500", "172043.977500", "172045.477500", "172046.977500", "172048.477500", "172049.977500", "172051.477500", "172052.977500", "172054.477500", "172055.977500", "172057.477500", "172058.977500", "172100.477500", "172101.977500", "172103.477500", "172104.977500", "172106.477500", "172107.977500", "172109.477500", "172110.977500", "172112.477500", "172113.977500", "172115.477500", "172116.977500", "172118.477500", "172119.977500", "172121.477500", "172122.977500", "172124.477500", "172125.977500", "172127.477500", "172128.977500", "172130.477500", "172131.977500", "172133.477500", "172134.977500", "172136.477500", "172137.977500", "172139.477500", "172140.977500", "172142.477500", "172143.977500", "172145.477500", "172146.977500", "172148.477500", "172149.977500", "172151.477500", "172152.977500", "172154.477500", "172155.977500", "172157.477500", "172158.977500", "172200.477500", "172201.977500", "172203.477500", "172204.977500", "172206.477500", "172207.977500", "172209.477500", "172210.977500", "172212.477500", "172213.977500", "172215.477500", "172216.977500", "172218.477500", "172219.977500", "172221.477500", "172222.977500", "172224.477500", "172225.977500", "172227.477500", "172228.977500", "172230.477500", "172231.977500", "172233.477500", "172234.977500", "172236.477500", "172237.977500", "172239.477500"],
      "ContentTime": ["171916.964000", "171916.975000", "171916.978000", "171916.981000", "171916.985000", "171916.988000", "171916.991000", "171917.000000", "171917.003000", "171917.006000", "171917.009000", "171917.012000", "171917.016000", "171917.019000", "171917.022000", "171917.025000", "171917.028000", "171917.031000", "171917.035000", "171917.038000", "171917.041000", "171917.044000", "171917.047000", "171917.050000", "171917.053000", "171917.056000", "171917.059000", "171917.062000", "171956.959000", "171956.963000", "171956.977000", "171956.981000", "171956.984000", "171956.987000", "171956.990000", "171956.993000", "171956.996000", "171957.001000", "171957.005000", "171957.008000", "171957.011000", "171957.014000", "171957.018000", "171957.022000", "171957.025000", "171957.028000", "171957.031000", "171957.034000", "171957.037000", "171957.040000", "171957.043000", "171957.046000", "171957.049000", "171957.052000", "171957.056000", "172036.959000", "172036.962000", "172036.966000", "172036.969000", "172036.972000", "172036.975000", "172036.978000", "172036.981000", "172036.984000", "172036.987000", "172036.990000", "172036.994000", "172036.997000", "172037.001000", "172037.004000", "172037.007000", "172037.010000", "172037.013000", "172037.016000", "172037.019000", "172037.022000", "172037.025000", "172037.028000", "172037.032000", "172037.035000", "172037.038000", "172116.959000", "172116.962000", "172116.965000", "172116.969000", "172116.972000", "172116.975000", "172116.978000", "172116.981000", "172116.984000", "172116.987000", "172116.990000", "172116.993000", "172116.996000", "172117.000000", "172117.003000", "172117.007000", "172117.010000", "172117.013000", "172117.031000", "172117.034000", "172117.037000", "172117.040000", "172117.043000", "172117.046000", "172117.049000", "172117.052000", "172117.055000", "172156.959000", "172156.962000", "172156.965000", "172156.969000", "172156.972000", "172156.975000", "172156.978000", "172156.981000", "172156.984000", "172156.987000", "172156.990000", "172156.993000", "172156.996000", "172157.001000", "172157.004000", "172157.007000", "172157.010000", "172157.013000", "172157.016000", "172157.021000", "172157.024000", "172157.027000", "172157.031000", "172157.034000", "172157.037000", "172157.040000", "172157.043000", "172236.959000", "172236.962000", "172236.965000", "172236.969000", "172236.972000", "172236.975000", "172236.978000", "172236.981000", "172236.984000", "172236.987000", "172236.990000", "172236.994000", "172236.997000", "172237.001000", "172237.004000", "172237.007000", "172237.010000", "172237.013000", "172237.016000", "172237.020000", "172237.023000", "172237.026000", "172237.029000", "172237.032000", "172237.035000", "172237.038000", "172240.251000", "172240.255000", "172240.258000"],
      "InstanceCreationTime": ["171916.964000", "171916.975000", "171916.978000", "171916.981000", "171916.985000", "171916.988000", "171916.991000", "171917.000000", "171917.003000", "171917.006000", "171917.009000", "171917.012000", "171917.016000", "171917.019000", "171917.022000", "171917.025000", "171917.028000", "171917.031000", "171917.035000", "171917.038000", "171917.041000", "171917.044000", "171917.047000", "171917.050000", "171917.053000", "171917.056000", "171917.059000", "171917.062000", "171956.959000", "171956.963000", "171956.977000", "171956.981000", "171956.984000", "171956.987000", "171956.990000", "171956.993000", "171956.996000", "171957.001000", "171957.005000", "171957.008000", "171957.011000", "171957.014000", "171957.018000", "171957.022000", "171957.025000", "171957.028000", "171957.031000", "171957.034000", "171957.037000", "171957.040000", "171957.043000", "171957.046000", "171957.049000", "171957.052000", "171957.056000", "172036.959000", "172036.962000", "172036.966000", "172036.969000", "172036.972000", "172036.975000", "172036.978000", "172036.981000", "172036.984000", "172036.987000", "172036.990000", "172036.994000", "172036.997000", "172037.001000", "172037.004000", "172037.007000", "172037.010000", "172037.013000", "172037.016000", "172037.019000", "172037.022000", "172037.025000", "172037.028000", "172037.032000", "172037.035000", "172037.038000", "172116.959000", "172116.962000", "172116.965000", "172116.969000", "172116.972000", "172116.975000", "172116.978000", "172116.981000", "172116.984000", "172116.987000", "172116.990000", "172116.993000", "172116.996000", "172117.000000", "172117.003000", "172117.007000", "172117.010000", "172117.013000", "172117.031000", "172117.034000", "172117.037000", "172117.040000", "172117.043000", "172117.046000", "172117.049000", "172117.052000", "172117.055000", "172156.959000", "172156.962000", "172156.965000", "172156.969000", "172156.972000", "172156.975000", "172156.978000", "172156.981000", "172156.984000", "172156.987000", "172156.990000", "172156.993000", "172156.996000", "172157.001000", "172157.004000", "172157.007000", "172157.010000", "172157.013000", "172157.016000", "172157.021000", "172157.024000", "172157.027000", "172157.031000", "172157.034000", "172157.037000", "172157.040000", "172157.043000", "172236.959000", "172236.962000", "172236.965000", "172236.969000", "172236.972000", "172236.975000", "172236.978000", "172236.981000", "172236.984000", "172236.987000", "172236.990000", "172236.994000", "172236.997000", "172237.001000", "172237.004000", "172237.007000", "172237.010000", "172237.013000", "172237.016000", "172237.020000", "172237.023000", "172237.026000", "172237.029000", "172237.032000", "172237.035000", "172237.038000", "172240.251000", "172240.255000", "172240.258000"],
      "InstanceNumber": [1, 2, 3, 4, 5, 6, 7, 8, 9, 10, 11, 12, 13, 14, 15, 16, 17, 18, 19, 20, 21, 22, 23, 24, 25, 26, 27, 28, 29, 30, 31, 32, 33, 34, 35, 36, 37, 38, 39, 40, 41, 42, 43, 44, 45, 46, 47, 48, 49, 50, 51, 52, 53, 54, 55, 56, 57, 58, 59, 60, 61, 62, 63, 64, 65, 66, 67, 68, 69, 70, 71, 72, 73, 74, 75, 76, 77, 78, 79, 80, 81, 82, 83, 84, 85, 86, 87, 88, 89, 90, 91, 92, 93, 94, 95, 96, 97, 98, 99, 100, 101, 102, 103, 104, 105, 106, 107, 108, 109, 110, 111, 112, 113, 114, 115, 116, 117, 118, 119, 120, 121, 122, 123, 124, 125, 126, 127, 128, 129, 130, 131, 132, 133, 134, 135, 136, 137, 138, 139, 140, 141, 142, 143, 144, 145, 146, 147, 148, 149, 150, 151, 152, 153, 154, 155, 156, 157, 158, 159, 160, 161, 162, 163, 164],
      "LargestImagePixelValue": [2917, 2865, 2822, 2761, 2811, 2765, 2807, 2774, 2783, 2815, 2794, 2784, 2776, 2777, 2796, 2797, 2777, 2757, 2778, 2795, 2777, 2776, 2795, 2776, 2799, 2796, 2786, 2794, 2768, 2788, 2779, 2773, 2798, 2803, 2775, 2795, 2787, 2760, 2792, 2779, 2783, 2818, 2764, 2830, 2824, 2813, 2803, 2805, 2805, 2816, 2771, 2810, 2783, 2770, 2787, 2787, 2764, 2796, 2757, 2767, 2835, 2814, 2866, 2845, 2796, 2812, 2800, 2777, 2816, 2816, 2826, 2851, 2834, 2836, 2848, 2826, 2849, 2818, 2854, 2795, 2856, 2801, 2784, 2789, 2807, 2798, 2748, 2831, 2794, 2759, 2779, 2744, 2762, 2761, 2744, 2762, 2763, 2807, 2750, 2725, 2754, 2727, 2732, 2797, 2738, 2749, 2755, 2730, 2714, 2715, 2735, 2739, 2695, 2752, 2734, 2690, 2720, 2755, 2736, 2717, 2723, 2678, 2677, 2709, 2676, 2716, 2747, 2716, 2686, 2677, 2734, 2751, 2726, 2767, 2769, 2745, 2729, 2742, 2756, 2758, 2740, 2752, 2750, 2779, 2772, 2760, 2788, 2759, 2762, 2783, 2750, 2770, 2767, 2763, 2796, 2784, 2801, 2770, 2774, 2779, 2762, 2763, 2768, 2786],
      "WindowCenter": [732.0, 731.0, 730.0, 729.0, 729.0, 729.0, 729.0, 730.0, 730.0, 731.0, 730.0, 729.0, 728.0, 728.0, 728.0, 729.0, 729.0, 729.0, 729.0, 729.0, 729.0, 730.0, 730.0, 732.0, 732.0, 732.0, 731.0, 730.0, 729.0, 729.0, 729.0, 728.0, 728.0, 728.0, 729.0, 729.0, 730.0, 730.0, 729.0, 728.0, 729.0, 730.0, 730.0, 730.0, 730.0, 730.0, 730.0, 730.0, 730.0, 730.0, 730.0, 730.0, 729.0, 730.0, 730.0, 729.0, 729.0, 730.0, 729.0, 729.0, 730.0, 730.0, 730.0, 730.0, 729.0, 729.0, 728.0, 728.0, 729.0, 730.0, 731.0, 730.0, 730.0, 729.0, 729.0, 730.0, 731.0, 731.0, 730.0, 728.0, 729.0, 729.0, 728.0, 728.0, 728.0, 728.0, 728.0, 730.0, 730.0, 730.0, 731.0, 731.0, 730.0, 729.0, 729.0, 728.0, 727.0, 730.0, 730.0, 730.0, 730.0, 729.0, 730.0, 730.0, 730.0, 731.0, 731.0, 731.0, 731.0, 731.0, 731.0, 730.0, 729.0, 729.0, 728.0, 728.0, 728.0, 728.0, 728.0, 729.0, 730.0, 731.0, 731.0, 731.0, 730.0, 729.0, 729.0, 730.0, 730.0, 730.0, 730.0, 730.0, 730.0, 730.0, 730.0, 731.0, 731.0, 732.0, 731.0, 730.0, 729.0, 730.0, 731.0, 732.0, 732.0, 732.0, 732.0, 731.0, 731.0, 731.0, 731.0, 730.0, 730.0, 730.0, 731.0, 731.0, 730.0, 730.0, 730.0, 730.0, 732.0, 731.0, 731.0, 730.0],
      "WindowWidth": [1578.0, 1575.0, 1572.0, 1570.0, 1571.0, 1569.0, 1571.0, 1573.0, 1574.0, 1574.0, 1572.0, 1569.0, 1568.0, 1568.0, 1568.0, 1570.0, 1570.0, 1571.0, 1570.0, 1569.0, 1570.0, 1572.0, 1574.0, 1577.0, 1578.0, 1578.0, 1575.0, 1573.0, 1570.0, 1569.0, 1568.0, 1568.0, 1568.0, 1568.0, 1569.0, 1570.0, 1571.0, 1571.0, 1570.0, 1568.0, 1569.0, 1573.0, 1574.0, 1573.0, 1571.0, 1571.0, 1572.0, 1572.0, 1572.0, 1572.0, 1572.0, 1573.0, 1571.0, 1572.0, 1571.0, 1570.0, 1570.0, 1571.0, 1569.0, 1570.0, 1572.0, 1572.0, 1573.0, 1572.0, 1570.0, 1570.0, 1568.0, 1568.0, 1569.0, 1573.0, 1573.0, 1573.0, 1571.0, 1570.0, 1570.0, 1573.0, 1576.0, 1574.0, 1572.0, 1568.0, 1569.0, 1569.0, 1567.0, 1567.0, 1567.0, 1567.0, 1568.0, 1572.0, 1573.0, 1573.0, 1574.0, 1573.0, 1573.0, 1569.0, 1568.0, 1567.0, 1564.0, 1571.0, 1571.0, 1571.0, 1572.0, 1570.0, 1571.0, 1573.0, 1573.0, 1574.0, 1575.0, 1575.0, 1576.0, 1574.0, 1573.0, 1571.0, 1569.0, 1568.0, 1567.0, 1566.0, 1566.0, 1566.0, 1567.0, 1570.0, 1573.0, 1574.0, 1574.0, 1573.0, 1571.0, 1569.0, 1569.0, 1570.0, 1571.0, 1572.0, 1571.0, 1571.0, 1571.0, 1572.0, 1572.0, 1573.0, 1575.0, 1577.0, 1574.0, 1572.0, 1570.0, 1570.0, 1573.0, 1576.0, 1577.0, 1576.0, 1577.0, 1574.0, 1575.0, 1575.0, 1573.0, 1571.0, 1571.0, 1572.0, 1574.0, 1574.0, 1572.0, 1571.0, 1570.0, 1572.0, 1575.0, 1575.0, 1574.0, 1570.0]
    },
    "slices": {}
  }
}