{
  "AcquisitionMatrixPE": 72,
  "AcquisitionNumber": 1,
  "AcquisitionTime": "17:30:6.337500",
  "BandwidthPerPixelPhaseEncode": 17.943,
  "BaseResolution": 96,
  "BodyPartExamined": "BRAIN",
  "CoilCombinationMethod": "Sum of Squares",
  "ConsistencyInfo": "N4_VE11C_LATEST_20160120",
  "ConversionSoftware": "dcm2niix",
  "ConversionSoftwareVersion": "v1.0.20211006",
  "DerivedVendorReportedEchoSpacing": 0.000552897,
  "DeviceSerialNumber": "166011",
  "EchoTime": 0.03,
  "EchoTrainLength": 58,
  "EffectiveEchoSpacing": 0.000580542,
  "FlipAngle": 62,
  "ImageOrientationPatientDICOM": [0.99644, -0.0588836, -0.060336, 0.054663, 0.996093, -0.0693641],
  "ImageType": [
    "ORIGINAL",
    "PRIMARY",
    "M",
    "ND",
    "MOSAIC"
],
  "ImagingFrequency": 123.259,
  "InPlanePhaseEncodingDirectionDICOM": "COL",
  "InstitutionAddress": "West 130th Street 610,NY,NYC,US,10025",
  "InstitutionName": "MBBI",
  "MRAcquisitionType": "2D",
  "MagneticFieldStrength": 3,
  "Manufacturer": "Siemens",
  "ManufacturersModelName": "Prisma",
  "Modality": "MR",
  "MultibandAccelerationFactor": 3,
  "PartialFourier": 0.75,
  "PatientPosition": "HFS",
  "PercentPhaseFOV": 100,
  "PercentSampling": 75,
  "PhaseEncodingDirection": "j-",
  "PhaseEncodingSteps": 58,
  "PhaseOversampling": 0.05,
  "PhaseResolution": 0.75,
  "PixelBandwidth": 2265,
  "ProcedureStepDescription": "White^Word_recognition",
  "ProtocolName": "func_catLoc_run4",
  "PulseSequenceDetails": "%SiemensSeq%\\ep2d_bold",
  "ReceiveCoilActiveElements": "HC1-7",
  "ReceiveCoilName": "HeadNeck_64",
  "ReconMatrixPE": 96,
  "RefLinesPE": 40,
  "RepetitionTime": 1.5,
  "SAR": 0.049589,
  "ScanOptions": "PFP\\FS",
  "ScanningSequence": "EP",
  "SequenceName": "*epfid2d1_72",
  "SequenceVariant": "SK\\OSP",
  "SeriesDescription": "func_catLoc_run4",
  "SeriesNumber": 13,
  "ShimSetting": [-1156, -1381, 712, 635, -68, -19, -69, 19],
  "SliceThickness": 2,
  "SliceTiming": [1.0775, 0, 0.74, 0.0675, 0.8075, 0.135, 0.875, 0.2025, 0.9425, 0.27, 1.01, 0.405, 1.145, 0.4725, 1.2125, 0.54, 1.28, 0.6075, 1.3475, 0.6725, 1.4125, 0.3375, 1.0775, 0, 0.74, 0.0675, 0.8075, 0.135, 0.875, 0.2025, 0.9425, 0.27, 1.01, 0.405, 1.145, 0.4725, 1.2125, 0.54, 1.28, 0.6075, 1.3475, 0.6725, 1.4125, 0.3375, 1.0775, 0, 0.74, 0.0675, 0.8075, 0.135, 0.875, 0.2025, 0.9425, 0.27, 1.01, 0.405, 1.145, 0.4725, 1.2125, 0.54, 1.28, 0.6075, 1.3475, 0.6725, 1.4125, 0.3375],
  "SoftwareVersions": "syngo MR E11",
  "SpacingBetweenSlices": 2,
  "StationName": "AWP166011",
  "TaskName": "catLoc",
  "TotalReadoutTime": 0.0551515,
  "TxRefAmp": 213.598,
  "dcmmeta_affine": [
    [-1.9928796291351318, 0.10932596027851105, -0.12836939096450806, 98.06938934326172],
    [0.11776719987392426, 1.992185354232788, -0.13163793087005615, -63.14653396606445],
    [-0.1206720843911171, 0.13872812688350677, 1.991530179977417, -55.11629104614258],
    [0.0, 0.0, 0.0, 1.0]
],
  "dcmmeta_reorient_transform": [
    [0.0, -1.0, 0.0, 95.0],
    [1.0, 0.0, 0.0, 0.0],
    [0.0, 0.0, 1.0, 0.0],
    [0.0, 0.0, 0.0, 1.0]
],
  "dcmmeta_shape": [96, 96, 66, 214],
  "dcmmeta_slice_dim": 2,
  "dcmmeta_version": 0.6,
  "global": {
    "const": {
      "AcquisitionMatrix": [96, 0, 0, 72],
      "AngioFlag": "N",
      "BitsAllocated": 16,
      "BitsStored": 12,
      "BodyPartExamined": "BRAIN",
      "Columns": 864,
      "EchoNumbers": 1,
      "EchoTime": 30.0,
      "EchoTrainLength": 58,
      "FlipAngle": 62.0,
      "HighBit": 11,
      "ImageOrientationPatient": [0.99643980425988, -0.0588836014618, -0.06033604201, 0.05466298085878, 0.99609265878761, -0.0693640658632],
      "ImagePositionPatient": [-915.70229536383, -845.88762546845, 57.672564650156],
      "ImageType": [
        "ORIGINAL",
        "PRIMARY",
        "M",
        "ND",
        "MOSAIC"
],
      "ImagedNucleus": "1H",
      "ImagingFrequency": 123.259486,
      "InPlanePhaseEncodingDirection": "COL",
      "MRAcquisitionType": "2D",
      "MagneticFieldStrength": 3.0,
      "Manufacturer": "SIEMENS",
      "ManufacturerModelName": "Prisma",
      "Modality": "MR",
      "NumberOfAverages": 1.0,
      "NumberOfPhaseEncodingSteps": 58,
      "PercentPhaseFieldOfView": 100.0,
      "PercentSampling": 75.0,
      "PerformedProcedureStepStartTime": "164022.172000",
      "PhotometricInterpretation": "MONOCHROME2",
      "PixelBandwidth": 2265.0,
      "PixelRepresentation": 0,
      "PixelSpacing": [2.0, 2.0],
      "ProtocolName": "func_catLoc_run4",
      "RepetitionTime": 1500.0,
      "Rows": 864,
      "SAR": 0.04958896962673,
      "SamplesPerPixel": 1,
      "ScanOptions": [
        "PFP",
        "FS"
],
      "ScanningSequence": "EP",
      "SequenceName": "*epfid2d1_72",
      "SequenceVariant": [
        "SK",
        "OSP"
],
      "SeriesDescription": "func_catLoc_run4",
      "SeriesNumber": 13,
      "SeriesTime": "173016.886000",
      "SliceLocation": -57.021194233065,
      "SliceThickness": 2.0,
      "SmallestImagePixelValue": 0,
      "SoftwareVersions": "syngo MR E11",
      "SpacingBetweenSlices": 1.99999994345,
      "SpecificCharacterSet": "ISO_IR 100",
      "StudyID": "2",
      "StudyTime": "164022.130000",
      "TransmitCoilName": "Body",
      "VariableFlipAngleFlag": "N",
      "WindowCenterWidthExplanation": "Algo1",
      "dBdt": 0.0},
    "slices": {}
  },
  "time": {
    "samples": {
      "AcquisitionNumber": [1, 2, 3, 4, 5, 6, 7, 8, 9, 10, 11, 12, 13, 14, 15, 16, 17, 18, 19, 20, 21, 22, 23, 24, 25, 26, 27, 28, 29, 30, 31, 32, 33, 34, 35, 36, 37, 38, 39, 40, 41, 42, 43, 44, 45, 46, 47, 48, 49, 50, 51, 52, 53, 54, 55, 56, 57, 58, 59, 60, 61, 62, 63, 64, 65, 66, 67, 68, 69, 70, 71, 72, 73, 74, 75, 76, 77, 78, 79, 80, 81, 82, 83, 84, 85, 86, 87, 88, 89, 90, 91, 92, 93, 94, 95, 96, 97, 98, 99, 100, 101, 102, 103, 104, 105, 106, 107, 108, 109, 110, 111, 112, 113, 114, 115, 116, 117, 118, 119, 120, 121, 122, 123, 124, 125, 126, 127, 128, 129, 130, 131, 132, 133, 134, 135, 136, 137, 138, 139, 140, 141, 142, 143, 144, 145, 146, 147, 148, 149, 150, 151, 152, 153, 154, 155, 156, 157, 158, 159, 160, 161, 162, 163, 164, 165, 166, 167, 168, 169, 170, 171, 172, 173, 174, 175, 176, 177, 178, 179, 180, 181, 182, 183, 184, 185, 186, 187, 188, 189, 190, 191, 192, 193, 194, 195, 196, 197, 198, 199, 200, 201, 202, 203, 204, 205, 206, 207, 208, 209, 210, 211, 212, 213, 214],
      "AcquisitionTime": ["173006.337500", "173007.837500", "173009.337500", "173010.837500", "173012.337500", "173013.837500", "173015.337500", "173016.837500", "173018.337500", "173019.837500", "173021.337500", "173022.837500", "173024.337500", "173025.837500", "173027.337500", "173028.837500", "173030.337500", "173031.837500", "173033.337500", "173034.837500", "173036.337500", "173037.837500", "173039.337500", "173040.837500", "173042.337500", "173043.837500", "173045.337500", "173046.837500", "173048.337500", "173049.837500", "173051.337500", "173052.837500", "173054.337500", "173055.837500", "173057.337500", "173058.837500", "173100.337500", "173101.837500", "173103.337500", "173104.837500", "173106.337500", "173107.837500", "173109.337500", "173110.837500", "173112.337500", "173113.837500", "173115.337500", "173116.837500", "173118.337500", "173119.837500", "173121.337500", "173122.837500", "173124.337500", "173125.837500", "173127.337500", "173128.837500", "173130.337500", "173131.837500", "173133.337500", "173134.837500", "173136.337500", "173137.837500", "173139.337500", "173140.837500", "173142.337500", "173143.837500", "173145.337500", "173146.837500", "173148.337500", "173149.837500", "173151.337500", "173152.837500", "173154.337500", "173155.837500", "173157.337500", "173158.837500", "173200.337500", "173201.837500", "173203.337500", "173204.837500", "173206.337500", "173207.837500", "173209.337500", "173210.837500", "173212.337500", "173213.837500", "173215.337500", "173216.837500", "173218.337500", "173219.837500", "173221.337500", "173222.837500", "173224.337500", "173225.837500", "173227.337500", "173228.837500", "173230.337500", "173231.837500", "173233.337500", "173234.837500", "173236.337500", "173237.837500", "173239.337500", "173240.837500", "173242.337500", "173243.837500", "173245.337500", "173246.837500", "173248.337500", "173249.837500", "173251.337500", "173252.837500", "173254.337500", "173255.837500", "173257.337500", "173258.837500", "173300.337500", "173301.837500", "173303.337500", "173304.837500", "173306.337500", "173307.837500", "173309.337500", "173310.837500", "173312.337500", "173313.837500", "173315.337500", "173316.837500", "173318.337500", "173319.837500", "173321.337500", "173322.837500", "173324.337500", "173325.837500", "173327.337500", "173328.837500", "173330.337500", "173331.837500", "173333.337500", "173334.837500", "173336.337500", "173337.837500", "173339.337500", "173340.837500", "173342.337500", "173343.837500", "173345.337500", "173346.837500", "173348.337500", "173349.837500", "173351.337500", "173352.837500", "173354.337500", "173355.837500", "173357.337500", "173358.837500", "173400.337500", "173401.837500", "173403.337500", "173404.837500", "173406.337500", "173407.837500", "173409.337500", "173410.837500", "173412.337500", "173413.837500", "173415.337500", "173416.837500", "173418.337500", "173419.837500", "173421.337500", "173422.837500", "173424.337500", "173425.837500", "173427.337500", "173428.837500", "173430.337500", "173431.837500", "173433.337500", "173434.837500", "173436.337500", "173437.837500", "173439.337500", "173440.837500", "173442.337500", "173443.837500", "173445.337500", "173446.837500", "173448.337500", "173449.837500", "173451.337500", "173452.837500", "173454.337500", "173455.837500", "173457.337500", "173458.837500", "173500.337500", "173501.837500", "173503.337500", "173504.837500", "173506.337500", "173507.837500", "173509.337500", "173510.837500", "173512.337500", "173513.837500", "173515.337500", "173516.837500", "173518.337500", "173519.837500", "173521.337500", "173522.837500", "173524.337500", "173525.837500"],
      "ContentTime": ["173016.890000", "173016.894000", "173016.897000", "173016.900000", "173016.903000", "173016.906000", "173016.909000", "173056.885000", "173056.888000", "173056.891000", "173056.894000", "173056.897000", "173056.901000", "173056.904000", "173056.907000", "173056.910000", "173056.914000", "173056.917000", "173056.920000", "173056.923000", "173056.926000", "173056.929000", "173056.932000", "173056.935000", "173056.939000", "173056.942000", "173056.945000", "173056.948000", "173056.951000", "173056.954000", "173056.957000", "173056.960000", "173056.963000", "173056.966000", "173136.885000", "173136.888000", "173136.891000", "173136.894000", "173136.897000", "173136.900000", "173136.904000", "173136.907000", "173136.910000", "173136.913000", "173136.925000", "173136.928000", "173136.931000", "173136.934000", "173136.937000", "173136.940000", "173136.943000", "173136.946000", "173136.950000", "173136.954000", "173136.957000", "173136.960000", "173136.964000", "173136.967000", "173136.970000", "173136.973000", "173216.884000", "173216.887000", "173216.891000", "173216.894000", "173216.897000", "173216.900000", "173216.903000", "173216.906000", "173216.909000", "173216.912000", "173216.915000", "173216.918000", "173216.921000", "173216.924000", "173216.928000", "173216.930000", "173216.934000", "173216.937000", "173216.940000", "173216.943000", "173216.946000", "173216.949000", "173216.952000", "173216.955000", "173216.958000", "173216.961000", "173216.964000", "173256.885000", "173256.889000", "173256.892000", "173256.895000", "173256.898000", "173256.901000", "173256.904000", "173256.907000", "173256.910000", "173256.913000", "173256.916000", "173256.919000", "173256.923000", "173256.926000", "173256.929000", "173256.932000", "173256.935000", "173256.938000", "173256.941000", "173256.944000", "173256.947000", "173256.950000", "173256.953000", "173256.956000", "173256.960000", "173256.963000", "173256.966000", "173336.885000", "173336.888000", "173336.896000", "173336.899000", "173336.902000", "173336.905000", "173336.908000", "173336.911000", "173336.914000", "173336.917000", "173336.921000", "173336.924000", "173336.927000", "173336.930000", "173336.933000", "173336.936000", "173336.939000", "173336.942000", "173336.950000", "173336.953000", "173336.956000", "173336.959000", "173336.962000", "173336.965000", "173336.968000", "173336.971000", "173416.885000", "173416.888000", "173416.892000", "173416.895000", "173416.898000", "173416.901000", "173416.904000", "173416.907000", "173416.910000", "173416.913000", "173416.916000", "173416.920000", "173416.923000", "173416.926000", "173416.929000", "173416.932000", "173416.935000", "173416.938000", "173416.941000", "173416.944000", "173416.947000", "173416.950000", "173416.954000", "173416.957000", "173416.960000", "173416.963000", "173416.966000", "173456.885000", "173456.888000", "173456.892000", "173456.895000", "173456.898000", "173456.901000", "173456.904000", "173456.918000", "173456.921000", "173456.924000", "173456.927000", "173456.930000", "173456.933000", "173456.936000", "173456.939000", "173456.942000", "173456.945000", "173456.949000", "173456.952000", "173456.955000", "173456.958000", "173456.961000", "173456.964000", "173456.967000", "173456.970000", "173456.973000", "173456.976000", "173526.769000", "173526.773000", "173526.776000", "173526.779000", "173526.783000", "173526.786000", "173526.789000", "173526.792000", "173526.795000", "173526.798000", "173526.802000", "173526.805000", "173526.808000", "173526.811000", "173526.815000", "173526.818000", "173526.822000", "173526.825000", "173526.829000", "173526.832000"],
      "InstanceCreationTime": ["173016.890000", "173016.894000", "173016.897000", "173016.900000", "173016.903000", "173016.906000", "173016.909000", "173056.885000", "173056.888000", "173056.891000", "173056.894000", "173056.897000", "173056.901000", "173056.904000", "173056.907000", "173056.910000", "173056.914000", "173056.917000", "173056.920000", "173056.923000", "173056.926000", "173056.929000", "173056.932000", "173056.935000", "173056.939000", "173056.942000", "173056.945000", "173056.948000", "173056.951000", "173056.954000", "173056.957000", "173056.960000", "173056.963000", "173056.966000", "173136.885000", "173136.888000", "173136.891000", "173136.894000", "173136.897000", "173136.900000", "173136.904000", "173136.907000", "173136.910000", "173136.913000", "173136.925000", "173136.928000", "173136.931000", "173136.934000", "173136.937000", "173136.940000", "173136.943000", "173136.946000", "173136.950000", "173136.954000", "173136.957000", "173136.960000", "173136.964000", "173136.967000", "173136.970000", "173136.973000", "173216.884000", "173216.887000", "173216.891000", "173216.894000", "173216.897000", "173216.900000", "173216.903000", "173216.906000", "173216.909000", "173216.912000", "173216.915000", "173216.918000", "173216.921000", "173216.924000", "173216.928000", "173216.930000", "173216.934000", "173216.937000", "173216.940000", "173216.943000", "173216.946000", "173216.949000", "173216.952000", "173216.955000", "173216.958000", "173216.961000", "173216.964000", "173256.885000", "173256.889000", "173256.892000", "173256.895000", "173256.898000", "173256.901000", "173256.904000", "173256.907000", "173256.910000", "173256.913000", "173256.916000", "173256.919000", "173256.923000", "173256.926000", "173256.929000", "173256.932000", "173256.935000", "173256.938000", "173256.941000", "173256.944000", "173256.947000", "173256.950000", "173256.953000", "173256.956000", "173256.960000", "173256.963000", "173256.966000", "173336.885000", "173336.888000", "173336.896000", "173336.899000", "173336.902000", "173336.905000", "173336.908000", "173336.911000", "173336.914000", "173336.917000", "173336.921000", "173336.924000", "173336.927000", "173336.930000", "173336.933000", "173336.936000", "173336.939000", "173336.942000", "173336.950000", "173336.953000", "173336.956000", "173336.959000", "173336.962000", "173336.965000", "173336.968000", "173336.971000", "173416.885000", "173416.888000", "173416.892000", "173416.895000", "173416.898000", "173416.901000", "173416.904000", "173416.907000", "173416.910000", "173416.913000", "173416.916000", "173416.920000", "173416.923000", "173416.926000", "173416.929000", "173416.932000", "173416.935000", "173416.938000", "173416.941000", "173416.944000", "173416.947000", "173416.950000", "173416.954000", "173416.957000", "173416.960000", "173416.963000", "173416.966000", "173456.885000", "173456.888000", "173456.892000", "173456.895000", "173456.898000", "173456.901000", "173456.904000", "173456.918000", "173456.921000", "173456.924000", "173456.927000", "173456.930000", "173456.933000", "173456.936000", "173456.939000", "173456.942000", "173456.945000", "173456.949000", "173456.952000", "173456.955000", "173456.958000", "173456.961000", "173456.964000", "173456.967000", "173456.970000", "173456.973000", "173456.976000", "173526.769000", "173526.773000", "173526.776000", "173526.779000", "173526.783000", "173526.786000", "173526.789000", "173526.792000", "173526.795000", "173526.798000", "173526.802000", "173526.805000", "173526.808000", "173526.811000", "173526.815000", "173526.818000", "173526.822000", "173526.825000", "173526.829000", "173526.832000"],
      "InstanceNumber": [1, 2, 3, 4, 5, 6, 7, 8, 9, 10, 11, 12, 13, 14, 15, 16, 17, 18, 19, 20, 21, 22, 23, 24, 25, 26, 27, 28, 29, 30, 31, 32, 33, 34, 35, 36, 37, 38, 39, 40, 41, 42, 43, 44, 45, 46, 47, 48, 49, 50, 51, 52, 53, 54, 55, 56, 57, 58, 59, 60, 61, 62, 63, 64, 65, 66, 67, 68, 69, 70, 71, 72, 73, 74, 75, 76, 77, 78, 79, 80, 81, 82, 83, 84, 85, 86, 87, 88, 89, 90, 91, 92, 93, 94, 95, 96, 97, 98, 99, 100, 101, 102, 103, 104, 105, 106, 107, 108, 109, 110, 111, 112, 113, 114, 115, 116, 117, 118, 119, 120, 121, 122, 123, 124, 125, 126, 127, 128, 129, 130, 131, 132, 133, 134, 135, 136, 137, 138, 139, 140, 141, 142, 143, 144, 145, 146, 147, 148, 149, 150, 151, 152, 153, 154, 155, 156, 157, 158, 159, 160, 161, 162, 163, 164, 165, 166, 167, 168, 169, 170, 171, 172, 173, 174, 175, 176, 177, 178, 179, 180, 181, 182, 183, 184, 185, 186, 187, 188, 189, 190, 191, 192, 193, 194, 195, 196, 197, 198, 199, 200, 201, 202, 203, 204, 205, 206, 207, 208, 209, 210, 211, 212, 213, 214],
      "LargestImagePixelValue": [2880, 2810, 2786, 2753, 2817, 2793, 2852, 2852, 2790, 2758, 2701, 2708, 2734, 2743, 2755, 2750, 2757, 2730, 2735, 2717, 2724, 2736, 2718, 2731, 2714, 2684, 2725, 2716, 2726, 2714, 2728, 2757, 2740, 2728, 2711, 2714, 2688, 2700, 2716, 2707, 2727, 2720, 2732, 2728, 2706, 2733, 2717, 2773, 2766, 2764, 2739, 2734, 2736, 2738, 2731, 2746, 2719, 2713, 2732, 2709, 2724, 2725, 2713, 2721, 2750, 2775, 2734, 2738, 2723, 2713, 2710, 2720, 2725, 2716, 2693, 2698, 2711, 2738, 2728, 2764, 2757, 2726, 2758, 2704, 2709, 2698, 2712, 2716, 2733, 2777, 2748, 2825, 2732, 2755, 2757, 2738, 2746, 2724, 2752, 2722, 2734, 2697, 2685, 2695, 2676, 2749, 2805, 2778, 2801, 2739, 2752, 2691, 2734, 2720, 2712, 2741, 2722, 2776, 2831, 2833, 2861, 2792, 2825, 2762, 2733, 2765, 2716, 2773, 2764, 2757, 2840, 2806, 2771, 2796, 2742, 2800, 2768, 2773, 2778, 2764, 2821, 2789, 2778, 2811, 2802, 2830, 2820, 2864, 2822, 2798, 2822, 2795, 2769, 2801, 2817, 2902, 2858, 2892, 2839, 2837, 2841, 2823, 2840, 2815, 2849, 2851, 2798, 2836, 2817, 2811, 2812, 2786, 2828, 2788, 2768, 2844, 2799, 2802, 2830, 2754, 2804, 2810, 2947, 2935, 2951, 2918, 2887, 2836, 2876, 2864, 2838, 2838, 2773, 2845, 2833, 2812, 2821, 2826, 2815, 2848, 2820, 2885, 2895, 2889, 2899, 2850, 2911, 2882, 2906, 2923, 2891, 2860, 2855, 2838],
      "WindowCenter": [731.0, 730.0, 729.0, 729.0, 730.0, 730.0, 730.0, 730.0, 728.0, 727.0, 726.0, 727.0, 728.0, 730.0, 730.0, 730.0, 729.0, 730.0, 731.0, 731.0, 730.0, 729.0, 729.0, 728.0, 727.0, 727.0, 728.0, 729.0, 729.0, 728.0, 728.0, 728.0, 728.0, 727.0, 727.0, 726.0, 726.0, 726.0, 727.0, 728.0, 728.0, 728.0, 728.0, 728.0, 728.0, 728.0, 728.0, 730.0, 731.0, 730.0, 728.0, 728.0, 728.0, 728.0, 728.0, 728.0, 728.0, 727.0, 727.0, 727.0, 728.0, 728.0, 728.0, 728.0, 728.0, 728.0, 729.0, 729.0, 728.0, 727.0, 727.0, 726.0, 726.0, 726.0, 726.0, 726.0, 727.0, 728.0, 728.0, 729.0, 729.0, 728.0, 727.0, 727.0, 726.0, 726.0, 727.0, 726.0, 728.0, 730.0, 731.0, 731.0, 728.0, 728.0, 728.0, 727.0, 726.0, 726.0, 727.0, 727.0, 727.0, 725.0, 724.0, 724.0, 725.0, 726.0, 728.0, 727.0, 727.0, 726.0, 725.0, 726.0, 727.0, 727.0, 727.0, 727.0, 728.0, 730.0, 732.0, 732.0, 731.0, 729.0, 728.0, 728.0, 727.0, 727.0, 727.0, 728.0, 728.0, 728.0, 729.0, 729.0, 728.0, 728.0, 727.0, 728.0, 728.0, 728.0, 728.0, 727.0, 727.0, 727.0, 729.0, 729.0, 728.0, 728.0, 728.0, 728.0, 727.0, 726.0, 726.0, 726.0, 726.0, 728.0, 729.0, 730.0, 729.0, 728.0, 728.0, 728.0, 729.0, 729.0, 729.0, 729.0, 729.0, 728.0, 728.0, 729.0, 729.0, 729.0, 729.0, 728.0, 728.0, 727.0, 728.0, 728.0, 727.0, 727.0, 728.0, 727.0, 728.0, 729.0, 731.0, 732.0, 731.0, 729.0, 729.0, 727.0, 727.0, 728.0, 727.0, 726.0, 726.0, 727.0, 727.0, 727.0, 726.0, 727.0, 728.0, 728.0, 729.0, 729.0, 729.0, 728.0, 728.0, 728.0, 729.0, 730.0, 731.0, 731.0, 730.0, 729.0, 728.0, 727.0],
      "WindowWidth": [1576.0, 1572.0, 1569.0, 1569.0, 1573.0, 1573.0, 1573.0, 1573.0, 1568.0, 1565.0, 1562.0, 1563.0, 1568.0, 1571.0, 1573.0, 1572.0, 1571.0, 1571.0, 1574.0, 1575.0, 1573.0, 1570.0, 1569.0, 1566.0, 1564.0, 1564.0, 1567.0, 1570.0, 1569.0, 1566.0, 1566.0, 1567.0, 1568.0, 1565.0, 1565.0, 1563.0, 1560.0, 1561.0, 1565.0, 1567.0, 1568.0, 1566.0, 1567.0, 1567.0, 1567.0, 1567.0, 1568.0, 1573.0, 1574.0, 1573.0, 1568.0, 1566.0, 1566.0, 1568.0, 1568.0, 1568.0, 1567.0, 1563.0, 1563.0, 1563.0, 1566.0, 1567.0, 1566.0, 1567.0, 1567.0, 1568.0, 1569.0, 1569.0, 1567.0, 1564.0, 1563.0, 1561.0, 1561.0, 1560.0, 1560.0, 1562.0, 1565.0, 1566.0, 1567.0, 1570.0, 1570.0, 1566.0, 1565.0, 1563.0, 1562.0, 1563.0, 1563.0, 1563.0, 1567.0, 1572.0, 1574.0, 1573.0, 1567.0, 1566.0, 1567.0, 1565.0, 1562.0, 1561.0, 1563.0, 1564.0, 1564.0, 1560.0, 1557.0, 1557.0, 1558.0, 1562.0, 1566.0, 1564.0, 1563.0, 1561.0, 1560.0, 1560.0, 1564.0, 1564.0, 1564.0, 1564.0, 1567.0, 1572.0, 1577.0, 1578.0, 1574.0, 1568.0, 1567.0, 1566.0, 1564.0, 1564.0, 1565.0, 1566.0, 1566.0, 1567.0, 1569.0, 1568.0, 1566.0, 1565.0, 1564.0, 1566.0, 1566.0, 1567.0, 1566.0, 1563.0, 1563.0, 1565.0, 1568.0, 1568.0, 1566.0, 1566.0, 1567.0, 1566.0, 1565.0, 1562.0, 1560.0, 1560.0, 1561.0, 1566.0, 1569.0, 1571.0, 1569.0, 1567.0, 1566.0, 1567.0, 1570.0, 1570.0, 1568.0, 1568.0, 1568.0, 1568.0, 1568.0, 1570.0, 1569.0, 1568.0, 1569.0, 1568.0, 1566.0, 1564.0, 1565.0, 1567.0, 1565.0, 1565.0, 1565.0, 1564.0, 1566.0, 1570.0, 1575.0, 1576.0, 1574.0, 1570.0, 1568.0, 1565.0, 1564.0, 1565.0, 1564.0, 1562.0, 1562.0, 1564.0, 1565.0, 1562.0, 1562.0, 1564.0, 1566.0, 1568.0, 1569.0, 1569.0, 1568.0, 1566.0, 1565.0, 1566.0, 1569.0, 1572.0, 1574.0, 1574.0, 1571.0, 1569.0, 1567.0, 1565.0]
    },
    "slices": {}
  }
}