{
  "AcquisitionMatrixPE": 72,
  "AcquisitionNumber": 1,
  "AcquisitionTime": "16:09:54.157500",
  "BandwidthPerPixelPhaseEncode": 17.943,
  "BaseResolution": 96,
  "BodyPartExamined": "BRAIN",
  "CoilCombinationMethod": "Sum of Squares",
  "ConsistencyInfo": "N4_VE11C_LATEST_20160120",
  "ConversionSoftware": "dcm2niix",
  "ConversionSoftwareVersion": "v1.0.20211006",
  "DerivedVendorReportedEchoSpacing": 0.000552897,
  "DeviceSerialNumber": "166011",
  "EchoTime": 0.03,
  "EchoTrainLength": 58,
  "EffectiveEchoSpacing": 0.000580542,
  "FlipAngle": 62,
  "ImageOrientationPatientDICOM": [0.997201, 0.0483402, -0.0570364, -0.0257643, 0.938321, 0.344804],
  "ImageType": [
    "ORIGINAL",
    "PRIMARY",
    "M",
    "ND",
    "MOSAIC"
],
  "ImagingFrequency": 123.259,
  "InPlanePhaseEncodingDirectionDICOM": "COL",
  "InstitutionAddress": "West 130th Street 610,NY,NYC,US,10025",
  "InstitutionName": "MBBI",
  "MRAcquisitionType": "2D",
  "MagneticFieldStrength": 3,
  "Manufacturer": "Siemens",
  "ManufacturersModelName": "Prisma",
  "Modality": "MR",
  "MultibandAccelerationFactor": 3,
  "PartialFourier": 0.75,
  "PatientPosition": "HFS",
  "PercentPhaseFOV": 100,
  "PercentSampling": 75,
  "PhaseEncodingDirection": "j-",
  "PhaseEncodingSteps": 58,
  "PhaseOversampling": 0.05,
  "PhaseResolution": 0.75,
  "PixelBandwidth": 2265,
  "ProcedureStepDescription": "White^Word_recognition",
  "ProtocolName": "func_catLoc_run3",
  "PulseSequenceDetails": "%SiemensSeq%\\ep2d_bold",
  "ReceiveCoilActiveElements": "HC1-7",
  "ReceiveCoilName": "HeadNeck_64",
  "ReconMatrixPE": 96,
  "RefLinesPE": 40,
  "RepetitionTime": 1.5,
  "SAR": 0.0498524,
  "ScanOptions": "PFP\\FS",
  "ScanningSequence": "EP",
  "SequenceName": "*epfid2d1_72",
  "SequenceVariant": "SK\\OSP",
  "SeriesDescription": "func_catLoc_run3",
  "SeriesNumber": 8,
  "ShimSetting": [-1178, -1502, 824, 600, -120, -288, 104, 45],
  "SliceThickness": 2,
  "SliceTiming": [1.075, 0, 0.7375, 0.065, 0.805, 0.1325, 0.8725, 0.2, 0.94, 0.2675, 1.0075, 0.4025, 1.1425, 0.47, 1.21, 0.5375, 1.2775, 0.605, 1.345, 0.6725, 1.4125, 0.335, 1.075, 0, 0.7375, 0.065, 0.805, 0.1325, 0.8725, 0.2, 0.94, 0.2675, 1.0075, 0.4025, 1.1425, 0.47, 1.21, 0.5375, 1.2775, 0.605, 1.345, 0.6725, 1.4125, 0.335, 1.075, 0, 0.7375, 0.065, 0.805, 0.1325, 0.8725, 0.2, 0.94, 0.2675, 1.0075, 0.4025, 1.1425, 0.47, 1.21, 0.5375, 1.2775, 0.605, 1.345, 0.6725, 1.4125, 0.335],
  "SoftwareVersions": "syngo MR E11",
  "SpacingBetweenSlices": 2,
  "StationName": "AWP166011",
  "TaskName": "catLoc",
  "TotalReadoutTime": 0.0551515,
  "TxRefAmp": 216.897,
  "dcmmeta_affine": [
    [-1.994402289390564, -0.05152866616845131, -0.14037258923053741, 104.29963684082031],
    [-0.09668031334877014, 1.876642107963562, 0.68473881483078, -78.88093566894531],
    [-0.11407272517681122, -0.6896079778671265, 1.8738805055618286, 12.605542182922363],
    [0.0, 0.0, 0.0, 1.0]
],
  "dcmmeta_reorient_transform": [
    [0.0, -1.0, 0.0, 95.0],
    [1.0, 0.0, 0.0, 0.0],
    [0.0, 0.0, 1.0, 0.0],
    [0.0, 0.0, 0.0, 1.0]
],
  "dcmmeta_shape": [96, 96, 66, 214],
  "dcmmeta_slice_dim": 2,
  "dcmmeta_version": 0.6,
  "global": {
    "const": {
      "AcquisitionMatrix": [96, 0, 0, 72],
      "AngioFlag": "N",
      "BitsAllocated": 16,
      "BitsStored": 12,
      "BodyPartExamined": "BRAIN",
      "Columns": 864,
      "EchoNumbers": 1,
      "EchoTime": 30.0,
      "EchoTrainLength": 58,
      "FlipAngle": 62.0,
      "HighBit": 11,
      "ImageOrientationPatient": [0.99720112458643, 0.04834015576277, -0.0570363608971, -0.0257643333667, 0.93832106240911, 0.3448039775954],
      "ImagePositionPatient": [-845.46786769734, -857.15587931538, -273.91274357819],
      "ImageType": [
        "ORIGINAL",
        "PRIMARY",
        "M",
        "ND",
        "MOSAIC"
],
      "ImagedNucleus": "1H",
      "ImagingFrequency": 123.259106,
      "InPlanePhaseEncodingDirection": "COL",
      "MRAcquisitionType": "2D",
      "MagneticFieldStrength": 3.0,
      "Manufacturer": "SIEMENS",
      "ManufacturerModelName": "Prisma",
      "Modality": "MR",
      "NumberOfAverages": 1.0,
      "NumberOfPhaseEncodingSteps": 58,
      "PercentPhaseFieldOfView": 100.0,
      "PercentSampling": 75.0,
      "PerformedProcedureStepStartTime": "152924.246000",
      "PhotometricInterpretation": "MONOCHROME2",
      "PixelBandwidth": 2265.0,
      "PixelRepresentation": 0,
      "PixelSpacing": [2.0, 2.0],
      "ProtocolName": "func_catLoc_run3",
      "RepetitionTime": 1500.0,
      "Rows": 864,
      "SAR": 0.04985240623242,
      "SamplesPerPixel": 1,
      "ScanOptions": [
        "PFP",
        "FS"
],
      "ScanningSequence": "EP",
      "SequenceName": "*epfid2d1_72",
      "SequenceVariant": [
        "SK",
        "OSP"
],
      "SeriesDescription": "func_catLoc_run3",
      "SeriesNumber": 8,
      "SeriesTime": "161007.349000",
      "SliceLocation": -22.516185692864,
      "SliceThickness": 2.0,
      "SmallestImagePixelValue": 0,
      "SoftwareVersions": "syngo MR E11",
      "SpacingBetweenSlices": 2.0000000193822,
      "SpecificCharacterSet": "ISO_IR 100",
      "StudyID": "1",
      "StudyTime": "152924.196000",
      "TransmitCoilName": "Body",
      "VariableFlipAngleFlag": "N",
      "WindowCenterWidthExplanation": "Algo1",
      "dBdt": 0.0},
    "slices": {}
  },
  "time": {
    "samples": {
      "AcquisitionNumber": [1, 2, 3, 4, 5, 6, 7, 8, 9, 10, 11, 12, 13, 14, 15, 16, 17, 18, 19, 20, 21, 22, 23, 24, 25, 26, 27, 28, 29, 30, 31, 32, 33, 34, 35, 36, 37, 38, 39, 40, 41, 42, 43, 44, 45, 46, 47, 48, 49, 50, 51, 52, 53, 54, 55, 56, 57, 58, 59, 60, 61, 62, 63, 64, 65, 66, 67, 68, 69, 70, 71, 72, 73, 74, 75, 76, 77, 78, 79, 80, 81, 82, 83, 84, 85, 86, 87, 88, 89, 90, 91, 92, 93, 94, 95, 96, 97, 98, 99, 100, 101, 102, 103, 104, 105, 106, 107, 108, 109, 110, 111, 112, 113, 114, 115, 116, 117, 118, 119, 120, 121, 122, 123, 124, 125, 126, 127, 128, 129, 130, 131, 132, 133, 134, 135, 136, 137, 138, 139, 140, 141, 142, 143, 144, 145, 146, 147, 148, 149, 150, 151, 152, 153, 154, 155, 156, 157, 158, 159, 160, 161, 162, 163, 164, 165, 166, 167, 168, 169, 170, 171, 172, 173, 174, 175, 176, 177, 178, 179, 180, 181, 182, 183, 184, 185, 186, 187, 188, 189, 190, 191, 192, 193, 194, 195, 196, 197, 198, 199, 200, 201, 202, 203, 204, 205, 206, 207, 208, 209, 210, 211, 212, 213, 214],
      "AcquisitionTime": ["160954.157500", "160955.657500", "160957.157500", "160958.657500", "161000.157500", "161001.657500", "161003.157500", "161004.657500", "161006.157500", "161007.657500", "161009.157500", "161010.657500", "161012.157500", "161013.657500", "161015.157500", "161016.657500", "161018.157500", "161019.657500", "161021.157500", "161022.657500", "161024.157500", "161025.657500", "161027.157500", "161028.657500", "161030.157500", "161031.657500", "161033.157500", "161034.657500", "161036.157500", "161037.657500", "161039.157500", "161040.657500", "161042.157500", "161043.657500", "161045.157500", "161046.657500", "161048.157500", "161049.657500", "161051.157500", "161052.657500", "161054.157500", "161055.657500", "161057.157500", "161058.657500", "161100.157500", "161101.657500", "161103.157500", "161104.657500", "161106.157500", "161107.657500", "161109.157500", "161110.657500", "161112.157500", "161113.657500", "161115.157500", "161116.657500", "161118.157500", "161119.657500", "161121.157500", "161122.657500", "161124.157500", "161125.657500", "161127.157500", "161128.657500", "161130.157500", "161131.657500", "161133.157500", "161134.657500", "161136.157500", "161137.657500", "161139.157500", "161140.657500", "161142.157500", "161143.657500", "161145.157500", "161146.657500", "161148.157500", "161149.657500", "161151.157500", "161152.657500", "161154.157500", "161155.657500", "161157.157500", "161158.657500", "161200.157500", "161201.657500", "161203.157500", "161204.657500", "161206.157500", "161207.657500", "161209.157500", "161210.657500", "161212.157500", "161213.657500", "161215.157500", "161216.657500", "161218.157500", "161219.657500", "161221.157500", "161222.657500", "161224.157500", "161225.657500", "161227.157500", "161228.657500", "161230.157500", "161231.657500", "161233.157500", "161234.657500", "161236.157500", "161237.657500", "161239.157500", "161240.657500", "161242.157500", "161243.657500", "161245.157500", "161246.657500", "161248.157500", "161249.657500", "161251.157500", "161252.657500", "161254.157500", "161255.657500", "161257.157500", "161258.657500", "161300.157500", "161301.657500", "161303.157500", "161304.657500", "161306.157500", "161307.657500", "161309.157500", "161310.657500", "161312.157500", "161313.657500", "161315.157500", "161316.657500", "161318.157500", "161319.657500", "161321.157500", "161322.657500", "161324.157500", "161325.657500", "161327.157500", "161328.657500", "161330.157500", "161331.657500", "161333.157500", "161334.657500", "161336.157500", "161337.657500", "161339.157500", "161340.657500", "161342.157500", "161343.657500", "161345.157500", "161346.657500", "161348.157500", "161349.657500", "161351.157500", "161352.657500", "161354.157500", "161355.657500", "161357.157500", "161358.657500", "161400.157500", "161401.657500", "161403.157500", "161404.657500", "161406.157500", "161407.657500", "161409.157500", "161410.657500", "161412.157500", "161413.657500", "161415.157500", "161416.657500", "161418.157500", "161419.657500", "161421.157500", "161422.657500", "161424.157500", "161425.657500", "161427.157500", "161428.657500", "161430.157500", "161431.657500", "161433.157500", "161434.657500", "161436.157500", "161437.657500", "161439.157500", "161440.657500", "161442.157500", "161443.657500", "161445.157500", "161446.657500", "161448.157500", "161449.657500", "161451.157500", "161452.657500", "161454.157500", "161455.657500", "161457.157500", "161458.657500", "161500.157500", "161501.657500", "161503.157500", "161504.657500", "161506.157500", "161507.657500", "161509.157500", "161510.657500", "161512.157500", "161513.657500"],
      "ContentTime": ["161007.353000", "161007.357000", "161007.361000", "161007.364000", "161007.367000", "161007.370000", "161007.373000", "161007.377000", "161007.385000", "161047.349000", "161047.352000", "161047.355000", "161047.359000", "161047.362000", "161047.365000", "161047.369000", "161047.372000", "161047.375000", "161047.378000", "161047.381000", "161047.388000", "161047.391000", "161047.394000", "161047.401000", "161047.404000", "161047.408000", "161047.411000", "161047.414000", "161047.417000", "161047.420000", "161047.424000", "161047.427000", "161047.430000", "161047.433000", "161047.436000", "161127.349000", "161127.352000", "161127.355000", "161127.358000", "161127.361000", "161127.364000", "161127.367000", "161127.370000", "161127.373000", "161127.376000", "161127.379000", "161127.383000", "161127.386000", "161127.389000", "161127.392000", "161127.395000", "161127.398000", "161127.401000", "161127.404000", "161127.414000", "161127.417000", "161127.420000", "161127.423000", "161127.426000", "161127.429000", "161127.432000", "161127.435000", "161207.349000", "161207.352000", "161207.355000", "161207.358000", "161207.361000", "161207.364000", "161207.368000", "161207.371000", "161207.374000", "161207.377000", "161207.380000", "161207.383000", "161207.400000", "161207.403000", "161207.406000", "161207.409000", "161207.412000", "161207.416000", "161207.419000", "161207.422000", "161207.425000", "161207.428000", "161207.431000", "161207.434000", "161207.437000", "161207.440000", "161207.443000", "161247.349000", "161247.352000", "161247.355000", "161247.359000", "161247.362000", "161247.365000", "161247.368000", "161247.371000", "161247.374000", "161247.377000", "161247.380000", "161247.383000", "161247.386000", "161247.390000", "161247.393000", "161247.396000", "161247.399000", "161247.402000", "161247.405000", "161247.408000", "161247.411000", "161247.415000", "161247.419000", "161247.422000", "161247.425000", "161247.428000", "161327.349000", "161327.352000", "161327.355000", "161327.358000", "161327.361000", "161327.364000", "161327.367000", "161327.371000", "161327.374000", "161327.377000", "161327.380000", "161327.383000", "161327.386000", "161327.389000", "161327.392000", "161327.395000", "161327.398000", "161327.401000", "161327.404000", "161327.407000", "161327.410000", "161327.413000", "161327.416000", "161327.419000", "161327.422000", "161327.425000", "161327.428000", "161407.349000", "161407.352000", "161407.355000", "161407.358000", "161407.361000", "161407.364000", "161407.367000", "161407.371000", "161407.374000", "161407.377000", "161407.380000", "161407.383000", "161407.386000", "161407.389000", "161407.392000", "161407.395000", "161407.398000", "161407.401000", "161407.404000", "161407.407000", "161407.410000", "161407.413000", "161407.416000", "161407.419000", "161407.422000", "161407.425000", "161407.428000", "161447.348000", "161447.351000", "161447.354000", "161447.358000", "161447.361000", "161447.364000", "161447.367000", "161447.370000", "161447.373000", "161447.376000", "161447.379000", "161447.382000", "161447.385000", "161447.388000", "161447.391000", "161447.395000", "161447.398000", "161447.401000", "161447.404000", "161447.407000", "161447.411000", "161447.415000", "161447.418000", "161447.421000", "161447.424000", "161447.427000", "161514.679000", "161514.683000", "161514.686000", "161514.689000", "161514.693000", "161514.696000", "161514.699000", "161514.702000", "161514.705000", "161514.708000", "161514.712000", "161514.715000", "161514.718000", "161514.721000", "161514.725000", "161514.728000", "161514.731000", "161514.735000", "161514.738000"],
      "InstanceCreationTime": ["161007.353000", "161007.357000", "161007.361000", "161007.364000", "161007.367000", "161007.370000", "161007.373000", "161007.377000", "161007.385000", "161047.349000", "161047.352000", "161047.355000", "161047.359000", "161047.362000", "161047.365000", "161047.369000", "161047.372000", "161047.375000", "161047.378000", "161047.381000", "161047.388000", "161047.391000", "161047.394000", "161047.401000", "161047.404000", "161047.408000", "161047.411000", "161047.414000", "161047.417000", "161047.420000", "161047.424000", "161047.427000", "161047.430000", "161047.433000", "161047.436000", "161127.349000", "161127.352000", "161127.355000", "161127.358000", "161127.361000", "161127.364000", "161127.367000", "161127.370000", "161127.373000", "161127.376000", "161127.379000", "161127.383000", "161127.386000", "161127.389000", "161127.392000", "161127.395000", "161127.398000", "161127.401000", "161127.404000", "161127.414000", "161127.417000", "161127.420000", "161127.423000", "161127.426000", "161127.429000", "161127.432000", "161127.435000", "161207.349000", "161207.352000", "161207.355000", "161207.358000", "161207.361000", "161207.364000", "161207.368000", "161207.371000", "161207.374000", "161207.377000", "161207.380000", "161207.383000", "161207.400000", "161207.403000", "161207.406000", "161207.409000", "161207.412000", "161207.416000", "161207.419000", "161207.422000", "161207.425000", "161207.428000", "161207.431000", "161207.434000", "161207.437000", "161207.440000", "161207.443000", "161247.349000", "161247.352000", "161247.355000", "161247.359000", "161247.362000", "161247.365000", "161247.368000", "161247.371000", "161247.374000", "161247.377000", "161247.380000", "161247.383000", "161247.386000", "161247.390000", "161247.393000", "161247.396000", "161247.399000", "161247.402000", "161247.405000", "161247.408000", "161247.411000", "161247.415000", "161247.419000", "161247.422000", "161247.425000", "161247.428000", "161327.349000", "161327.352000", "161327.355000", "161327.358000", "161327.361000", "161327.364000", "161327.367000", "161327.371000", "161327.374000", "161327.377000", "161327.380000", "161327.383000", "161327.386000", "161327.389000", "161327.392000", "161327.395000", "161327.398000", "161327.401000", "161327.404000", "161327.407000", "161327.410000", "161327.413000", "161327.416000", "161327.419000", "161327.422000", "161327.425000", "161327.428000", "161407.349000", "161407.352000", "161407.355000", "161407.358000", "161407.361000", "161407.364000", "161407.367000", "161407.371000", "161407.374000", "161407.377000", "161407.380000", "161407.383000", "161407.386000", "161407.389000", "161407.392000", "161407.395000", "161407.398000", "161407.401000", "161407.404000", "161407.407000", "161407.410000", "161407.413000", "161407.416000", "161407.419000", "161407.422000", "161407.425000", "161407.428000", "161447.348000", "161447.351000", "161447.354000", "161447.358000", "161447.361000", "161447.364000", "161447.367000", "161447.370000", "161447.373000", "161447.376000", "161447.379000", "161447.382000", "161447.385000", "161447.388000", "161447.391000", "161447.395000", "161447.398000", "161447.401000", "161447.404000", "161447.407000", "161447.411000", "161447.415000", "161447.418000", "161447.421000", "161447.424000", "161447.427000", "161514.679000", "161514.683000", "161514.686000", "161514.689000", "161514.693000", "161514.696000", "161514.699000", "161514.702000", "161514.705000", "161514.708000", "161514.712000", "161514.715000", "161514.718000", "161514.721000", "161514.725000", "161514.728000", "161514.731000", "161514.735000", "161514.738000"],
      "InstanceNumber": [1, 2, 3, 4, 5, 6, 7, 8, 9, 10, 11, 12, 13, 14, 15, 16, 17, 18, 19, 20, 21, 22, 23, 24, 25, 26, 27, 28, 29, 30, 31, 32, 33, 34, 35, 36, 37, 38, 39, 40, 41, 42, 43, 44, 45, 46, 47, 48, 49, 50, 51, 52, 53, 54, 55, 56, 57, 58, 59, 60, 61, 62, 63, 64, 65, 66, 67, 68, 69, 70, 71, 72, 73, 74, 75, 76, 77, 78, 79, 80, 81, 82, 83, 84, 85, 86, 87, 88, 89, 90, 91, 92, 93, 94, 95, 96, 97, 98, 99, 100, 101, 102, 103, 104, 105, 106, 107, 108, 109, 110, 111, 112, 113, 114, 115, 116, 117, 118, 119, 120, 121, 122, 123, 124, 125, 126, 127, 128, 129, 130, 131, 132, 133, 134, 135, 136, 137, 138, 139, 140, 141, 142, 143, 144, 145, 146, 147, 148, 149, 150, 151, 152, 153, 154, 155, 156, 157, 158, 159, 160, 161, 162, 163, 164, 165, 166, 167, 168, 169, 170, 171, 172, 173, 174, 175, 176, 177, 178, 179, 180, 181, 182, 183, 184, 185, 186, 187, 188, 189, 190, 191, 192, 193, 194, 195, 196, 197, 198, 199, 200, 201, 202, 203, 204, 205, 206, 207, 208, 209, 210, 211, 212, 213, 214],
      "LargestImagePixelValue": [2970, 2842, 2806, 2717, 2735, 2693, 2740, 2732, 2705, 2706, 2707, 2714, 2698, 2693, 2712, 2706, 2705, 2707, 2698, 2718, 2716, 2698, 2671, 2684, 2686, 2682, 2692, 2727, 2712, 2708, 2728, 2707, 2713, 2669, 2699, 2664, 2726, 2696, 2716, 2680, 2646, 2648, 2670, 2698, 2674, 2680, 2641, 2686, 2660, 2657, 2657, 2660, 2700, 2687, 2690, 2650, 2657, 2666, 2646, 2660, 2643, 2665, 2658, 2645, 2610, 2640, 2620, 2624, 2665, 2649, 2703, 2657, 2695, 2665, 2675, 2634, 2658, 2683, 2655, 2680, 2641, 2695, 2666, 2684, 2635, 2619, 2640, 2631, 2656, 2597, 2640, 2648, 2656, 2644, 2658, 2645, 2668, 2613, 2317, 2823, 2761, 2706, 2659, 2617, 2633, 2598, 2646, 2659, 2644, 2650, 2619, 2627, 2608, 2654, 2629, 2677, 2623, 2672, 2625, 2638, 2646, 2631, 2622, 2656, 2649, 2678, 2670, 2651, 2646, 2635, 2651, 2636, 2660, 2632, 2541, 2621, 2624, 2598, 2557, 2636, 2622, 2609, 2632, 2620, 2643, 2636, 2645, 2627, 2633, 2603, 2606, 2616, 2608, 2626, 2605, 2634, 2605, 2608, 2613, 2637, 2629, 2619, 2649, 2608, 2620, 2633, 2602, 2603, 2588, 2575, 2594, 2631, 2630, 2626, 2608, 2622, 2595, 2606, 2622, 2639, 2600, 2607, 2620, 2636, 2645, 2637, 2612, 2583, 2611, 2632, 2626, 2633, 2616, 2662, 2645, 2627, 2569, 2593, 2595, 2620, 2619, 2654, 2609, 2633, 2598, 2585, 2576, 2598, 2605, 2568, 2566, 2609, 2550, 2566],
      "WindowCenter": [695.0, 692.0, 691.0, 690.0, 689.0, 688.0, 688.0, 688.0, 688.0, 688.0, 688.0, 689.0, 689.0, 690.0, 690.0, 689.0, 689.0, 689.0, 689.0, 689.0, 689.0, 689.0, 689.0, 689.0, 688.0, 688.0, 689.0, 689.0, 688.0, 687.0, 687.0, 687.0, 688.0, 688.0, 688.0, 688.0, 689.0, 689.0, 688.0, 687.0, 687.0, 687.0, 689.0, 690.0, 689.0, 688.0, 687.0, 687.0, 687.0, 687.0, 687.0, 687.0, 688.0, 687.0, 688.0, 687.0, 688.0, 688.0, 687.0, 688.0, 687.0, 687.0, 687.0, 687.0, 687.0, 687.0, 687.0, 687.0, 687.0, 688.0, 688.0, 688.0, 688.0, 688.0, 688.0, 688.0, 687.0, 688.0, 687.0, 688.0, 688.0, 688.0, 688.0, 687.0, 687.0, 686.0, 687.0, 687.0, 687.0, 687.0, 688.0, 687.0, 687.0, 686.0, 686.0, 685.0, 686.0, 684.0, 678.0, 691.0, 691.0, 689.0, 688.0, 687.0, 686.0, 686.0, 686.0, 687.0, 686.0, 687.0, 686.0, 687.0, 687.0, 689.0, 688.0, 689.0, 688.0, 688.0, 688.0, 688.0, 688.0, 688.0, 689.0, 690.0, 689.0, 688.0, 687.0, 687.0, 687.0, 688.0, 688.0, 689.0, 689.0, 689.0, 687.0, 688.0, 687.0, 687.0, 687.0, 688.0, 688.0, 688.0, 688.0, 687.0, 687.0, 687.0, 687.0, 687.0, 687.0, 687.0, 687.0, 687.0, 687.0, 687.0, 687.0, 687.0, 687.0, 687.0, 687.0, 687.0, 687.0, 687.0, 687.0, 687.0, 688.0, 688.0, 688.0, 688.0, 687.0, 688.0, 688.0, 688.0, 687.0, 687.0, 687.0, 687.0, 687.0, 688.0, 688.0, 688.0, 687.0, 688.0, 688.0, 688.0, 688.0, 688.0, 687.0, 686.0, 687.0, 686.0, 686.0, 687.0, 688.0, 689.0, 688.0, 688.0, 686.0, 686.0, 686.0, 687.0, 687.0, 688.0, 686.0, 685.0, 683.0, 683.0, 684.0, 685.0, 684.0, 683.0, 684.0, 685.0, 685.0, 685.0],
      "WindowWidth": [1498.0, 1489.0, 1486.0, 1483.0, 1481.0, 1479.0, 1478.0, 1477.0, 1477.0, 1478.0, 1478.0, 1480.0, 1481.0, 1482.0, 1482.0, 1481.0, 1480.0, 1481.0, 1479.0, 1480.0, 1480.0, 1479.0, 1479.0, 1480.0, 1478.0, 1479.0, 1480.0, 1480.0, 1478.0, 1476.0, 1476.0, 1476.0, 1477.0, 1477.0, 1478.0, 1479.0, 1480.0, 1479.0, 1478.0, 1476.0, 1475.0, 1476.0, 1480.0, 1482.0, 1480.0, 1477.0, 1475.0, 1475.0, 1474.0, 1474.0, 1474.0, 1476.0, 1477.0, 1476.0, 1477.0, 1476.0, 1477.0, 1477.0, 1477.0, 1477.0, 1476.0, 1476.0, 1475.0, 1475.0, 1474.0, 1475.0, 1475.0, 1475.0, 1476.0, 1476.0, 1477.0, 1477.0, 1479.0, 1478.0, 1478.0, 1476.0, 1476.0, 1477.0, 1476.0, 1477.0, 1476.0, 1478.0, 1477.0, 1476.0, 1474.0, 1474.0, 1475.0, 1476.0, 1476.0, 1475.0, 1476.0, 1476.0, 1474.0, 1473.0, 1472.0, 1471.0, 1471.0, 1469.0, 1453.0, 1487.0, 1486.0, 1480.0, 1477.0, 1473.0, 1473.0, 1473.0, 1474.0, 1474.0, 1473.0, 1474.0, 1473.0, 1474.0, 1476.0, 1479.0, 1479.0, 1479.0, 1478.0, 1479.0, 1477.0, 1477.0, 1477.0, 1478.0, 1480.0, 1483.0, 1480.0, 1478.0, 1475.0, 1474.0, 1475.0, 1478.0, 1479.0, 1479.0, 1479.0, 1479.0, 1474.0, 1477.0, 1476.0, 1475.0, 1475.0, 1478.0, 1477.0, 1477.0, 1476.0, 1476.0, 1475.0, 1475.0, 1475.0, 1475.0, 1475.0, 1476.0, 1476.0, 1476.0, 1475.0, 1475.0, 1474.0, 1475.0, 1474.0, 1475.0, 1474.0, 1475.0, 1474.0, 1475.0, 1475.0, 1476.0, 1476.0, 1477.0, 1477.0, 1476.0, 1475.0, 1476.0, 1477.0, 1477.0, 1476.0, 1474.0, 1474.0, 1474.0, 1474.0, 1477.0, 1478.0, 1477.0, 1476.0, 1477.0, 1478.0, 1478.0, 1477.0, 1477.0, 1475.0, 1473.0, 1473.0, 1472.0, 1472.0, 1474.0, 1477.0, 1479.0, 1478.0, 1476.0, 1473.0, 1473.0, 1473.0, 1474.0, 1476.0, 1477.0, 1473.0, 1469.0, 1465.0, 1465.0, 1467.0, 1468.0, 1468.0, 1465.0, 1467.0, 1469.0, 1468.0, 1471.0]
    },
    "slices": {}
  }
}