{
  "AcquisitionMatrixPE": 70,
  "AcquisitionNumber": 1,
  "AcquisitionTime": "09:45:8.802500",
  "BaseResolution": 70,
  "BodyPartExamined": "BRAIN",
  "CoilCombinationMethod": "Sum of Squares",
  "ConsistencyInfo": "N4_VE11C_LATEST_20160120",
  "ConversionSoftware": "dcm2niix",
  "ConversionSoftwareVersion": "v1.0.20211006",
  "DeviceSerialNumber": "166011",
  "EchoNumber": 2,
  "EchoTime": 0.00738,
  "EchoTime1": 0.00492,
  "EchoTime2": 0.00738,
  "FlipAngle": 60,
  "ImageOrientationPatientDICOM": [0.999881, -0.0120256, -0.00967755, 0.0106456, 0.991218, -0.131809],
  "ImageType": [
    "ORIGINAL",
    "PRIMARY",
    "P",
    "ND",
    "PHASE"
],
  "ImagingFrequency": 123.26,
  "InPlanePhaseEncodingDirectionDICOM": "ROW",
  "InstitutionAddress": "West 130th Street 610,NY,NYC,US,10025",
  "InstitutionName": "MBBI",
  "MRAcquisitionType": "2D",
  "MagneticFieldStrength": 3,
  "Manufacturer": "Siemens",
  "ManufacturersModelName": "Prisma",
  "MatrixCoilMode": "SENSE",
  "Modality": "MR",
  "PartialFourier": 1,
  "PatientPosition": "HFS",
  "PercentPhaseFOV": 100,
  "PercentSampling": 100,
  "PhaseEncodingDirection": "i",
  "PhaseEncodingSteps": 70,
  "PhaseResolution": 1,
  "PixelBandwidth": 595,
  "ProcedureStepDescription": "White^Word_recognition",
  "ProtocolName": "fmap_gre_field_mapping",
  "PulseSequenceDetails": "%SiemensSeq%\\gre_field_mapping",
  "ReceiveCoilActiveElements": "HC1-7",
  "ReceiveCoilName": "HeadNeck_64",
  "ReconMatrixPE": 70,
  "RepetitionTime": 0.52,
  "SAR": 0.0911919,
  "ScanningSequence": "GR",
  "SequenceName": "*fm2d2r",
  "SequenceVariant": "SP",
  "SeriesDescription": "fmap_gre_field_mapping",
  "SeriesNumber": 17,
  "ShimSetting": [-1160, -1345, 688, 499, -83, 188, -57, -26],
  "SliceThickness": 3,
  "SliceTiming": [0.26562, 0, 0.27344, 0.01562, 0.28906, 0.03125, 0.30469, 0.03906, 0.3125, 0.05469, 0.32812, 0.0625, 0.33594, 0.07812, 0.35156, 0.09375, 0.36719, 0.10156, 0.375, 0.11719, 0.39062, 0.125, 0.39844, 0.14062, 0.41406, 0.14844, 0.42188, 0.16406, 0.4375, 0.17969, 0.44531, 0.1875, 0.46094, 0.20312, 0.47656, 0.21094, 0.48438, 0.22656, 0.5, 0.24219, 0.50781, 0.25],
  "SoftwareVersions": "syngo MR E11",
  "SpacingBetweenSlices": 3,
  "StationName": "AWP166011",
  "TxRefAmp": 226.123,
  "dcmmeta_affine": [
    [-2.9996426105499268, 0.03193692862987518, -0.033532917499542236, 105.03290557861328],
    [0.03607671335339546, 2.97365403175354, -0.39507055282592773, -80.86164093017578],
    [-0.029032640159130096, 0.3954268991947174, 2.9736785888671875, -67.10595703125],
    [0.0, 0.0, 0.0, 1.0]
],
  "dcmmeta_reorient_transform": [
    [0.0, -1.0, 0.0, 69.0],
    [1.0, 0.0, 0.0, 0.0],
    [0.0, 0.0, -1.0, 41.0],
    [0.0, 0.0, 0.0, 1.0]
],
  "dcmmeta_shape": [70, 70, 42],
  "dcmmeta_slice_dim": 2,
  "dcmmeta_version": 0.6,
  "global": {
    "const": {
      "AcquisitionMatrix": [0, 70, 70, 0],
      "AcquisitionNumber": 1,
      "AngioFlag": "N",
      "BitsAllocated": 16,
      "BitsStored": 12,
      "BodyPartExamined": "BRAIN",
      "Columns": 70,
      "EchoNumbers": 2,
      "EchoTime": 7.38,
      "EchoTrainLength": 0,
      "FlipAngle": 60.0,
      "HighBit": 11,
      "ImageOrientationPatient": [0.99988085827187, -0.0120255707199, -0.0096775467128, 0.01064564277828, 0.99121797196277, -0.1318089615612],
      "ImageType": [
        "ORIGINAL",
        "PRIMARY",
        "P",
        "ND"
],
      "ImagedNucleus": "1H",
      "ImagingFrequency": 123.259504,
      "InPlanePhaseEncodingDirection": "ROW",
      "MRAcquisitionType": "2D",
      "MagneticFieldStrength": 3.0,
      "Manufacturer": "SIEMENS",
      "ManufacturerModelName": "Prisma",
      "Modality": "MR",
      "NumberOfAverages": 1.0,
      "NumberOfPhaseEncodingSteps": 70,
      "PercentPhaseFieldOfView": 100.0,
      "PercentSampling": 100.0,
      "PerformedProcedureStepStartTime": "082814.837000",
      "PhotometricInterpretation": "MONOCHROME2",
      "PixelBandwidth": 595.0,
      "PixelRepresentation": 0,
      "PixelSpacing": [3.0, 3.0],
      "ProtocolName": "fmap_gre_field_mapping",
      "RepetitionTime": 520.0,
      "RescaleIntercept": -4096.0,
      "RescaleSlope": 2.0,
      "RescaleType": "US",
      "Rows": 70,
      "SAR": 0.09119193047676,
      "SamplesPerPixel": 1,
      "ScanningSequence": "GR",
      "SequenceName": "*fm2d2r",
      "SequenceVariant": "SP",
      "SeriesDescription": "fmap_gre_field_mapping",
      "SeriesNumber": 17,
      "SeriesTime": "094621.386000",
      "SliceThickness": 3.0,
      "SoftwareVersions": "syngo MR E11",
      "SpacingBetweenSlices": 3.0,
      "SpecificCharacterSet": "ISO_IR 100",
      "StudyID": "2",
      "StudyTime": "082814.776000",
      "TransmitCoilName": "Body",
      "VariableFlipAngleFlag": "N",
      "WindowCenterWidthExplanation": "Algo1",
      "dBdt": 0.0},
    "slices": {
      "AcquisitionTime": ["094508.802500", "094508.542500", "094508.815000", "094508.555000", "094508.827500", "094508.567500", "094508.840000", "094508.580000", "094508.852500", "094508.592500", "094508.865000", "094508.605000", "094508.877500", "094508.617500", "094508.890000", "094508.630000", "094508.902500", "094508.642500", "094508.915000", "094508.655000", "094508.927500", "094508.667500", "094508.940000", "094508.680000", "094508.950000", "094508.690000", "094508.962500", "094508.702500", "094508.975000", "094508.715000", "094508.987500", "094508.727500", "094509.000000", "094508.740000", "094509.012500", "094508.752500", "094509.025000", "094508.765000", "094509.037500", "094508.777500", "094509.050000", "094508.790000"],
      "ContentTime": ["094621.457000", "094621.394000", "094621.459000", "094621.396000", "094621.461000", "094621.405000", "094621.463000", "094621.407000", "094621.466000", "094621.409000", "094621.468000", "094621.411000", "094621.470000", "094621.414000", "094621.472000", "094621.416000", "094621.474000", "094621.418000", "094621.477000", "094621.420000", "094621.479000", "094621.432000", "094621.481000", "094621.434000", "094621.483000", "094621.436000", "094621.485000", "094621.438000", "094621.487000", "094621.441000", "094621.489000", "094621.443000", "094621.491000", "094621.445000", "094621.494000", "094621.447000", "094621.496000", "094621.450000", "094621.498000", "094621.452000", "094621.500000", "094621.454000"],
      "CsaImage.ICE_Dims": [
        "X_2_1_1_1_1_1_22_1_1_1_1_207",
        "X_2_1_1_1_1_1_1_1_1_2_1_207",
        "X_2_1_1_1_1_1_23_1_1_3_1_207",
        "X_2_1_1_1_1_1_2_1_1_4_1_207",
        "X_2_1_1_1_1_1_24_1_1_5_1_207",
        "X_2_1_1_1_1_1_3_1_1_6_1_207",
        "X_2_1_1_1_1_1_25_1_1_7_1_207",
        "X_2_1_1_1_1_1_4_1_1_8_1_207",
        "X_2_1_1_1_1_1_26_1_1_9_1_207",
        "X_2_1_1_1_1_1_5_1_1_10_1_207",
        "X_2_1_1_1_1_1_27_1_1_11_1_207",
        "X_2_1_1_1_1_1_6_1_1_12_1_207",
        "X_2_1_1_1_1_1_28_1_1_13_1_207",
        "X_2_1_1_1_1_1_7_1_1_14_1_207",
        "X_2_1_1_1_1_1_29_1_1_15_1_207",
        "X_2_1_1_1_1_1_8_1_1_16_1_207",
        "X_2_1_1_1_1_1_30_1_1_17_1_207",
        "X_2_1_1_1_1_1_9_1_1_18_1_207",
        "X_2_1_1_1_1_1_31_1_1_19_1_207",
        "X_2_1_1_1_1_1_10_1_1_20_1_207",
        "X_2_1_1_1_1_1_32_1_1_21_1_207",
        "X_2_1_1_1_1_1_11_1_1_22_1_207",
        "X_2_1_1_1_1_1_33_1_1_23_1_207",
        "X_2_1_1_1_1_1_12_1_1_24_1_207",
        "X_2_1_1_1_1_1_34_1_1_25_1_207",
        "X_2_1_1_1_1_1_13_1_1_26_1_207",
        "X_2_1_1_1_1_1_35_1_1_27_1_207",
        "X_2_1_1_1_1_1_14_1_1_28_1_207",
        "X_2_1_1_1_1_1_36_1_1_29_1_207",
        "X_2_1_1_1_1_1_15_1_1_30_1_207",
        "X_2_1_1_1_1_1_37_1_1_31_1_207",
        "X_2_1_1_1_1_1_16_1_1_32_1_207",
        "X_2_1_1_1_1_1_38_1_1_33_1_207",
        "X_2_1_1_1_1_1_17_1_1_34_1_207",
        "X_2_1_1_1_1_1_39_1_1_35_1_207",
        "X_2_1_1_1_1_1_18_1_1_36_1_207",
        "X_2_1_1_1_1_1_40_1_1_37_1_207",
        "X_2_1_1_1_1_1_19_1_1_38_1_207",
        "X_2_1_1_1_1_1_41_1_1_39_1_207",
        "X_2_1_1_1_1_1_20_1_1_40_1_207",
        "X_2_1_1_1_1_1_42_1_1_41_1_207",
        "X_2_1_1_1_1_1_21_1_1_42_1_207"
],
      "CsaImage.ProtocolSliceNumber": [0, 1, 2, 3, 4, 5, 6, 7, 8, 9, 10, 11, 12, 13, 14, 15, 16, 17, 18, 19, 20, 21, 22, 23, 24, 25, 26, 27, 28, 29, 30, 31, 32, 33, 34, 35, 36, 37, 38, 39, 40, 41],
      "CsaImage.SlicePosition_PCS": [
        [-107.23655052, -124.32048358, -39.82170441],
        [-107.20301766, -123.92541255, -36.84802201],
        [-107.1694848, -123.53034343, -33.87433579],
        [-107.13595182, -123.1352724, -30.90065339],
        [-107.10241891, -122.74020137, -27.92697098],
        [-107.06888605, -122.34513034, -24.95328476],
        [-107.03535313, -121.95005931, -21.97960236],
        [-107.00182021, -121.55498828, -19.00591996],
        [-106.96828729, -121.15991916, -16.03223565],
        [-106.93475438, -120.76484813, -13.05855134],
        [-106.90122146, -120.3697771, -10.08486702],
        [-106.86768854, -119.97470607, -7.11118462],
        [-106.83415568, -119.57963504, -4.13750031],
        [-106.80062277, -119.18456592, -1.163816],
        [-106.76708985, -118.78949393, 1.8098664],
        [-106.73355693, -118.39442386, 4.78355071],
        [-106.70002401, -117.99935283, 7.75723407],
        [-106.6664911, -117.60428275, 10.73091791],
        [-106.63295824, -117.20921172, 13.70460162],
        [-106.59942529, -116.81414069, 16.67828522],
        [-106.5658924, -116.41907061, 19.65196893],
        [-106.53235949, -116.02399959, 22.62565277],
        [-106.49882657, -115.62892856, 25.59933612],
        [-106.46529365, -115.23385848, 28.57302043],
        [-106.43176076, -114.83878745, 31.54670379],
        [-106.39822785, -114.44371737, 34.5203881],
        [-106.36469493, -114.04864634, 37.49407051],
        [-106.33116203, -113.65357531, 40.46775482],
        [-106.29762912, -113.25850524, 43.44143913],
        [-106.26409621, -112.86343421, 46.41512153],
        [-106.2305633, -112.46836318, 49.38880584],
        [-106.19703039, -112.0732931, 52.36248825],
        [-106.16349749, -111.67822207, 55.33617446],
        [-106.12996458, -111.28315104, 58.30985687],
        [-106.09643167, -110.88808097, 61.28353927],
        [-106.06289876, -110.49300994, 64.25722549],
        [-106.02936585, -110.09793939, 67.23090789],
        [-105.99583294, -109.70286883, 70.2045903],
        [-105.96230004, -109.30779828, 73.17827651],
        [-105.92876712, -108.91272725, 76.15195892],
        [-105.89523422, -108.5176567, 79.12564514],
        [-105.8617013, -108.12258614, 82.09932373]
],
      "CsaImage.TimeAfterStart": [0.7825, 0.5225, 0.795, 0.535, 0.8075, 0.5475, 0.82, 0.56, 0.8325, 0.5725, 0.845, 0.585, 0.8575, 0.5975, 0.87, 0.61, 0.8825, 0.6225, 0.895, 0.635, 0.9075, 0.6475, 0.92, 0.66, 0.93, 0.67, 0.9425, 0.6825, 0.955, 0.695, 0.9675, 0.7075, 0.98, 0.72, 0.9925, 0.7325, 1.005, 0.745, 1.0175, 0.7575, 1.03, 0.77],
      "ImagePositionPatient": [
        [-107.2365505155, -124.32048357887, -39.821704411992],
        [-107.20301765761, -123.9254125492, -36.848022008428],
        [-107.16948479971, -123.53034342689, -33.874335790166],
        [-107.13595182261, -123.13527239722, -30.900653386601],
        [-107.10241890511, -122.74020136756, -27.926970983037],
        [-107.06888604721, -122.3451303379, -24.953284764775],
        [-107.03535312971, -121.95005930824, -21.979602361211],
        [-107.00182021221, -121.55498827857, -19.005919957646],
        [-106.96828729471, -121.15991915626, -16.032235646733],
        [-106.93475437721, -120.7648481266, -13.05855133582],
        [-106.90122145972, -120.36977709693, -10.084867024907],
        [-106.86768854222, -119.97470606727, -7.1111846213426],
        [-106.83415568432, -119.57963503761, -4.1375003104295],
        [-106.80062276682, -119.18456591529, -1.1638159995164],
        [-106.76708984932, -118.78949393195, 1.809866404048],
        [-106.73355693182, -118.39442385597, 4.7835507149611],
        [-106.70002401432, -117.9993528263, 7.7572340721999],
        [-106.66649109682, -117.60428275031, 10.730917906276],
        [-106.63295823893, -117.20921172065, 13.704601621142],
        [-106.59942529163, -116.81414069099, 16.6782852168],
        [-106.56589240393, -116.419070615, 19.651968931666],
        [-106.53235948643, -116.02399958534, 22.625652765742],
        [-106.49882656893, -115.62892855567, 25.599336122981],
        [-106.46529365143, -115.23385847968, 28.573020433894],
        [-106.43176076373, -114.83878745002, 31.546703791133],
        [-106.39822784623, -114.44371737403, 34.520388102046],
        [-106.36469492873, -114.04864634437, 37.494070505611],
        [-106.33116202614, -113.65357531471, 40.467754816524],
        [-106.29762912354, -113.25850523872, 43.441439127437],
        [-106.26409620604, -112.86343420905, 46.415121531001],
        [-106.23056330344, -112.46836317939, 49.388805841914],
        [-106.19703039339, -112.0732931034, 52.362488245479],
        [-106.16349748707, -111.67822207374, 55.33617446374],
        [-106.12996457702, -111.28315104408, 58.309856867305],
        [-106.09643166883, -110.88808096809, 61.283539270869],
        [-106.06289876065, -110.49300993842, 64.257225489131],
        [-106.0293658506, -110.0979393856, 67.230907892695],
        [-105.99583294055, -109.70286883277, 70.20459029626],
        [-105.96230003795, -109.30779827995, 73.178276514522],
        [-105.92876712045, -108.91272725028, 76.151958918086],
        [-105.89523421785, -108.51765669746, 79.125645136348],
        [-105.86170130035, -108.12258614463, 82.099323725215]
],
      "InstanceCreationTime": ["094621.457000", "094621.394000", "094621.459000", "094621.396000", "094621.461000", "094621.405000", "094621.463000", "094621.407000", "094621.466000", "094621.409000", "094621.468000", "094621.411000", "094621.470000", "094621.414000", "094621.472000", "094621.416000", "094621.474000", "094621.418000", "094621.477000", "094621.420000", "094621.479000", "094621.432000", "094621.481000", "094621.434000", "094621.483000", "094621.436000", "094621.485000", "094621.438000", "094621.487000", "094621.441000", "094621.489000", "094621.443000", "094621.491000", "094621.445000", "094621.494000", "094621.447000", "094621.496000", "094621.450000", "094621.498000", "094621.452000", "094621.500000", "094621.454000"],
      "InstanceNumber": [1, 2, 3, 4, 5, 6, 7, 8, 9, 10, 11, 12, 13, 14, 15, 16, 17, 18, 19, 20, 21, 22, 23, 24, 25, 26, 27, 28, 29, 30, 31, 32, 33, 34, 35, 36, 37, 38, 39, 40, 41, 42],
      "LargestImagePixelValue": [4092, 4086, 4075, 4084, 4094, 4088, 4092, 4091, 4094, 4093, 4079, 4093, 4082, 4092, 4092, 4094, 4063, 4094, 4067, 4095, 4085, 4085, 4086, 4088, 4077, 4081, 4093, 4054, 4094, 4079, 4093, 4094, 4091, 4091, 4092, 4093, 4095, 4091, 4095, 4095, 4093, 4095],
      "SliceLocation": [-57.042829010907, -54.042830242856, -51.04282794475, -48.042829175367, -45.042830406649, -42.042827857364, -39.042829088647, -36.04283031993, -33.042829911775, -30.042829252441, -27.042828593107, -24.04282982439, -21.042829165722, -18.042828757567, -15.04282986326, -12.042829329516, -9.04282961549, -6.0428295543997, -3.0428294865496, -0.0428295358637, 2.9571704067299, 5.9571705934098, 8.9571703074355, 11.95717084118, 14.957170554873, 17.957171088617, 20.957169857334, 23.957170516502, 26.95717105008, 29.957169818797, 32.957170477965, 35.957169121009, 38.957171670835, 41.957170439469, 44.957169082492, 47.95717163234, 50.957170338179, 53.957169044017, 56.957171531007, 59.957170299725, 62.957172786715, 65.957167711402],
      "SmallestImagePixelValue": [1, 0, 3, 10, 12, 0, 0, 1, 4, 10, 0, 1, 1, 5, 18, 27, 5, 11, 45, 10, 16, 9, 0, 1, 17, 12, 8, 16, 14, 4, 6, 0, 0, 2, 1, 0, 0, 3, 0, 1, 0, 1],
      "WindowCenter": [-292.0, -320.0, -240.0, -318.0, -250.0, -168.0, -220.0, -406.0, -250.0, -186.0, -158.0, -154.0, -218.0, -62.0, -28.0, -20.0, -32.0, -182.0, -180.0, -188.0, -76.0, 10.0, -132.0, -114.0, -88.0, 78.0, -96.0, -128.0, -166.0, -194.0, -276.0, -364.0, -392.0, -364.0, -372.0, -408.0, -310.0, -410.0, -310.0, -308.0, -216.0, -240.0],
      "WindowWidth": [5684.0, 5766.0, 5850.0, 5834.0, 5880.0, 5878.0, 5346.0, 4748.0, 5254.0, 5296.0, 5222.0, 5096.0, 4516.0, 5078.0, 5206.0, 5118.0, 5028.0, 4504.0, 4500.0, 4492.0, 4836.0, 5230.0, 4488.0, 4470.0, 4456.0, 5172.0, 4446.0, 4482.0, 4514.0, 4532.0, 4558.0, 4644.0, 4660.0, 4672.0, 4722.0, 4774.0, 5272.0, 4844.0, 5490.0, 5682.0, 6014.0, 6152.0]
    }
  }
}