{
  "AcquisitionMatrixPE": 72,
  "AcquisitionNumber": 1,
  "AcquisitionTime": "18:44:14.210000",
  "BandwidthPerPixelPhaseEncode": 17.943,
  "BaseResolution": 96,
  "BodyPartExamined": "BRAIN",
  "CoilCombinationMethod": "Sum of Squares",
  "ConsistencyInfo": "N4_VE11C_LATEST_20160120",
  "ConversionSoftware": "dcm2niix",
  "ConversionSoftwareVersion": "v1.0.20211006",
  "DerivedVendorReportedEchoSpacing": 0.000552897,
  "DeviceSerialNumber": "166011",
  "EchoTime": 0.03,
  "EchoTrainLength": 58,
  "EffectiveEchoSpacing": 0.000580542,
  "FlipAngle": 62,
  "ImageOrientationPatientDICOM": [0.997791, -0.028044, 0.0602262, 0.0351923, 0.992014, -0.121119],
  "ImageType": [
    "ORIGINAL",
    "PRIMARY",
    "M",
    "ND",
    "MOSAIC"
],
  "ImagingFrequency": 123.259,
  "InPlanePhaseEncodingDirectionDICOM": "COL",
  "InstitutionAddress": "West 130th Street 610,NY,NYC,US,10025",
  "InstitutionName": "MBBI",
  "MRAcquisitionType": "2D",
  "MagneticFieldStrength": 3,
  "Manufacturer": "Siemens",
  "ManufacturersModelName": "Prisma",
  "Modality": "MR",
  "MultibandAccelerationFactor": 3,
  "PartialFourier": 0.75,
  "PatientPosition": "HFS",
  "PercentPhaseFOV": 100,
  "PercentSampling": 75,
  "PhaseEncodingDirection": "j-",
  "PhaseEncodingSteps": 58,
  "PhaseOversampling": 0.05,
  "PhaseResolution": 0.75,
  "PixelBandwidth": 2265,
  "ProcedureStepDescription": "White^Word_recognition",
  "ProtocolName": "func_vwfate_run3",
  "PulseSequenceDetails": "%SiemensSeq%\\ep2d_bold",
  "ReceiveCoilActiveElements": "HC1-7",
  "ReceiveCoilName": "HeadNeck_64",
  "ReconMatrixPE": 96,
  "RefLinesPE": 40,
  "RepetitionTime": 1.5,
  "SAR": 0.0474231,
  "ScanOptions": "PFP\\FS",
  "ScanningSequence": "EP",
  "SequenceName": "*epfid2d1_72",
  "SequenceVariant": "SK\\OSP",
  "SeriesDescription": "func_vwfate_run3",
  "SeriesNumber": 11,
  "ShimSetting": [-1131, -1351, 692, 538, -55, 97, -18, -9],
  "SliceThickness": 2,
  "SliceTiming": [1.0775, 0, 0.74, 0.0675, 0.8075, 0.135, 0.875, 0.2025, 0.9425, 0.27, 1.01, 0.405, 1.145, 0.4725, 1.2125, 0.54, 1.2775, 0.605, 1.345, 0.6725, 1.4125, 0.3375, 1.0775, 0, 0.74, 0.0675, 0.8075, 0.135, 0.875, 0.2025, 0.9425, 0.27, 1.01, 0.405, 1.145, 0.4725, 1.2125, 0.54, 1.2775, 0.605, 1.345, 0.6725, 1.4125, 0.3375, 1.0775, 0, 0.74, 0.0675, 0.8075, 0.135, 0.875, 0.2025, 0.9425, 0.27, 1.01, 0.405, 1.145, 0.4725, 1.2125, 0.54, 1.2775, 0.605, 1.345, 0.6725, 1.4125, 0.3375],
  "SoftwareVersions": "syngo MR E11",
  "SpacingBetweenSlices": 2,
  "StationName": "AWP166011",
  "TaskName": "vwfate",
  "TotalReadoutTime": 0.0551515,
  "TxRefAmp": 228.376,
  "dcmmeta_affine": [
    [-1.9955815076828003, 0.07038458436727524, 0.112697072327137, 92.5066909790039],
    [0.056087903678417206, 1.9840278625488281, -0.24594242870807648, -72.6191635131836],
    [0.12045234441757202, 0.2422386109828949, 1.9816184043884277, -88.25450897216797],
    [0.0, 0.0, 0.0, 1.0]
],
  "dcmmeta_reorient_transform": [
    [0.0, -1.0, 0.0, 95.0],
    [1.0, 0.0, 0.0, 0.0],
    [0.0, 0.0, 1.0, 0.0],
    [0.0, 0.0, 0.0, 1.0]
],
  "dcmmeta_shape": [96, 96, 66, 164],
  "dcmmeta_slice_dim": 2,
  "dcmmeta_version": 0.6,
  "global": {
    "const": {
      "AcquisitionMatrix": [96, 0, 0, 72],
      "AngioFlag": "N",
      "BitsAllocated": 16,
      "BitsStored": 12,
      "BodyPartExamined": "BRAIN",
      "Columns": 864,
      "EchoNumbers": 1,
      "EchoTime": 30.0,
      "EchoTrainLength": 58,
      "FlipAngle": 62.0,
      "HighBit": 11,
      "ImageOrientationPatient": [0.99779073205804, -0.0280439511388, 0.0602261722477, 0.03519229116502, 0.99201391966704, -0.1211193041153],
      "ImagePositionPatient": [-892.52419153629, -856.19241570817, -18.475919515575],
      "ImageType": [
        "ORIGINAL",
        "PRIMARY",
        "M",
        "ND",
        "MOSAIC"
],
      "ImagedNucleus": "1H",
      "ImagingFrequency": 123.259431,
      "InPlanePhaseEncodingDirection": "COL",
      "MRAcquisitionType": "2D",
      "MagneticFieldStrength": 3.0,
      "Manufacturer": "SIEMENS",
      "ManufacturerModelName": "Prisma",
      "Modality": "MR",
      "NumberOfAverages": 1.0,
      "NumberOfPhaseEncodingSteps": 58,
      "PercentPhaseFieldOfView": 100.0,
      "PercentSampling": 75.0,
      "PerformedProcedureStepStartTime": "180711.868000",
      "PhotometricInterpretation": "MONOCHROME2",
      "PixelBandwidth": 2265.0,
      "PixelRepresentation": 0,
      "PixelSpacing": [2.0, 2.0],
      "ProtocolName": "func_vwfate_run3",
      "RepetitionTime": 1500.0,
      "Rows": 864,
      "SAR": 0.04742311922172,
      "SamplesPerPixel": 1,
      "ScanOptions": [
        "PFP",
        "FS"
],
      "ScanningSequence": "EP",
      "SequenceName": "*epfid2d1_72",
      "SequenceVariant": [
        "SK",
        "OSP"
],
      "SeriesDescription": "func_vwfate_run3",
      "SeriesNumber": 11,
      "SeriesTime": "184444.655000",
      "SliceLocation": -73.300701354264,
      "SliceThickness": 2.0,
      "SmallestImagePixelValue": 0,
      "SoftwareVersions": "syngo MR E11",
      "SpacingBetweenSlices": 1.9999999887751,
      "SpecificCharacterSet": "ISO_IR 100",
      "StudyID": "2",
      "StudyTime": "180711.816000",
      "TransmitCoilName": "Body",
      "VariableFlipAngleFlag": "N",
      "WindowCenterWidthExplanation": "Algo1",
      "dBdt": 0.0},
    "slices": {}
  },
  "time": {
    "samples": {
      "AcquisitionNumber": [1, 2, 3, 4, 5, 6, 7, 8, 9, 10, 11, 12, 13, 14, 15, 16, 17, 18, 19, 20, 21, 22, 23, 24, 25, 26, 27, 28, 29, 30, 31, 32, 33, 34, 35, 36, 37, 38, 39, 40, 41, 42, 43, 44, 45, 46, 47, 48, 49, 50, 51, 52, 53, 54, 55, 56, 57, 58, 59, 60, 61, 62, 63, 64, 65, 66, 67, 68, 69, 70, 71, 72, 73, 74, 75, 76, 77, 78, 79, 80, 81, 82, 83, 84, 85, 86, 87, 88, 89, 90, 91, 92, 93, 94, 95, 96, 97, 98, 99, 100, 101, 102, 103, 104, 105, 106, 107, 108, 109, 110, 111, 112, 113, 114, 115, 116, 117, 118, 119, 120, 121, 122, 123, 124, 125, 126, 127, 128, 129, 130, 131, 132, 133, 134, 135, 136, 137, 138, 139, 140, 141, 142, 143, 144, 145, 146, 147, 148, 149, 150, 151, 152, 153, 154, 155, 156, 157, 158, 159, 160, 161, 162, 163, 164],
      "AcquisitionTime": ["184414.210000", "184415.710000", "184417.210000", "184418.710000", "184420.210000", "184421.710000", "184423.210000", "184424.710000", "184426.210000", "184427.710000", "184429.210000", "184430.710000", "184432.210000", "184433.710000", "184435.210000", "184436.710000", "184438.210000", "184439.710000", "184441.210000", "184442.710000", "184444.210000", "184445.710000", "184447.210000", "184448.710000", "184450.210000", "184451.710000", "184453.210000", "184454.710000", "184456.210000", "184457.710000", "184459.210000", "184500.710000", "184502.210000", "184503.710000", "184505.210000", "184506.710000", "184508.210000", "184509.710000", "184511.210000", "184512.710000", "184514.210000", "184515.710000", "184517.210000", "184518.710000", "184520.210000", "184521.710000", "184523.210000", "184524.710000", "184526.210000", "184527.710000", "184529.210000", "184530.710000", "184532.210000", "184533.710000", "184535.210000", "184536.710000", "184538.210000", "184539.710000", "184541.210000", "184542.710000", "184544.210000", "184545.710000", "184547.210000", "184548.710000", "184550.210000", "184551.710000", "184553.210000", "184554.710000", "184556.210000", "184557.710000", "184559.210000", "184600.710000", "184602.210000", "184603.710000", "184605.210000", "184606.710000", "184608.210000", "184609.710000", "184611.210000", "184612.710000", "184614.210000", "184615.710000", "184617.210000", "184618.710000", "184620.210000", "184621.710000", "184623.210000", "184624.710000", "184626.210000", "184627.710000", "184629.210000", "184630.710000", "184632.210000", "184633.710000", "184635.210000", "184636.710000", "184638.210000", "184639.710000", "184641.210000", "184642.710000", "184644.210000", "184645.710000", "184647.210000", "184648.710000", "184650.210000", "184651.710000", "184653.210000", "184654.710000", "184656.210000", "184657.710000", "184659.210000", "184700.710000", "184702.210000", "184703.710000", "184705.210000", "184706.710000", "184708.210000", "184709.710000", "184711.210000", "184712.710000", "184714.210000", "184715.710000", "184717.210000", "184718.710000", "184720.210000", "184721.710000", "184723.210000", "184724.710000", "184726.210000", "184727.710000", "184729.210000", "184730.710000", "184732.210000", "184733.710000", "184735.210000", "184736.710000", "184738.210000", "184739.710000", "184741.210000", "184742.710000", "184744.210000", "184745.710000", "184747.210000", "184748.710000", "184750.210000", "184751.710000", "184753.210000", "184754.710000", "184756.210000", "184757.710000", "184759.210000", "184800.710000", "184802.210000", "184803.710000", "184805.210000", "184806.710000", "184808.210000", "184809.710000", "184811.210000", "184812.710000", "184814.210000", "184815.710000", "184817.210000", "184818.710000"],
      "ContentTime": ["184444.659000", "184444.663000", "184444.666000", "184444.669000", "184444.672000", "184444.675000", "184444.678000", "184444.681000", "184444.684000", "184444.687000", "184444.690000", "184444.693000", "184444.696000", "184444.699000", "184444.702000", "184444.713000", "184444.716000", "184444.719000", "184444.722000", "184444.725000", "184524.654000", "184524.657000", "184524.660000", "184524.663000", "184524.666000", "184524.670000", "184524.673000", "184524.676000", "184524.679000", "184524.682000", "184524.690000", "184524.693000", "184524.696000", "184524.699000", "184524.702000", "184524.705000", "184524.708000", "184524.711000", "184524.714000", "184524.717000", "184524.720000", "184524.723000", "184524.726000", "184524.729000", "184524.732000", "184524.735000", "184524.738000", "184604.655000", "184604.658000", "184604.661000", "184604.664000", "184604.667000", "184604.670000", "184604.673000", "184604.676000", "184604.679000", "184604.682000", "184604.685000", "184604.688000", "184604.691000", "184604.694000", "184604.697000", "184604.700000", "184604.703000", "184604.706000", "184604.709000", "184604.712000", "184604.725000", "184604.728000", "184604.731000", "184604.734000", "184604.737000", "184604.745000", "184644.655000", "184644.658000", "184644.661000", "184644.664000", "184644.667000", "184644.670000", "184644.673000", "184644.676000", "184644.689000", "184644.692000", "184644.695000", "184644.698000", "184644.701000", "184644.704000", "184644.734000", "184644.737000", "184644.740000", "184644.743000", "184644.746000", "184644.749000", "184644.752000", "184644.755000", "184644.758000", "184644.761000", "184644.764000", "184644.767000", "184644.770000", "184724.654000", "184724.657000", "184724.660000", "184724.663000", "184724.666000", "184724.669000", "184724.672000", "184724.675000", "184724.678000", "184724.681000", "184724.684000", "184724.687000", "184724.690000", "184724.693000", "184724.696000", "184724.699000", "184724.702000", "184724.705000", "184724.708000", "184724.711000", "184724.714000", "184724.717000", "184724.720000", "184724.723000", "184724.726000", "184724.729000", "184724.732000", "184804.655000", "184804.658000", "184804.661000", "184804.664000", "184804.667000", "184804.670000", "184804.673000", "184804.676000", "184804.679000", "184804.682000", "184804.685000", "184804.688000", "184804.691000", "184804.694000", "184804.697000", "184804.700000", "184804.703000", "184804.706000", "184804.709000", "184804.712000", "184804.715000", "184804.718000", "184804.721000", "184804.724000", "184804.727000", "184804.730000", "184820.014000", "184820.017000", "184820.020000", "184820.024000", "184820.027000", "184820.030000", "184820.033000", "184820.036000", "184820.039000", "184820.042000", "184820.046000"],
      "InstanceCreationTime": ["184444.659000", "184444.663000", "184444.666000", "184444.669000", "184444.672000", "184444.675000", "184444.678000", "184444.681000", "184444.684000", "184444.687000", "184444.690000", "184444.693000", "184444.696000", "184444.699000", "184444.702000", "184444.713000", "184444.716000", "184444.719000", "184444.722000", "184444.725000", "184524.654000", "184524.657000", "184524.660000", "184524.663000", "184524.666000", "184524.670000", "184524.673000", "184524.676000", "184524.679000", "184524.682000", "184524.690000", "184524.693000", "184524.696000", "184524.699000", "184524.702000", "184524.705000", "184524.708000", "184524.711000", "184524.714000", "184524.717000", "184524.720000", "184524.723000", "184524.726000", "184524.729000", "184524.732000", "184524.735000", "184524.738000", "184604.655000", "184604.658000", "184604.661000", "184604.664000", "184604.667000", "184604.670000", "184604.673000", "184604.676000", "184604.679000", "184604.682000", "184604.685000", "184604.688000", "184604.691000", "184604.694000", "184604.697000", "184604.700000", "184604.703000", "184604.706000", "184604.709000", "184604.712000", "184604.725000", "184604.728000", "184604.731000", "184604.734000", "184604.737000", "184604.745000", "184644.655000", "184644.658000", "184644.661000", "184644.664000", "184644.667000", "184644.670000", "184644.673000", "184644.676000", "184644.689000", "184644.692000", "184644.695000", "184644.698000", "184644.701000", "184644.704000", "184644.734000", "184644.737000", "184644.740000", "184644.743000", "184644.746000", "184644.749000", "184644.752000", "184644.755000", "184644.758000", "184644.761000", "184644.764000", "184644.767000", "184644.770000", "184724.654000", "184724.657000", "184724.660000", "184724.663000", "184724.666000", "184724.669000", "184724.672000", "184724.675000", "184724.678000", "184724.681000", "184724.684000", "184724.687000", "184724.690000", "184724.693000", "184724.696000", "184724.699000", "184724.702000", "184724.705000", "184724.708000", "184724.711000", "184724.714000", "184724.717000", "184724.720000", "184724.723000", "184724.726000", "184724.729000", "184724.732000", "184804.655000", "184804.658000", "184804.661000", "184804.664000", "184804.667000", "184804.670000", "184804.673000", "184804.676000", "184804.679000", "184804.682000", "184804.685000", "184804.688000", "184804.691000", "184804.694000", "184804.697000", "184804.700000", "184804.703000", "184804.706000", "184804.709000", "184804.712000", "184804.715000", "184804.718000", "184804.721000", "184804.724000", "184804.727000", "184804.730000", "184820.014000", "184820.017000", "184820.020000", "184820.024000", "184820.027000", "184820.030000", "184820.033000", "184820.036000", "184820.039000", "184820.042000", "184820.046000"],
      "InstanceNumber": [1, 2, 3, 4, 5, 6, 7, 8, 9, 10, 11, 12, 13, 14, 15, 16, 17, 18, 19, 20, 21, 22, 23, 24, 25, 26, 27, 28, 29, 30, 31, 32, 33, 34, 35, 36, 37, 38, 39, 40, 41, 42, 43, 44, 45, 46, 47, 48, 49, 50, 51, 52, 53, 54, 55, 56, 57, 58, 59, 60, 61, 62, 63, 64, 65, 66, 67, 68, 69, 70, 71, 72, 73, 74, 75, 76, 77, 78, 79, 80, 81, 82, 83, 84, 85, 86, 87, 88, 89, 90, 91, 92, 93, 94, 95, 96, 97, 98, 99, 100, 101, 102, 103, 104, 105, 106, 107, 108, 109, 110, 111, 112, 113, 114, 115, 116, 117, 118, 119, 120, 121, 122, 123, 124, 125, 126, 127, 128, 129, 130, 131, 132, 133, 134, 135, 136, 137, 138, 139, 140, 141, 142, 143, 144, 145, 146, 147, 148, 149, 150, 151, 152, 153, 154, 155, 156, 157, 158, 159, 160, 161, 162, 163, 164],
      "LargestImagePixelValue": [2348, 2211, 2196, 2137, 2149, 2142, 2124, 2128, 2140, 2141, 2114, 2119, 2123, 2135, 2126, 2137, 2152, 2129, 2129, 2134, 2130, 2129, 2131, 2147, 2143, 2144, 2128, 2135, 2144, 2143, 2145, 2153, 2173, 2173, 2139, 2143, 2130, 2131, 2142, 2132, 2135, 2157, 2128, 2165, 2146, 2147, 2148, 2143, 2195, 2131, 2161, 2136, 2159, 2139, 2136, 2148, 2139, 2134, 2151, 2154, 2133, 2160, 2138, 2135, 2157, 2141, 2146, 2156, 2184, 2183, 2161, 2205, 2181, 2177, 2179, 2181, 2167, 2175, 2143, 2184, 2149, 2158, 2148, 2151, 2153, 2179, 2181, 2158, 2144, 2174, 2147, 2157, 2170, 2175, 2170, 2184, 2179, 2159, 2156, 2195, 2140, 2175, 2170, 2155, 2176, 2163, 2161, 2174, 2160, 2150, 2145, 2161, 2143, 2157, 2179, 2140, 2161, 2152, 2155, 2152, 2165, 2148, 2151, 2170, 2176, 2176, 2186, 2176, 2153, 2174, 2140, 2156, 2157, 2164, 2163, 2137, 2169, 2144, 2150, 2146, 2138, 2145, 2143, 2172, 2184, 2166, 2170, 2158, 2156, 2153, 2159, 2146, 2170, 2165, 2153, 2156, 2152, 2155, 2152, 2164, 2135, 2153, 2163, 2166],
      "WindowCenter": [727.0, 724.0, 723.0, 721.0, 720.0, 720.0, 720.0, 721.0, 721.0, 722.0, 721.0, 721.0, 721.0, 720.0, 721.0, 721.0, 721.0, 721.0, 720.0, 719.0, 719.0, 720.0, 720.0, 722.0, 722.0, 722.0, 722.0, 721.0, 720.0, 720.0, 720.0, 722.0, 723.0, 723.0, 723.0, 722.0, 721.0, 721.0, 721.0, 721.0, 722.0, 723.0, 723.0, 723.0, 722.0, 721.0, 722.0, 722.0, 722.0, 722.0, 722.0, 722.0, 723.0, 723.0, 722.0, 722.0, 721.0, 721.0, 722.0, 722.0, 722.0, 722.0, 722.0, 721.0, 721.0, 721.0, 722.0, 721.0, 722.0, 722.0, 722.0, 723.0, 723.0, 723.0, 722.0, 722.0, 723.0, 723.0, 722.0, 722.0, 721.0, 721.0, 721.0, 722.0, 722.0, 722.0, 723.0, 723.0, 723.0, 722.0, 722.0, 722.0, 722.0, 723.0, 723.0, 723.0, 723.0, 722.0, 721.0, 721.0, 721.0, 722.0, 722.0, 722.0, 723.0, 722.0, 722.0, 722.0, 723.0, 722.0, 723.0, 723.0, 722.0, 722.0, 722.0, 721.0, 722.0, 722.0, 722.0, 722.0, 722.0, 722.0, 722.0, 722.0, 722.0, 722.0, 723.0, 723.0, 724.0, 724.0, 723.0, 723.0, 722.0, 722.0, 722.0, 722.0, 723.0, 722.0, 722.0, 722.0, 722.0, 722.0, 723.0, 723.0, 723.0, 723.0, 724.0, 724.0, 723.0, 723.0, 722.0, 722.0, 723.0, 723.0, 723.0, 722.0, 722.0, 722.0, 723.0, 723.0, 723.0, 724.0, 725.0, 724.0],
      "WindowWidth": [1566.0, 1560.0, 1556.0, 1551.0, 1548.0, 1548.0, 1550.0, 1551.0, 1552.0, 1552.0, 1552.0, 1553.0, 1552.0, 1549.0, 1550.0, 1552.0, 1552.0, 1551.0, 1548.0, 1547.0, 1546.0, 1548.0, 1550.0, 1553.0, 1555.0, 1555.0, 1554.0, 1552.0, 1549.0, 1549.0, 1550.0, 1553.0, 1556.0, 1556.0, 1556.0, 1554.0, 1552.0, 1551.0, 1551.0, 1552.0, 1554.0, 1556.0, 1556.0, 1556.0, 1553.0, 1552.0, 1553.0, 1554.0, 1554.0, 1553.0, 1554.0, 1555.0, 1556.0, 1556.0, 1555.0, 1553.0, 1551.0, 1552.0, 1553.0, 1553.0, 1554.0, 1555.0, 1554.0, 1551.0, 1551.0, 1552.0, 1553.0, 1553.0, 1553.0, 1553.0, 1555.0, 1558.0, 1557.0, 1555.0, 1554.0, 1555.0, 1556.0, 1557.0, 1554.0, 1553.0, 1551.0, 1552.0, 1552.0, 1553.0, 1554.0, 1555.0, 1556.0, 1557.0, 1555.0, 1555.0, 1553.0, 1554.0, 1554.0, 1555.0, 1556.0, 1557.0, 1556.0, 1553.0, 1552.0, 1552.0, 1552.0, 1553.0, 1554.0, 1555.0, 1556.0, 1554.0, 1554.0, 1555.0, 1555.0, 1554.0, 1555.0, 1556.0, 1554.0, 1554.0, 1554.0, 1552.0, 1553.0, 1553.0, 1553.0, 1553.0, 1554.0, 1554.0, 1555.0, 1553.0, 1553.0, 1554.0, 1555.0, 1557.0, 1558.0, 1559.0, 1556.0, 1555.0, 1555.0, 1553.0, 1554.0, 1554.0, 1556.0, 1555.0, 1554.0, 1553.0, 1554.0, 1555.0, 1556.0, 1556.0, 1557.0, 1557.0, 1559.0, 1558.0, 1556.0, 1555.0, 1554.0, 1555.0, 1557.0, 1556.0, 1555.0, 1555.0, 1554.0, 1555.0, 1556.0, 1557.0, 1557.0, 1560.0, 1562.0, 1559.0]
    },
    "slices": {}
  }
}