{
  "AcquisitionMatrixPE": 72,
  "AcquisitionNumber": 1,
  "AcquisitionTime": "18:49:22.495000",
  "BandwidthPerPixelPhaseEncode": 17.943,
  "BaseResolution": 96,
  "BodyPartExamined": "BRAIN",
  "CoilCombinationMethod": "Sum of Squares",
  "ConsistencyInfo": "N4_VE11C_LATEST_20160120",
  "ConversionSoftware": "dcm2niix",
  "ConversionSoftwareVersion": "v1.0.20211006",
  "DerivedVendorReportedEchoSpacing": 0.000552897,
  "DeviceSerialNumber": "166011",
  "EchoTime": 0.03,
  "EchoTrainLength": 58,
  "EffectiveEchoSpacing": 0.000580542,
  "FlipAngle": 62,
  "ImageOrientationPatientDICOM": [0.997791, -0.028044, 0.0602262, 0.0351923, 0.992014, -0.121119],
  "ImageType": [
    "ORIGINAL",
    "PRIMARY",
    "M",
    "ND",
    "MOSAIC"
],
  "ImagingFrequency": 123.259,
  "InPlanePhaseEncodingDirectionDICOM": "COL",
  "InstitutionAddress": "West 130th Street 610,NY,NYC,US,10025",
  "InstitutionName": "MBBI",
  "MRAcquisitionType": "2D",
  "MagneticFieldStrength": 3,
  "Manufacturer": "Siemens",
  "ManufacturersModelName": "Prisma",
  "Modality": "MR",
  "MultibandAccelerationFactor": 3,
  "PartialFourier": 0.75,
  "PatientPosition": "HFS",
  "PercentPhaseFOV": 100,
  "PercentSampling": 75,
  "PhaseEncodingDirection": "j-",
  "PhaseEncodingSteps": 58,
  "PhaseOversampling": 0.05,
  "PhaseResolution": 0.75,
  "PixelBandwidth": 2265,
  "ProcedureStepDescription": "White^Word_recognition",
  "ProtocolName": "func_vwfate_run4",
  "PulseSequenceDetails": "%SiemensSeq%\\ep2d_bold",
  "ReceiveCoilActiveElements": "HC1-7",
  "ReceiveCoilName": "HeadNeck_64",
  "ReconMatrixPE": 96,
  "RefLinesPE": 40,
  "RepetitionTime": 1.5,
  "SAR": 0.0474231,
  "ScanOptions": "PFP\\FS",
  "ScanningSequence": "EP",
  "SequenceName": "*epfid2d1_72",
  "SequenceVariant": "SK\\OSP",
  "SeriesDescription": "func_vwfate_run4",
  "SeriesNumber": 12,
  "ShimSetting": [-1131, -1351, 692, 538, -55, 97, -18, -9],
  "SliceThickness": 2,
  "SliceTiming": [1.075, 0, 0.74, 0.0675, 0.8075, 0.135, 0.875, 0.2025, 0.9425, 0.2675, 1.0075, 0.4025, 1.1425, 0.47, 1.21, 0.5375, 1.2775, 0.605, 1.345, 0.6725, 1.4125, 0.335, 1.075, 0, 0.74, 0.0675, 0.8075, 0.135, 0.875, 0.2025, 0.9425, 0.2675, 1.0075, 0.4025, 1.1425, 0.47, 1.21, 0.5375, 1.2775, 0.605, 1.345, 0.6725, 1.4125, 0.335, 1.075, 0, 0.74, 0.0675, 0.8075, 0.135, 0.875, 0.2025, 0.9425, 0.2675, 1.0075, 0.4025, 1.1425, 0.47, 1.21, 0.5375, 1.2775, 0.605, 1.345, 0.6725, 1.4125, 0.335],
  "SoftwareVersions": "syngo MR E11",
  "SpacingBetweenSlices": 2,
  "StationName": "AWP166011",
  "TaskName": "vwfate",
  "TotalReadoutTime": 0.0551515,
  "TxRefAmp": 228.376,
  "dcmmeta_affine": [
    [-1.9955815076828003, 0.07038458436727524, 0.112697072327137, 92.5066909790039],
    [0.056087903678417206, 1.9840278625488281, -0.24594242870807648, -72.6191635131836],
    [0.12045234441757202, 0.2422386109828949, 1.9816184043884277, -88.25450897216797],
    [0.0, 0.0, 0.0, 1.0]
],
  "dcmmeta_reorient_transform": [
    [0.0, -1.0, 0.0, 95.0],
    [1.0, 0.0, 0.0, 0.0],
    [0.0, 0.0, 1.0, 0.0],
    [0.0, 0.0, 0.0, 1.0]
],
  "dcmmeta_shape": [96, 96, 66, 164],
  "dcmmeta_slice_dim": 2,
  "dcmmeta_version": 0.6,
  "global": {
    "const": {
      "AcquisitionMatrix": [96, 0, 0, 72],
      "AngioFlag": "N",
      "BitsAllocated": 16,
      "BitsStored": 12,
      "BodyPartExamined": "BRAIN",
      "Columns": 864,
      "EchoNumbers": 1,
      "EchoTime": 30.0,
      "EchoTrainLength": 58,
      "FlipAngle": 62.0,
      "HighBit": 11,
      "ImageOrientationPatient": [0.99779073205804, -0.0280439511388, 0.0602261722477, 0.03519229116502, 0.99201391966704, -0.1211193041153],
      "ImagePositionPatient": [-892.52419153629, -856.19241570817, -18.475919515575],
      "ImageType": [
        "ORIGINAL",
        "PRIMARY",
        "M",
        "ND",
        "MOSAIC"
],
      "ImagedNucleus": "1H",
      "ImagingFrequency": 123.259433,
      "InPlanePhaseEncodingDirection": "COL",
      "MRAcquisitionType": "2D",
      "MagneticFieldStrength": 3.0,
      "Manufacturer": "SIEMENS",
      "ManufacturerModelName": "Prisma",
      "Modality": "MR",
      "NumberOfAverages": 1.0,
      "NumberOfPhaseEncodingSteps": 58,
      "PercentPhaseFieldOfView": 100.0,
      "PercentSampling": 75.0,
      "PerformedProcedureStepStartTime": "180711.868000",
      "PhotometricInterpretation": "MONOCHROME2",
      "PixelBandwidth": 2265.0,
      "PixelRepresentation": 0,
      "PixelSpacing": [2.0, 2.0],
      "ProtocolName": "func_vwfate_run4",
      "RepetitionTime": 1500.0,
      "Rows": 864,
      "SAR": 0.04742311922172,
      "SamplesPerPixel": 1,
      "ScanOptions": [
        "PFP",
        "FS"
],
      "ScanningSequence": "EP",
      "SequenceName": "*epfid2d1_72",
      "SequenceVariant": [
        "SK",
        "OSP"
],
      "SeriesDescription": "func_vwfate_run4",
      "SeriesNumber": 12,
      "SeriesTime": "185004.729000",
      "SliceLocation": -73.300701354264,
      "SliceThickness": 2.0,
      "SmallestImagePixelValue": 0,
      "SoftwareVersions": "syngo MR E11",
      "SpacingBetweenSlices": 1.9999999887751,
      "SpecificCharacterSet": "ISO_IR 100",
      "StudyID": "2",
      "StudyTime": "180711.816000",
      "TransmitCoilName": "Body",
      "VariableFlipAngleFlag": "N",
      "WindowCenterWidthExplanation": "Algo1",
      "dBdt": 0.0},
    "slices": {}
  },
  "time": {
    "samples": {
      "AcquisitionNumber": [1, 2, 3, 4, 5, 6, 7, 8, 9, 10, 11, 12, 13, 14, 15, 16, 17, 18, 19, 20, 21, 22, 23, 24, 25, 26, 27, 28, 29, 30, 31, 32, 33, 34, 35, 36, 37, 38, 39, 40, 41, 42, 43, 44, 45, 46, 47, 48, 49, 50, 51, 52, 53, 54, 55, 56, 57, 58, 59, 60, 61, 62, 63, 64, 65, 66, 67, 68, 69, 70, 71, 72, 73, 74, 75, 76, 77, 78, 79, 80, 81, 82, 83, 84, 85, 86, 87, 88, 89, 90, 91, 92, 93, 94, 95, 96, 97, 98, 99, 100, 101, 102, 103, 104, 105, 106, 107, 108, 109, 110, 111, 112, 113, 114, 115, 116, 117, 118, 119, 120, 121, 122, 123, 124, 125, 126, 127, 128, 129, 130, 131, 132, 133, 134, 135, 136, 137, 138, 139, 140, 141, 142, 143, 144, 145, 146, 147, 148, 149, 150, 151, 152, 153, 154, 155, 156, 157, 158, 159, 160, 161, 162, 163, 164],
      "AcquisitionTime": ["184922.495000", "184923.995000", "184925.495000", "184926.995000", "184928.495000", "184929.995000", "184931.495000", "184932.995000", "184934.495000", "184935.995000", "184937.495000", "184938.995000", "184940.495000", "184941.995000", "184943.495000", "184944.995000", "184946.495000", "184947.995000", "184949.495000", "184950.995000", "184952.495000", "184953.995000", "184955.495000", "184956.995000", "184958.495000", "184959.995000", "185001.495000", "185002.995000", "185004.495000", "185005.995000", "185007.495000", "185008.995000", "185010.495000", "185011.995000", "185013.495000", "185014.995000", "185016.495000", "185017.995000", "185019.495000", "185020.995000", "185022.495000", "185023.995000", "185025.495000", "185026.995000", "185028.495000", "185029.995000", "185031.495000", "185032.995000", "185034.495000", "185035.995000", "185037.495000", "185038.995000", "185040.495000", "185041.995000", "185043.495000", "185044.995000", "185046.495000", "185047.995000", "185049.495000", "185050.995000", "185052.495000", "185053.995000", "185055.495000", "185056.995000", "185058.495000", "185059.995000", "185101.495000", "185102.995000", "185104.495000", "185105.995000", "185107.495000", "185108.995000", "185110.495000", "185111.995000", "185113.495000", "185114.995000", "185116.495000", "185117.995000", "185119.495000", "185120.995000", "185122.495000", "185123.995000", "185125.495000", "185126.995000", "185128.495000", "185129.995000", "185131.495000", "185132.995000", "185134.495000", "185135.995000", "185137.495000", "185138.995000", "185140.495000", "185141.995000", "185143.495000", "185144.995000", "185146.495000", "185147.995000", "185149.495000", "185150.995000", "185152.495000", "185153.995000", "185155.495000", "185156.995000", "185158.495000", "185159.995000", "185201.495000", "185202.995000", "185204.495000", "185205.995000", "185207.495000", "185208.995000", "185210.495000", "185211.995000", "185213.495000", "185214.995000", "185216.495000", "185217.995000", "185219.495000", "185220.995000", "185222.495000", "185223.995000", "185225.495000", "185226.995000", "185228.495000", "185229.995000", "185231.495000", "185232.995000", "185234.495000", "185235.995000", "185237.495000", "185238.995000", "185240.495000", "185241.995000", "185243.495000", "185244.995000", "185246.495000", "185247.995000", "185249.495000", "185250.995000", "185252.495000", "185253.995000", "185255.495000", "185256.995000", "185258.495000", "185259.995000", "185301.495000", "185302.995000", "185304.495000", "185305.995000", "185307.495000", "185308.995000", "185310.495000", "185311.995000", "185313.495000", "185314.995000", "185316.495000", "185317.995000", "185319.495000", "185320.995000", "185322.495000", "185323.995000", "185325.495000", "185326.995000"],
      "ContentTime": ["185004.733000", "185004.737000", "185004.740000", "185004.743000", "185004.746000", "185004.754000", "185004.762000", "185004.765000", "185004.768000", "185004.771000", "185004.774000", "185004.777000", "185004.780000", "185004.783000", "185004.786000", "185004.789000", "185004.792000", "185004.795000", "185004.798000", "185004.801000", "185004.804000", "185004.807000", "185004.810000", "185004.813000", "185004.834000", "185004.837000", "185004.840000", "185004.843000", "185044.729000", "185044.732000", "185044.735000", "185044.738000", "185044.741000", "185044.744000", "185044.747000", "185044.750000", "185044.753000", "185044.756000", "185044.759000", "185044.762000", "185044.765000", "185044.768000", "185044.771000", "185044.774000", "185044.785000", "185044.788000", "185044.791000", "185044.794000", "185044.797000", "185044.800000", "185044.803000", "185044.806000", "185044.809000", "185044.812000", "185124.729000", "185124.732000", "185124.735000", "185124.738000", "185124.741000", "185124.744000", "185124.747000", "185124.750000", "185124.753000", "185124.756000", "185124.759000", "185124.762000", "185124.765000", "185124.768000", "185124.771000", "185124.774000", "185124.777000", "185124.780000", "185124.783000", "185124.791000", "185124.794000", "185124.797000", "185124.800000", "185124.803000", "185124.806000", "185124.809000", "185124.812000", "185204.728000", "185204.731000", "185204.734000", "185204.737000", "185204.740000", "185204.743000", "185204.746000", "185204.749000", "185204.752000", "185204.755000", "185204.758000", "185204.761000", "185204.764000", "185204.767000", "185204.770000", "185204.773000", "185204.776000", "185204.779000", "185204.782000", "185204.785000", "185204.788000", "185204.791000", "185204.794000", "185204.797000", "185204.800000", "185204.803000", "185204.806000", "185244.729000", "185244.732000", "185244.735000", "185244.738000", "185244.741000", "185244.744000", "185244.747000", "185244.750000", "185244.753000", "185244.756000", "185244.759000", "185244.762000", "185244.765000", "185244.768000", "185244.771000", "185244.774000", "185244.777000", "185244.780000", "185244.783000", "185244.786000", "185244.789000", "185244.792000", "185244.795000", "185244.798000", "185244.801000", "185244.804000", "185324.729000", "185324.732000", "185324.735000", "185324.738000", "185324.741000", "185324.744000", "185324.747000", "185324.750000", "185324.753000", "185324.756000", "185324.759000", "185324.762000", "185324.765000", "185324.768000", "185324.771000", "185324.774000", "185324.777000", "185324.780000", "185324.783000", "185324.786000", "185324.789000", "185324.792000", "185324.795000", "185324.798000", "185324.801000", "185324.804000", "185324.807000", "185328.369000", "185328.372000", "185328.375000"],
      "InstanceCreationTime": ["185004.733000", "185004.737000", "185004.740000", "185004.743000", "185004.746000", "185004.754000", "185004.762000", "185004.765000", "185004.768000", "185004.771000", "185004.774000", "185004.777000", "185004.780000", "185004.783000", "185004.786000", "185004.789000", "185004.792000", "185004.795000", "185004.798000", "185004.801000", "185004.804000", "185004.807000", "185004.810000", "185004.813000", "185004.834000", "185004.837000", "185004.840000", "185004.843000", "185044.729000", "185044.732000", "185044.735000", "185044.738000", "185044.741000", "185044.744000", "185044.747000", "185044.750000", "185044.753000", "185044.756000", "185044.759000", "185044.762000", "185044.765000", "185044.768000", "185044.771000", "185044.774000", "185044.785000", "185044.788000", "185044.791000", "185044.794000", "185044.797000", "185044.800000", "185044.803000", "185044.806000", "185044.809000", "185044.812000", "185124.729000", "185124.732000", "185124.735000", "185124.738000", "185124.741000", "185124.744000", "185124.747000", "185124.750000", "185124.753000", "185124.756000", "185124.759000", "185124.762000", "185124.765000", "185124.768000", "185124.771000", "185124.774000", "185124.777000", "185124.780000", "185124.783000", "185124.791000", "185124.794000", "185124.797000", "185124.800000", "185124.803000", "185124.806000", "185124.809000", "185124.812000", "185204.728000", "185204.731000", "185204.734000", "185204.737000", "185204.740000", "185204.743000", "185204.746000", "185204.749000", "185204.752000", "185204.755000", "185204.758000", "185204.761000", "185204.764000", "185204.767000", "185204.770000", "185204.773000", "185204.776000", "185204.779000", "185204.782000", "185204.785000", "185204.788000", "185204.791000", "185204.794000", "185204.797000", "185204.800000", "185204.803000", "185204.806000", "185244.729000", "185244.732000", "185244.735000", "185244.738000", "185244.741000", "185244.744000", "185244.747000", "185244.750000", "185244.753000", "185244.756000", "185244.759000", "185244.762000", "185244.765000", "185244.768000", "185244.771000", "185244.774000", "185244.777000", "185244.780000", "185244.783000", "185244.786000", "185244.789000", "185244.792000", "185244.795000", "185244.798000", "185244.801000", "185244.804000", "185324.729000", "185324.732000", "185324.735000", "185324.738000", "185324.741000", "185324.744000", "185324.747000", "185324.750000", "185324.753000", "185324.756000", "185324.759000", "185324.762000", "185324.765000", "185324.768000", "185324.771000", "185324.774000", "185324.777000", "185324.780000", "185324.783000", "185324.786000", "185324.789000", "185324.792000", "185324.795000", "185324.798000", "185324.801000", "185324.804000", "185324.807000", "185328.369000", "185328.372000", "185328.375000"],
      "InstanceNumber": [1, 2, 3, 4, 5, 6, 7, 8, 9, 10, 11, 12, 13, 14, 15, 16, 17, 18, 19, 20, 21, 22, 23, 24, 25, 26, 27, 28, 29, 30, 31, 32, 33, 34, 35, 36, 37, 38, 39, 40, 41, 42, 43, 44, 45, 46, 47, 48, 49, 50, 51, 52, 53, 54, 55, 56, 57, 58, 59, 60, 61, 62, 63, 64, 65, 66, 67, 68, 69, 70, 71, 72, 73, 74, 75, 76, 77, 78, 79, 80, 81, 82, 83, 84, 85, 86, 87, 88, 89, 90, 91, 92, 93, 94, 95, 96, 97, 98, 99, 100, 101, 102, 103, 104, 105, 106, 107, 108, 109, 110, 111, 112, 113, 114, 115, 116, 117, 118, 119, 120, 121, 122, 123, 124, 125, 126, 127, 128, 129, 130, 131, 132, 133, 134, 135, 136, 137, 138, 139, 140, 141, 142, 143, 144, 145, 146, 147, 148, 149, 150, 151, 152, 153, 154, 155, 156, 157, 158, 159, 160, 161, 162, 163, 164],
      "LargestImagePixelValue": [2241, 2190, 2161, 2171, 2158, 2154, 2160, 2122, 2171, 2163, 2165, 2159, 2172, 2130, 2150, 2137, 2150, 2147, 2146, 2156, 2147, 2168, 2142, 2159, 2143, 2195, 2163, 2159, 2142, 2173, 2148, 2153, 2154, 2146, 2141, 2166, 2175, 2148, 2161, 2146, 2142, 2154, 2168, 2149, 2158, 2157, 2169, 2154, 2162, 2170, 2166, 2146, 2154, 2153, 2151, 2145, 2145, 2142, 2162, 2168, 2169, 2146, 2156, 2154, 2155, 2137, 2169, 2162, 2146, 2148, 2133, 2146, 2164, 2144, 2138, 2165, 2128, 2156, 2168, 2138, 2148, 2159, 2152, 2130, 2148, 2121, 2142, 2127, 2144, 2124, 2158, 2125, 2146, 2148, 2152, 2139, 2162, 2133, 2160, 2140, 2186, 2147, 2133, 2136, 2128, 2142, 2138, 2136, 2152, 2143, 2140, 2158, 2156, 2152, 2140, 2142, 2138, 2164, 2157, 2164, 2157, 2149, 2155, 2156, 2146, 2164, 2156, 2134, 2169, 2135, 2191, 2159, 2136, 2143, 2139, 2145, 2158, 2154, 2163, 2139, 2126, 2143, 2147, 2144, 2144, 2143, 2162, 2158, 2147, 2162, 2160, 2172, 2155, 2159, 2154, 2156, 2152, 2133, 2142, 2140, 2136, 2151, 2136, 2152],
      "WindowCenter": [724.0, 724.0, 723.0, 721.0, 720.0, 718.0, 718.0, 719.0, 720.0, 721.0, 720.0, 720.0, 720.0, 719.0, 720.0, 720.0, 720.0, 720.0, 720.0, 720.0, 720.0, 721.0, 721.0, 721.0, 721.0, 721.0, 721.0, 720.0, 720.0, 720.0, 721.0, 722.0, 722.0, 721.0, 721.0, 721.0, 722.0, 722.0, 722.0, 721.0, 721.0, 721.0, 721.0, 721.0, 721.0, 721.0, 721.0, 721.0, 720.0, 721.0, 721.0, 721.0, 722.0, 720.0, 720.0, 720.0, 721.0, 722.0, 722.0, 722.0, 722.0, 721.0, 720.0, 720.0, 721.0, 721.0, 723.0, 723.0, 721.0, 721.0, 721.0, 721.0, 721.0, 721.0, 721.0, 722.0, 722.0, 722.0, 722.0, 722.0, 722.0, 721.0, 721.0, 720.0, 721.0, 721.0, 721.0, 721.0, 721.0, 721.0, 723.0, 723.0, 722.0, 722.0, 722.0, 721.0, 722.0, 721.0, 721.0, 720.0, 720.0, 720.0, 721.0, 722.0, 722.0, 722.0, 721.0, 721.0, 720.0, 721.0, 721.0, 722.0, 723.0, 722.0, 722.0, 722.0, 721.0, 722.0, 722.0, 722.0, 722.0, 722.0, 722.0, 722.0, 722.0, 721.0, 721.0, 722.0, 724.0, 724.0, 723.0, 722.0, 720.0, 719.0, 719.0, 720.0, 723.0, 724.0, 722.0, 721.0, 720.0, 720.0, 720.0, 721.0, 721.0, 722.0, 722.0, 723.0, 722.0, 723.0, 723.0, 723.0, 722.0, 723.0, 723.0, 722.0, 722.0, 722.0, 721.0, 721.0, 722.0, 723.0, 723.0, 722.0],
      "WindowWidth": [1560.0, 1558.0, 1555.0, 1552.0, 1547.0, 1544.0, 1544.0, 1547.0, 1550.0, 1551.0, 1550.0, 1548.0, 1548.0, 1546.0, 1548.0, 1549.0, 1549.0, 1549.0, 1550.0, 1550.0, 1550.0, 1552.0, 1552.0, 1552.0, 1552.0, 1552.0, 1550.0, 1549.0, 1549.0, 1550.0, 1551.0, 1553.0, 1554.0, 1552.0, 1551.0, 1552.0, 1554.0, 1554.0, 1554.0, 1552.0, 1551.0, 1553.0, 1552.0, 1551.0, 1552.0, 1552.0, 1552.0, 1551.0, 1550.0, 1551.0, 1551.0, 1552.0, 1553.0, 1550.0, 1549.0, 1548.0, 1551.0, 1553.0, 1555.0, 1555.0, 1554.0, 1551.0, 1550.0, 1550.0, 1551.0, 1553.0, 1556.0, 1555.0, 1552.0, 1550.0, 1551.0, 1551.0, 1552.0, 1552.0, 1552.0, 1554.0, 1553.0, 1553.0, 1554.0, 1555.0, 1553.0, 1552.0, 1550.0, 1549.0, 1550.0, 1551.0, 1551.0, 1551.0, 1551.0, 1552.0, 1556.0, 1556.0, 1555.0, 1554.0, 1553.0, 1552.0, 1553.0, 1552.0, 1551.0, 1549.0, 1548.0, 1549.0, 1551.0, 1554.0, 1554.0, 1553.0, 1551.0, 1550.0, 1550.0, 1550.0, 1552.0, 1555.0, 1556.0, 1555.0, 1553.0, 1552.0, 1550.0, 1553.0, 1554.0, 1554.0, 1553.0, 1553.0, 1554.0, 1555.0, 1554.0, 1553.0, 1552.0, 1553.0, 1559.0, 1558.0, 1558.0, 1553.0, 1549.0, 1547.0, 1547.0, 1550.0, 1556.0, 1558.0, 1554.0, 1551.0, 1548.0, 1548.0, 1549.0, 1550.0, 1551.0, 1553.0, 1554.0, 1555.0, 1554.0, 1555.0, 1556.0, 1556.0, 1554.0, 1555.0, 1556.0, 1555.0, 1555.0, 1553.0, 1550.0, 1551.0, 1553.0, 1557.0, 1556.0, 1555.0]
    },
    "slices": {}
  }
}