{
  "AcquisitionMatrixPE": 72,
  "AcquisitionNumber": 1,
  "AcquisitionTime": "19:06:42.925000",
  "BandwidthPerPixelPhaseEncode": 17.943,
  "BaseResolution": 96,
  "BodyPartExamined": "BRAIN",
  "CoilCombinationMethod": "Sum of Squares",
  "ConsistencyInfo": "N4_VE11C_LATEST_20160120",
  "ConversionSoftware": "dcm2niix",
  "ConversionSoftwareVersion": "v1.0.20211006",
  "DerivedVendorReportedEchoSpacing": 0.000552897,
  "DeviceSerialNumber": "166011",
  "EchoTime": 0.03,
  "EchoTrainLength": 58,
  "EffectiveEchoSpacing": 0.000580542,
  "FlipAngle": 62,
  "ImageOrientationPatientDICOM": [0.997791, -0.028044, 0.0602262, 0.0351923, 0.992014, -0.121119],
  "ImageType": [
    "ORIGINAL",
    "PRIMARY",
    "M",
    "ND",
    "MOSAIC"
],
  "ImagingFrequency": 123.259,
  "InPlanePhaseEncodingDirectionDICOM": "COL",
  "InstitutionAddress": "West 130th Street 610,NY,NYC,US,10025",
  "InstitutionName": "MBBI",
  "MRAcquisitionType": "2D",
  "MagneticFieldStrength": 3,
  "Manufacturer": "Siemens",
  "ManufacturersModelName": "Prisma",
  "Modality": "MR",
  "MultibandAccelerationFactor": 3,
  "PartialFourier": 0.75,
  "PatientPosition": "HFS",
  "PercentPhaseFOV": 100,
  "PercentSampling": 75,
  "PhaseEncodingDirection": "j-",
  "PhaseEncodingSteps": 58,
  "PhaseOversampling": 0.05,
  "PhaseResolution": 0.75,
  "PixelBandwidth": 2265,
  "ProcedureStepDescription": "White^Word_recognition",
  "ProtocolName": "func_vwfate_run6",
  "PulseSequenceDetails": "%SiemensSeq%\\ep2d_bold",
  "ReceiveCoilActiveElements": "HC1-7",
  "ReceiveCoilName": "HeadNeck_64",
  "ReconMatrixPE": 96,
  "RefLinesPE": 40,
  "RepetitionTime": 1.5,
  "SAR": 0.0474231,
  "ScanOptions": "PFP\\FS",
  "ScanningSequence": "EP",
  "SequenceName": "*epfid2d1_72",
  "SequenceVariant": "SK\\OSP",
  "SeriesDescription": "func_vwfate_run6",
  "SeriesNumber": 15,
  "ShimSetting": [-1131, -1351, 692, 538, -55, 97, -18, -9],
  "SliceThickness": 2,
  "SliceTiming": [1.0775, 0, 0.74, 0.0675, 0.8075, 0.135, 0.875, 0.2025, 0.9425, 0.27, 1.01, 0.405, 1.145, 0.4725, 1.2125, 0.54, 1.28, 0.6075, 1.3475, 0.6725, 1.4125, 0.3375, 1.0775, 0, 0.74, 0.0675, 0.8075, 0.135, 0.875, 0.2025, 0.9425, 0.27, 1.01, 0.405, 1.145, 0.4725, 1.2125, 0.54, 1.28, 0.6075, 1.3475, 0.6725, 1.4125, 0.3375, 1.0775, 0, 0.74, 0.0675, 0.8075, 0.135, 0.875, 0.2025, 0.9425, 0.27, 1.01, 0.405, 1.145, 0.4725, 1.2125, 0.54, 1.28, 0.6075, 1.3475, 0.6725, 1.4125, 0.3375],
  "SoftwareVersions": "syngo MR E11",
  "SpacingBetweenSlices": 2,
  "StationName": "AWP166011",
  "TaskName": "vwfate",
  "TotalReadoutTime": 0.0551515,
  "TxRefAmp": 228.376,
  "dcmmeta_affine": [
    [-1.9955815076828003, 0.07038458436727524, 0.112697072327137, 92.5066909790039],
    [0.056087903678417206, 1.9840278625488281, -0.24594242870807648, -72.6191635131836],
    [0.12045234441757202, 0.2422386109828949, 1.9816184043884277, -88.25450897216797],
    [0.0, 0.0, 0.0, 1.0]
],
  "dcmmeta_reorient_transform": [
    [0.0, -1.0, 0.0, 95.0],
    [1.0, 0.0, 0.0, 0.0],
    [0.0, 0.0, 1.0, 0.0],
    [0.0, 0.0, 0.0, 1.0]
],
  "dcmmeta_shape": [96, 96, 66, 164],
  "dcmmeta_slice_dim": 2,
  "dcmmeta_version": 0.6,
  "global": {
    "const": {
      "AcquisitionMatrix": [96, 0, 0, 72],
      "AngioFlag": "N",
      "BitsAllocated": 16,
      "BitsStored": 12,
      "BodyPartExamined": "BRAIN",
      "Columns": 864,
      "EchoNumbers": 1,
      "EchoTime": 30.0,
      "EchoTrainLength": 58,
      "FlipAngle": 62.0,
      "HighBit": 11,
      "ImageOrientationPatient": [0.99779073205804, -0.0280439511388, 0.0602261722477, 0.03519229116502, 0.99201391966704, -0.1211193041153],
      "ImagePositionPatient": [-892.52419153629, -856.19241570817, -18.475919515575],
      "ImageType": [
        "ORIGINAL",
        "PRIMARY",
        "M",
        "ND",
        "MOSAIC"
],
      "ImagedNucleus": "1H",
      "ImagingFrequency": 123.259435,
      "InPlanePhaseEncodingDirection": "COL",
      "MRAcquisitionType": "2D",
      "MagneticFieldStrength": 3.0,
      "Manufacturer": "SIEMENS",
      "ManufacturerModelName": "Prisma",
      "Modality": "MR",
      "NumberOfAverages": 1.0,
      "NumberOfPhaseEncodingSteps": 58,
      "PercentPhaseFieldOfView": 100.0,
      "PercentSampling": 75.0,
      "PerformedProcedureStepStartTime": "180711.868000",
      "PhotometricInterpretation": "MONOCHROME2",
      "PixelBandwidth": 2265.0,
      "PixelRepresentation": 0,
      "PixelSpacing": [2.0, 2.0],
      "ProtocolName": "func_vwfate_run6",
      "RepetitionTime": 1500.0,
      "Rows": 864,
      "SAR": 0.04742311922172,
      "SamplesPerPixel": 1,
      "ScanOptions": [
        "PFP",
        "FS"
],
      "ScanningSequence": "EP",
      "SequenceName": "*epfid2d1_72",
      "SequenceVariant": [
        "SK",
        "OSP"
],
      "SeriesDescription": "func_vwfate_run6",
      "SeriesNumber": 15,
      "SeriesTime": "190724.737000",
      "SliceLocation": -73.300701354264,
      "SliceThickness": 2.0,
      "SmallestImagePixelValue": 0,
      "SoftwareVersions": "syngo MR E11",
      "SpacingBetweenSlices": 1.9999999887751,
      "SpecificCharacterSet": "ISO_IR 100",
      "StudyID": "2",
      "StudyTime": "180711.816000",
      "TransmitCoilName": "Body",
      "VariableFlipAngleFlag": "N",
      "WindowCenterWidthExplanation": "Algo1",
      "dBdt": 0.0},
    "slices": {}
  },
  "time": {
    "samples": {
      "AcquisitionNumber": [1, 2, 3, 4, 5, 6, 7, 8, 9, 10, 11, 12, 13, 14, 15, 16, 17, 18, 19, 20, 21, 22, 23, 24, 25, 26, 27, 28, 29, 30, 31, 32, 33, 34, 35, 36, 37, 38, 39, 40, 41, 42, 43, 44, 45, 46, 47, 48, 49, 50, 51, 52, 53, 54, 55, 56, 57, 58, 59, 60, 61, 62, 63, 64, 65, 66, 67, 68, 69, 70, 71, 72, 73, 74, 75, 76, 77, 78, 79, 80, 81, 82, 83, 84, 85, 86, 87, 88, 89, 90, 91, 92, 93, 94, 95, 96, 97, 98, 99, 100, 101, 102, 103, 104, 105, 106, 107, 108, 109, 110, 111, 112, 113, 114, 115, 116, 117, 118, 119, 120, 121, 122, 123, 124, 125, 126, 127, 128, 129, 130, 131, 132, 133, 134, 135, 136, 137, 138, 139, 140, 141, 142, 143, 144, 145, 146, 147, 148, 149, 150, 151, 152, 153, 154, 155, 156, 157, 158, 159, 160, 161, 162, 163, 164],
      "AcquisitionTime": ["190642.925000", "190644.425000", "190645.925000", "190647.425000", "190648.925000", "190650.425000", "190651.925000", "190653.425000", "190654.925000", "190656.425000", "190657.925000", "190659.425000", "190700.925000", "190702.425000", "190703.925000", "190705.425000", "190706.925000", "190708.425000", "190709.925000", "190711.425000", "190712.925000", "190714.425000", "190715.925000", "190717.425000", "190718.925000", "190720.425000", "190721.925000", "190723.425000", "190724.925000", "190726.425000", "190727.925000", "190729.425000", "190730.925000", "190732.425000", "190733.925000", "190735.425000", "190736.925000", "190738.425000", "190739.925000", "190741.425000", "190742.925000", "190744.425000", "190745.925000", "190747.425000", "190748.925000", "190750.425000", "190751.925000", "190753.425000", "190754.925000", "190756.425000", "190757.925000", "190759.425000", "190800.925000", "190802.425000", "190803.925000", "190805.425000", "190806.925000", "190808.425000", "190809.925000", "190811.425000", "190812.925000", "190814.425000", "190815.925000", "190817.425000", "190818.925000", "190820.425000", "190821.925000", "190823.425000", "190824.925000", "190826.425000", "190827.925000", "190829.425000", "190830.925000", "190832.425000", "190833.925000", "190835.425000", "190836.925000", "190838.425000", "190839.925000", "190841.425000", "190842.925000", "190844.425000", "190845.925000", "190847.425000", "190848.925000", "190850.425000", "190851.925000", "190853.425000", "190854.925000", "190856.425000", "190857.925000", "190859.425000", "190900.925000", "190902.425000", "190903.925000", "190905.425000", "190906.925000", "190908.425000", "190909.925000", "190911.425000", "190912.925000", "190914.425000", "190915.925000", "190917.425000", "190918.925000", "190920.425000", "190921.925000", "190923.425000", "190924.925000", "190926.425000", "190927.925000", "190929.425000", "190930.925000", "190932.425000", "190933.925000", "190935.425000", "190936.925000", "190938.425000", "190939.925000", "190941.425000", "190942.925000", "190944.425000", "190945.925000", "190947.425000", "190948.925000", "190950.425000", "190951.925000", "190953.425000", "190954.925000", "190956.425000", "190957.925000", "190959.425000", "191000.925000", "191002.425000", "191003.925000", "191005.425000", "191006.925000", "191008.425000", "191009.925000", "191011.425000", "191012.925000", "191014.425000", "191015.925000", "191017.425000", "191018.925000", "191020.425000", "191021.925000", "191023.425000", "191024.925000", "191026.425000", "191027.925000", "191029.425000", "191030.925000", "191032.425000", "191033.925000", "191035.425000", "191036.925000", "191038.425000", "191039.925000", "191041.425000", "191042.925000", "191044.425000", "191045.925000", "191047.425000"],
      "ContentTime": ["190724.741000", "190724.745000", "190724.748000", "190724.751000", "190724.754000", "190724.758000", "190724.761000", "190724.763000", "190724.767000", "190724.769000", "190724.772000", "190724.775000", "190724.779000", "190724.782000", "190724.785000", "190724.787000", "190724.791000", "190724.794000", "190724.797000", "190724.800000", "190724.810000", "190724.813000", "190724.816000", "190724.819000", "190724.822000", "190724.825000", "190724.828000", "190724.831000", "190804.728000", "190804.731000", "190804.734000", "190804.737000", "190804.740000", "190804.743000", "190804.746000", "190804.749000", "190804.752000", "190804.755000", "190804.758000", "190804.761000", "190804.764000", "190804.767000", "190804.770000", "190804.773000", "190804.776000", "190804.779000", "190804.785000", "190804.788000", "190804.791000", "190804.794000", "190804.797000", "190804.799000", "190804.802000", "190804.805000", "190804.808000", "190844.728000", "190844.731000", "190844.734000", "190844.737000", "190844.740000", "190844.743000", "190844.746000", "190844.749000", "190844.752000", "190844.755000", "190844.758000", "190844.761000", "190844.764000", "190844.767000", "190844.770000", "190844.773000", "190844.776000", "190844.793000", "190844.796000", "190844.799000", "190844.802000", "190844.805000", "190844.808000", "190844.811000", "190844.814000", "190844.817000", "190924.729000", "190924.732000", "190924.735000", "190924.738000", "190924.741000", "190924.744000", "190924.747000", "190924.750000", "190924.753000", "190924.756000", "190924.759000", "190924.762000", "190924.765000", "190924.768000", "190924.771000", "190924.774000", "190924.777000", "190924.780000", "190924.802000", "190924.805000", "190924.808000", "190924.811000", "190924.814000", "190924.817000", "190924.820000", "190924.823000", "190924.826000", "191004.728000", "191004.731000", "191004.734000", "191004.737000", "191004.740000", "191004.743000", "191004.746000", "191004.749000", "191004.752000", "191004.755000", "191004.758000", "191004.761000", "191004.764000", "191004.767000", "191004.770000", "191004.773000", "191004.776000", "191004.779000", "191004.782000", "191004.785000", "191004.788000", "191004.791000", "191004.794000", "191004.797000", "191004.800000", "191004.803000", "191004.806000", "191044.728000", "191044.731000", "191044.734000", "191044.737000", "191044.740000", "191044.743000", "191044.746000", "191044.749000", "191044.752000", "191044.755000", "191044.758000", "191044.761000", "191044.764000", "191044.767000", "191044.770000", "191044.773000", "191044.776000", "191044.779000", "191044.782000", "191044.785000", "191044.788000", "191044.791000", "191044.794000", "191044.797000", "191044.800000", "191044.803000", "191048.091000", "191048.094000", "191048.097000"],
      "InstanceCreationTime": ["190724.741000", "190724.745000", "190724.748000", "190724.751000", "190724.754000", "190724.758000", "190724.761000", "190724.763000", "190724.767000", "190724.769000", "190724.772000", "190724.775000", "190724.779000", "190724.782000", "190724.785000", "190724.787000", "190724.791000", "190724.794000", "190724.797000", "190724.800000", "190724.810000", "190724.813000", "190724.816000", "190724.819000", "190724.822000", "190724.825000", "190724.828000", "190724.831000", "190804.728000", "190804.731000", "190804.734000", "190804.737000", "190804.740000", "190804.743000", "190804.746000", "190804.749000", "190804.752000", "190804.755000", "190804.758000", "190804.761000", "190804.764000", "190804.767000", "190804.770000", "190804.773000", "190804.776000", "190804.779000", "190804.785000", "190804.788000", "190804.791000", "190804.794000", "190804.797000", "190804.799000", "190804.802000", "190804.805000", "190804.808000", "190844.728000", "190844.731000", "190844.734000", "190844.737000", "190844.740000", "190844.743000", "190844.746000", "190844.749000", "190844.752000", "190844.755000", "190844.758000", "190844.761000", "190844.764000", "190844.767000", "190844.770000", "190844.773000", "190844.776000", "190844.793000", "190844.796000", "190844.799000", "190844.802000", "190844.805000", "190844.808000", "190844.811000", "190844.814000", "190844.817000", "190924.729000", "190924.732000", "190924.735000", "190924.738000", "190924.741000", "190924.744000", "190924.747000", "190924.750000", "190924.753000", "190924.756000", "190924.759000", "190924.762000", "190924.765000", "190924.768000", "190924.771000", "190924.774000", "190924.777000", "190924.780000", "190924.802000", "190924.805000", "190924.808000", "190924.811000", "190924.814000", "190924.817000", "190924.820000", "190924.823000", "190924.826000", "191004.728000", "191004.731000", "191004.734000", "191004.737000", "191004.740000", "191004.743000", "191004.746000", "191004.749000", "191004.752000", "191004.755000", "191004.758000", "191004.761000", "191004.764000", "191004.767000", "191004.770000", "191004.773000", "191004.776000", "191004.779000", "191004.782000", "191004.785000", "191004.788000", "191004.791000", "191004.794000", "191004.797000", "191004.800000", "191004.803000", "191004.806000", "191044.728000", "191044.731000", "191044.734000", "191044.737000", "191044.740000", "191044.743000", "191044.746000", "191044.749000", "191044.752000", "191044.755000", "191044.758000", "191044.761000", "191044.764000", "191044.767000", "191044.770000", "191044.773000", "191044.776000", "191044.779000", "191044.782000", "191044.785000", "191044.788000", "191044.791000", "191044.794000", "191044.797000", "191044.800000", "191044.803000", "191048.091000", "191048.094000", "191048.097000"],
      "InstanceNumber": [1, 2, 3, 4, 5, 6, 7, 8, 9, 10, 11, 12, 13, 14, 15, 16, 17, 18, 19, 20, 21, 22, 23, 24, 25, 26, 27, 28, 29, 30, 31, 32, 33, 34, 35, 36, 37, 38, 39, 40, 41, 42, 43, 44, 45, 46, 47, 48, 49, 50, 51, 52, 53, 54, 55, 56, 57, 58, 59, 60, 61, 62, 63, 64, 65, 66, 67, 68, 69, 70, 71, 72, 73, 74, 75, 76, 77, 78, 79, 80, 81, 82, 83, 84, 85, 86, 87, 88, 89, 90, 91, 92, 93, 94, 95, 96, 97, 98, 99, 100, 101, 102, 103, 104, 105, 106, 107, 108, 109, 110, 111, 112, 113, 114, 115, 116, 117, 118, 119, 120, 121, 122, 123, 124, 125, 126, 127, 128, 129, 130, 131, 132, 133, 134, 135, 136, 137, 138, 139, 140, 141, 142, 143, 144, 145, 146, 147, 148, 149, 150, 151, 152, 153, 154, 155, 156, 157, 158, 159, 160, 161, 162, 163, 164],
      "LargestImagePixelValue": [2255, 2219, 2183, 2166, 2179, 2153, 2171, 2159, 2182, 2167, 2149, 2152, 2151, 2155, 2158, 2153, 2156, 2168, 2145, 2146, 2168, 2159, 2155, 2166, 2159, 2131, 2160, 2144, 2151, 2145, 2136, 2134, 2172, 2149, 2160, 2164, 2167, 2140, 2147, 2170, 2173, 2157, 2147, 2140, 2149, 2175, 2162, 2148, 2182, 2162, 2180, 2192, 2185, 2161, 2163, 2178, 2178, 2193, 2184, 2176, 2164, 2181, 2193, 2174, 2174, 2182, 2172, 2190, 2190, 2168, 2179, 2180, 2190, 2188, 2191, 2170, 2179, 2185, 2160, 2169, 2167, 2179, 2170, 2174, 2167, 2192, 2173, 2171, 2202, 2181, 2190, 2162, 2184, 2164, 2205, 2203, 2181, 2171, 2182, 2171, 2191, 2172, 2197, 2147, 2188, 2178, 2173, 2185, 2173, 2161, 2200, 2156, 2171, 2180, 2156, 2169, 2158, 2149, 2183, 2191, 2175, 2162, 2198, 2217, 2187, 2194, 2194, 2197, 2190, 2181, 2168, 2175, 2179, 2184, 2197, 2185, 2201, 2185, 2209, 2179, 2169, 2168, 2186, 2166, 2183, 2179, 2177, 2195, 2183, 2183, 2170, 2184, 2188, 2180, 2184, 2172, 2173, 2188, 2178, 2167, 2167, 2205, 2176, 2139],
      "WindowCenter": [725.0, 722.0, 720.0, 720.0, 719.0, 719.0, 721.0, 721.0, 720.0, 720.0, 720.0, 720.0, 720.0, 720.0, 720.0, 721.0, 721.0, 721.0, 720.0, 720.0, 721.0, 721.0, 722.0, 723.0, 721.0, 720.0, 720.0, 720.0, 720.0, 720.0, 720.0, 720.0, 721.0, 722.0, 722.0, 721.0, 719.0, 719.0, 719.0, 721.0, 721.0, 721.0, 720.0, 721.0, 722.0, 722.0, 721.0, 720.0, 721.0, 720.0, 721.0, 721.0, 720.0, 720.0, 719.0, 720.0, 720.0, 721.0, 723.0, 723.0, 722.0, 721.0, 721.0, 721.0, 721.0, 721.0, 722.0, 723.0, 723.0, 723.0, 721.0, 720.0, 720.0, 720.0, 721.0, 721.0, 721.0, 722.0, 721.0, 722.0, 722.0, 721.0, 722.0, 722.0, 721.0, 722.0, 722.0, 722.0, 723.0, 723.0, 723.0, 722.0, 722.0, 721.0, 722.0, 723.0, 723.0, 724.0, 724.0, 722.0, 721.0, 721.0, 721.0, 722.0, 722.0, 722.0, 722.0, 721.0, 720.0, 720.0, 721.0, 722.0, 722.0, 724.0, 724.0, 723.0, 722.0, 721.0, 721.0, 721.0, 720.0, 720.0, 721.0, 721.0, 722.0, 722.0, 721.0, 721.0, 722.0, 722.0, 722.0, 721.0, 720.0, 719.0, 720.0, 720.0, 721.0, 721.0, 721.0, 721.0, 720.0, 720.0, 720.0, 721.0, 721.0, 722.0, 722.0, 721.0, 721.0, 721.0, 721.0, 722.0, 722.0, 722.0, 722.0, 722.0, 722.0, 722.0, 722.0, 722.0, 721.0, 721.0, 721.0, 721.0],
      "WindowWidth": [1561.0, 1553.0, 1549.0, 1547.0, 1546.0, 1546.0, 1552.0, 1552.0, 1550.0, 1549.0, 1547.0, 1549.0, 1549.0, 1548.0, 1548.0, 1551.0, 1551.0, 1551.0, 1549.0, 1548.0, 1550.0, 1552.0, 1554.0, 1556.0, 1553.0, 1550.0, 1548.0, 1548.0, 1549.0, 1548.0, 1548.0, 1548.0, 1551.0, 1553.0, 1553.0, 1550.0, 1547.0, 1546.0, 1547.0, 1552.0, 1553.0, 1551.0, 1549.0, 1551.0, 1553.0, 1554.0, 1552.0, 1549.0, 1551.0, 1550.0, 1551.0, 1551.0, 1549.0, 1548.0, 1547.0, 1548.0, 1550.0, 1553.0, 1556.0, 1557.0, 1554.0, 1552.0, 1551.0, 1551.0, 1552.0, 1551.0, 1554.0, 1557.0, 1558.0, 1556.0, 1551.0, 1547.0, 1549.0, 1550.0, 1552.0, 1551.0, 1552.0, 1553.0, 1553.0, 1553.0, 1553.0, 1552.0, 1553.0, 1553.0, 1553.0, 1554.0, 1554.0, 1554.0, 1556.0, 1557.0, 1558.0, 1555.0, 1553.0, 1551.0, 1554.0, 1557.0, 1558.0, 1559.0, 1558.0, 1554.0, 1552.0, 1551.0, 1553.0, 1554.0, 1554.0, 1555.0, 1554.0, 1550.0, 1548.0, 1550.0, 1553.0, 1554.0, 1555.0, 1558.0, 1559.0, 1557.0, 1553.0, 1550.0, 1550.0, 1551.0, 1549.0, 1548.0, 1551.0, 1552.0, 1553.0, 1554.0, 1553.0, 1552.0, 1553.0, 1555.0, 1554.0, 1552.0, 1550.0, 1547.0, 1548.0, 1549.0, 1550.0, 1552.0, 1553.0, 1551.0, 1549.0, 1548.0, 1547.0, 1550.0, 1552.0, 1555.0, 1554.0, 1553.0, 1552.0, 1551.0, 1552.0, 1554.0, 1554.0, 1554.0, 1553.0, 1554.0, 1555.0, 1555.0, 1555.0, 1553.0, 1552.0, 1551.0, 1551.0, 1551.0]
    },
    "slices": {}
  }
}