{
  "AcquisitionMatrixPE": 72,
  "AcquisitionNumber": 1,
  "AcquisitionTime": "18:36:58.197500",
  "BandwidthPerPixelPhaseEncode": 17.943,
  "BaseResolution": 96,
  "BodyPartExamined": "BRAIN",
  "CoilCombinationMethod": "Sum of Squares",
  "ConsistencyInfo": "N4_VE11C_LATEST_20160120",
  "ConversionSoftware": "dcm2niix",
  "ConversionSoftwareVersion": "v1.0.20211006",
  "DerivedVendorReportedEchoSpacing": 0.000552897,
  "DeviceSerialNumber": "166011",
  "EchoTime": 0.03,
  "EchoTrainLength": 58,
  "EffectiveEchoSpacing": 0.000580542,
  "FlipAngle": 62,
  "ImageOrientationPatientDICOM": [0.997791, -0.028044, 0.0602262, 0.0351923, 0.992014, -0.121119],
  "ImageType": [
    "ORIGINAL",
    "PRIMARY",
    "M",
    "ND",
    "MOSAIC"
],
  "ImagingFrequency": 123.259,
  "InPlanePhaseEncodingDirectionDICOM": "COL",
  "InstitutionAddress": "West 130th Street 610,NY,NYC,US,10025",
  "InstitutionName": "MBBI",
  "MRAcquisitionType": "2D",
  "MagneticFieldStrength": 3,
  "Manufacturer": "Siemens",
  "ManufacturersModelName": "Prisma",
  "Modality": "MR",
  "MultibandAccelerationFactor": 3,
  "PartialFourier": 0.75,
  "PatientPosition": "HFS",
  "PercentPhaseFOV": 100,
  "PercentSampling": 75,
  "PhaseEncodingDirection": "j-",
  "PhaseEncodingSteps": 58,
  "PhaseOversampling": 0.05,
  "PhaseResolution": 0.75,
  "PixelBandwidth": 2265,
  "ProcedureStepDescription": "White^Word_recognition",
  "ProtocolName": "func_catLoc_run1",
  "PulseSequenceDetails": "%SiemensSeq%\\ep2d_bold",
  "ReceiveCoilActiveElements": "HC1-7",
  "ReceiveCoilName": "HeadNeck_64",
  "ReconMatrixPE": 96,
  "RefLinesPE": 40,
  "RepetitionTime": 1.5,
  "SAR": 0.0475715,
  "ScanOptions": "PFP\\FS",
  "ScanningSequence": "EP",
  "SequenceName": "*epfid2d1_72",
  "SequenceVariant": "SK\\OSP",
  "SeriesDescription": "func_catLoc_run1",
  "SeriesNumber": 10,
  "ShimSetting": [-1131, -1351, 692, 538, -55, 97, -18, -9],
  "SliceThickness": 2,
  "SliceTiming": [1.0775, 0, 0.74, 0.0675, 0.8075, 0.135, 0.875, 0.2025, 0.9425, 0.27, 1.01, 0.405, 1.145, 0.4725, 1.2125, 0.5375, 1.2775, 0.605, 1.345, 0.6725, 1.4125, 0.3375, 1.0775, 0, 0.74, 0.0675, 0.8075, 0.135, 0.875, 0.2025, 0.9425, 0.27, 1.01, 0.405, 1.145, 0.4725, 1.2125, 0.5375, 1.2775, 0.605, 1.345, 0.6725, 1.4125, 0.3375, 1.0775, 0, 0.74, 0.0675, 0.8075, 0.135, 0.875, 0.2025, 0.9425, 0.27, 1.01, 0.405, 1.145, 0.4725, 1.2125, 0.5375, 1.2775, 0.605, 1.345, 0.6725, 1.4125, 0.3375],
  "SoftwareVersions": "syngo MR E11",
  "SpacingBetweenSlices": 2,
  "StationName": "AWP166011",
  "TaskName": "catLoc",
  "TotalReadoutTime": 0.0551515,
  "TxRefAmp": 228.376,
  "dcmmeta_affine": [
    [-1.9955815076828003, 0.07038458436727524, 0.112697072327137, 92.5066909790039],
    [0.056087903678417206, 1.9840278625488281, -0.24594242870807648, -72.6191635131836],
    [0.12045234441757202, 0.2422386109828949, 1.9816184043884277, -88.25450897216797],
    [0.0, 0.0, 0.0, 1.0]
],
  "dcmmeta_reorient_transform": [
    [0.0, -1.0, 0.0, 95.0],
    [1.0, 0.0, 0.0, 0.0],
    [0.0, 0.0, 1.0, 0.0],
    [0.0, 0.0, 0.0, 1.0]
],
  "dcmmeta_shape": [96, 96, 66, 214],
  "dcmmeta_slice_dim": 2,
  "dcmmeta_version": 0.6,
  "global": {
    "const": {
      "AcquisitionMatrix": [96, 0, 0, 72],
      "AngioFlag": "N",
      "BitsAllocated": 16,
      "BitsStored": 12,
      "BodyPartExamined": "BRAIN",
      "Columns": 864,
      "EchoNumbers": 1,
      "EchoTime": 30.0,
      "EchoTrainLength": 58,
      "FlipAngle": 62.0,
      "HighBit": 11,
      "ImageOrientationPatient": [0.99779073205804, -0.0280439511388, 0.0602261722477, 0.03519229116502, 0.99201391966704, -0.1211193041153],
      "ImagePositionPatient": [-892.52419153629, -856.19241570817, -18.475919515575],
      "ImageType": [
        "ORIGINAL",
        "PRIMARY",
        "M",
        "ND",
        "MOSAIC"
],
      "ImagedNucleus": "1H",
      "ImagingFrequency": 123.259429,
      "InPlanePhaseEncodingDirection": "COL",
      "MRAcquisitionType": "2D",
      "MagneticFieldStrength": 3.0,
      "Manufacturer": "SIEMENS",
      "ManufacturerModelName": "Prisma",
      "Modality": "MR",
      "NumberOfAverages": 1.0,
      "NumberOfPhaseEncodingSteps": 58,
      "PercentPhaseFieldOfView": 100.0,
      "PercentSampling": 75.0,
      "PerformedProcedureStepStartTime": "180711.868000",
      "PhotometricInterpretation": "MONOCHROME2",
      "PixelBandwidth": 2265.0,
      "PixelRepresentation": 0,
      "PixelSpacing": [2.0, 2.0],
      "ProtocolName": "func_catLoc_run1",
      "RepetitionTime": 1500.0,
      "Rows": 864,
      "SAR": 0.04757152710046,
      "SamplesPerPixel": 1,
      "ScanOptions": [
        "PFP",
        "FS"
],
      "ScanningSequence": "EP",
      "SequenceName": "*epfid2d1_72",
      "SequenceVariant": [
        "SK",
        "OSP"
],
      "SeriesDescription": "func_catLoc_run1",
      "SeriesNumber": 10,
      "SeriesTime": "183744.802000",
      "SliceLocation": -73.300701354264,
      "SliceThickness": 2.0,
      "SmallestImagePixelValue": 0,
      "SoftwareVersions": "syngo MR E11",
      "SpacingBetweenSlices": 1.9999999887751,
      "SpecificCharacterSet": "ISO_IR 100",
      "StudyID": "2",
      "StudyTime": "180711.816000",
      "TransmitCoilName": "Body",
      "VariableFlipAngleFlag": "N",
      "WindowCenterWidthExplanation": "Algo1",
      "dBdt": 0.0},
    "slices": {}
  },
  "time": {
    "samples": {
      "AcquisitionNumber": [1, 2, 3, 4, 5, 6, 7, 8, 9, 10, 11, 12, 13, 14, 15, 16, 17, 18, 19, 20, 21, 22, 23, 24, 25, 26, 27, 28, 29, 30, 31, 32, 33, 34, 35, 36, 37, 38, 39, 40, 41, 42, 43, 44, 45, 46, 47, 48, 49, 50, 51, 52, 53, 54, 55, 56, 57, 58, 59, 60, 61, 62, 63, 64, 65, 66, 67, 68, 69, 70, 71, 72, 73, 74, 75, 76, 77, 78, 79, 80, 81, 82, 83, 84, 85, 86, 87, 88, 89, 90, 91, 92, 93, 94, 95, 96, 97, 98, 99, 100, 101, 102, 103, 104, 105, 106, 107, 108, 109, 110, 111, 112, 113, 114, 115, 116, 117, 118, 119, 120, 121, 122, 123, 124, 125, 126, 127, 128, 129, 130, 131, 132, 133, 134, 135, 136, 137, 138, 139, 140, 141, 142, 143, 144, 145, 146, 147, 148, 149, 150, 151, 152, 153, 154, 155, 156, 157, 158, 159, 160, 161, 162, 163, 164, 165, 166, 167, 168, 169, 170, 171, 172, 173, 174, 175, 176, 177, 178, 179, 180, 181, 182, 183, 184, 185, 186, 187, 188, 189, 190, 191, 192, 193, 194, 195, 196, 197, 198, 199, 200, 201, 202, 203, 204, 205, 206, 207, 208, 209, 210, 211, 212, 213, 214],
      "AcquisitionTime": ["183658.197500", "183659.697500", "183701.197500", "183702.697500", "183704.197500", "183705.697500", "183707.197500", "183708.697500", "183710.197500", "183711.697500", "183713.197500", "183714.697500", "183716.197500", "183717.697500", "183719.197500", "183720.697500", "183722.197500", "183723.697500", "183725.197500", "183726.697500", "183728.197500", "183729.697500", "183731.197500", "183732.697500", "183734.197500", "183735.697500", "183737.197500", "183738.697500", "183740.197500", "183741.697500", "183743.197500", "183744.697500", "183746.197500", "183747.697500", "183749.197500", "183750.697500", "183752.197500", "183753.697500", "183755.197500", "183756.697500", "183758.197500", "183759.697500", "183801.197500", "183802.697500", "183804.197500", "183805.697500", "183807.197500", "183808.697500", "183810.197500", "183811.697500", "183813.197500", "183814.697500", "183816.197500", "183817.697500", "183819.197500", "183820.697500", "183822.197500", "183823.697500", "183825.197500", "183826.697500", "183828.197500", "183829.697500", "183831.197500", "183832.697500", "183834.197500", "183835.697500", "183837.197500", "183838.697500", "183840.197500", "183841.697500", "183843.197500", "183844.697500", "183846.197500", "183847.697500", "183849.197500", "183850.697500", "183852.197500", "183853.697500", "183855.197500", "183856.697500", "183858.197500", "183859.697500", "183901.197500", "183902.697500", "183904.197500", "183905.697500", "183907.197500", "183908.697500", "183910.197500", "183911.697500", "183913.197500", "183914.697500", "183916.197500", "183917.697500", "183919.197500", "183920.697500", "183922.197500", "183923.697500", "183925.197500", "183926.697500", "183928.197500", "183929.697500", "183931.197500", "183932.697500", "183934.197500", "183935.697500", "183937.197500", "183938.697500", "183940.197500", "183941.697500", "183943.197500", "183944.697500", "183946.197500", "183947.697500", "183949.197500", "183950.697500", "183952.197500", "183953.697500", "183955.197500", "183956.697500", "183958.197500", "183959.697500", "184001.197500", "184002.697500", "184004.197500", "184005.697500", "184007.197500", "184008.697500", "184010.197500", "184011.697500", "184013.197500", "184014.697500", "184016.197500", "184017.697500", "184019.197500", "184020.697500", "184022.197500", "184023.697500", "184025.197500", "184026.697500", "184028.197500", "184029.697500", "184031.197500", "184032.697500", "184034.197500", "184035.697500", "184037.197500", "184038.697500", "184040.197500", "184041.697500", "184043.197500", "184044.697500", "184046.197500", "184047.697500", "184049.197500", "184050.697500", "184052.197500", "184053.697500", "184055.197500", "184056.697500", "184058.197500", "184059.697500", "184101.197500", "184102.697500", "184104.197500", "184105.697500", "184107.197500", "184108.697500", "184110.197500", "184111.697500", "184113.197500", "184114.697500", "184116.197500", "184117.697500", "184119.197500", "184120.697500", "184122.197500", "184123.697500", "184125.197500", "184126.697500", "184128.197500", "184129.697500", "184131.197500", "184132.697500", "184134.197500", "184135.697500", "184137.197500", "184138.697500", "184140.197500", "184141.697500", "184143.197500", "184144.697500", "184146.197500", "184147.697500", "184149.197500", "184150.697500", "184152.197500", "184153.697500", "184155.197500", "184156.697500", "184158.197500", "184159.697500", "184201.197500", "184202.697500", "184204.197500", "184205.697500", "184207.197500", "184208.697500", "184210.197500", "184211.697500", "184213.197500", "184214.697500", "184216.197500", "184217.697500"],
      "ContentTime": ["183744.806000", "183744.810000", "183744.817000", "183744.820000", "183744.823000", "183744.826000", "183744.829000", "183744.832000", "183744.835000", "183744.838000", "183744.841000", "183744.844000", "183744.861000", "183744.864000", "183744.867000", "183744.874000", "183744.877000", "183744.880000", "183744.883000", "183744.890000", "183744.893000", "183744.896000", "183744.899000", "183744.902000", "183744.905000", "183744.908000", "183744.911000", "183744.914000", "183744.917000", "183744.920000", "183744.923000", "183824.801000", "183824.804000", "183824.807000", "183824.810000", "183824.813000", "183824.816000", "183824.819000", "183824.822000", "183824.825000", "183824.828000", "183824.831000", "183824.834000", "183824.837000", "183824.850000", "183824.854000", "183824.856000", "183824.859000", "183824.862000", "183824.865000", "183824.868000", "183824.871000", "183824.874000", "183824.877000", "183824.880000", "183824.883000", "183824.886000", "183904.802000", "183904.805000", "183904.808000", "183904.811000", "183904.814000", "183904.817000", "183904.820000", "183904.823000", "183904.826000", "183904.829000", "183904.832000", "183904.835000", "183904.838000", "183904.841000", "183904.844000", "183904.847000", "183904.850000", "183904.853000", "183904.856000", "183904.859000", "183904.862000", "183904.865000", "183904.868000", "183904.871000", "183904.874000", "183904.877000", "183904.880000", "183944.802000", "183944.810000", "183944.813000", "183944.816000", "183944.819000", "183944.822000", "183944.825000", "183944.828000", "183944.831000", "183944.834000", "183944.837000", "183944.840000", "183944.843000", "183944.846000", "183944.849000", "183944.852000", "183944.855000", "183944.858000", "183944.861000", "183944.864000", "183944.867000", "183944.870000", "183944.873000", "183944.876000", "183944.879000", "183944.882000", "183944.885000", "184024.801000", "184024.804000", "184024.807000", "184024.810000", "184024.813000", "184024.816000", "184024.819000", "184024.822000", "184024.825000", "184024.828000", "184024.831000", "184024.834000", "184024.837000", "184024.840000", "184024.843000", "184024.846000", "184024.849000", "184024.852000", "184024.855000", "184024.869000", "184024.872000", "184024.875000", "184024.878000", "184024.881000", "184024.884000", "184024.887000", "184104.801000", "184104.804000", "184104.807000", "184104.810000", "184104.813000", "184104.816000", "184104.819000", "184104.822000", "184104.825000", "184104.828000", "184104.831000", "184104.834000", "184104.837000", "184104.840000", "184104.843000", "184104.846000", "184104.849000", "184104.852000", "184104.855000", "184104.858000", "184104.861000", "184104.864000", "184104.867000", "184104.870000", "184104.873000", "184104.876000", "184104.879000", "184124.802000", "184124.805000", "184124.808000", "184124.811000", "184124.814000", "184124.817000", "184124.820000", "184124.823000", "184124.826000", "184124.829000", "184124.832000", "184124.835000", "184124.838000", "184204.802000", "184204.805000", "184204.808000", "184204.811000", "184204.814000", "184204.817000", "184204.820000", "184204.823000", "184204.826000", "184204.829000", "184204.843000", "184204.846000", "184204.849000", "184204.852000", "184204.855000", "184204.858000", "184204.861000", "184204.864000", "184204.867000", "184204.870000", "184204.873000", "184204.876000", "184204.879000", "184204.882000", "184204.887000", "184204.890000", "184204.893000", "184218.915000", "184218.918000", "184218.922000", "184218.925000", "184218.928000", "184218.931000", "184218.935000", "184218.938000", "184218.941000", "184218.944000"],
      "InstanceCreationTime": ["183744.806000", "183744.810000", "183744.817000", "183744.820000", "183744.823000", "183744.826000", "183744.829000", "183744.832000", "183744.835000", "183744.838000", "183744.841000", "183744.844000", "183744.861000", "183744.864000", "183744.867000", "183744.874000", "183744.877000", "183744.880000", "183744.883000", "183744.890000", "183744.893000", "183744.896000", "183744.899000", "183744.902000", "183744.905000", "183744.908000", "183744.911000", "183744.914000", "183744.917000", "183744.920000", "183744.923000", "183824.801000", "183824.804000", "183824.807000", "183824.810000", "183824.813000", "183824.816000", "183824.819000", "183824.822000", "183824.825000", "183824.828000", "183824.831000", "183824.834000", "183824.837000", "183824.850000", "183824.854000", "183824.856000", "183824.859000", "183824.862000", "183824.865000", "183824.868000", "183824.871000", "183824.874000", "183824.877000", "183824.880000", "183824.883000", "183824.886000", "183904.802000", "183904.805000", "183904.808000", "183904.811000", "183904.814000", "183904.817000", "183904.820000", "183904.823000", "183904.826000", "183904.829000", "183904.832000", "183904.835000", "183904.838000", "183904.841000", "183904.844000", "183904.847000", "183904.850000", "183904.853000", "183904.856000", "183904.859000", "183904.862000", "183904.865000", "183904.868000", "183904.871000", "183904.874000", "183904.877000", "183904.880000", "183944.802000", "183944.810000", "183944.813000", "183944.816000", "183944.819000", "183944.822000", "183944.825000", "183944.828000", "183944.831000", "183944.834000", "183944.837000", "183944.840000", "183944.843000", "183944.846000", "183944.849000", "183944.852000", "183944.855000", "183944.858000", "183944.861000", "183944.864000", "183944.867000", "183944.870000", "183944.873000", "183944.876000", "183944.879000", "183944.882000", "183944.885000", "184024.801000", "184024.804000", "184024.807000", "184024.810000", "184024.813000", "184024.816000", "184024.819000", "184024.822000", "184024.825000", "184024.828000", "184024.831000", "184024.834000", "184024.837000", "184024.840000", "184024.843000", "184024.846000", "184024.849000", "184024.852000", "184024.855000", "184024.869000", "184024.872000", "184024.875000", "184024.878000", "184024.881000", "184024.884000", "184024.887000", "184104.801000", "184104.804000", "184104.807000", "184104.810000", "184104.813000", "184104.816000", "184104.819000", "184104.822000", "184104.825000", "184104.828000", "184104.831000", "184104.834000", "184104.837000", "184104.840000", "184104.843000", "184104.846000", "184104.849000", "184104.852000", "184104.855000", "184104.858000", "184104.861000", "184104.864000", "184104.867000", "184104.870000", "184104.873000", "184104.876000", "184104.879000", "184124.802000", "184124.805000", "184124.808000", "184124.811000", "184124.814000", "184124.817000", "184124.820000", "184124.823000", "184124.826000", "184124.829000", "184124.832000", "184124.835000", "184124.838000", "184204.802000", "184204.805000", "184204.808000", "184204.811000", "184204.814000", "184204.817000", "184204.820000", "184204.823000", "184204.826000", "184204.829000", "184204.843000", "184204.846000", "184204.849000", "184204.852000", "184204.855000", "184204.858000", "184204.861000", "184204.864000", "184204.867000", "184204.870000", "184204.873000", "184204.876000", "184204.879000", "184204.882000", "184204.887000", "184204.890000", "184204.893000", "184218.915000", "184218.918000", "184218.922000", "184218.925000", "184218.928000", "184218.931000", "184218.935000", "184218.938000", "184218.941000", "184218.944000"],
      "InstanceNumber": [1, 2, 3, 4, 5, 6, 7, 8, 9, 10, 11, 12, 13, 14, 15, 16, 17, 18, 19, 20, 21, 22, 23, 24, 25, 26, 27, 28, 29, 30, 31, 32, 33, 34, 35, 36, 37, 38, 39, 40, 41, 42, 43, 44, 45, 46, 47, 48, 49, 50, 51, 52, 53, 54, 55, 56, 57, 58, 59, 60, 61, 62, 63, 64, 65, 66, 67, 68, 69, 70, 71, 72, 73, 74, 75, 76, 77, 78, 79, 80, 81, 82, 83, 84, 85, 86, 87, 88, 89, 90, 91, 92, 93, 94, 95, 96, 97, 98, 99, 100, 101, 102, 103, 104, 105, 106, 107, 108, 109, 110, 111, 112, 113, 114, 115, 116, 117, 118, 119, 120, 121, 122, 123, 124, 125, 126, 127, 128, 129, 130, 131, 132, 133, 134, 135, 136, 137, 138, 139, 140, 141, 142, 143, 144, 145, 146, 147, 148, 149, 150, 151, 152, 153, 154, 155, 156, 157, 158, 159, 160, 161, 162, 163, 164, 165, 166, 167, 168, 169, 170, 171, 172, 173, 174, 175, 176, 177, 178, 179, 180, 181, 182, 183, 184, 185, 186, 187, 188, 189, 190, 191, 192, 193, 194, 195, 196, 197, 198, 199, 200, 201, 202, 203, 204, 205, 206, 207, 208, 209, 210, 211, 212, 213, 214],
      "LargestImagePixelValue": [2252, 2219, 2239, 2187, 2232, 2235, 2202, 2212, 2232, 2193, 2203, 2242, 2205, 2248, 2218, 2222, 2205, 2212, 2237, 2201, 2184, 2213, 2207, 2206, 2195, 2229, 2231, 2227, 2203, 2236, 2241, 2213, 2208, 2227, 2202, 2211, 2210, 2227, 2237, 2227, 2240, 2196, 2234, 2215, 2200, 2188, 2234, 2199, 2194, 2208, 2214, 2220, 2212, 2214, 2199, 2205, 2201, 2195, 2180, 2180, 2198, 2223, 2210, 2188, 2199, 2201, 2173, 2170, 2207, 2195, 2175, 2211, 2204, 2199, 2225, 2209, 2168, 2192, 2205, 2192, 2131, 2187, 2191, 2171, 2195, 2191, 2185, 2195, 2163, 2190, 2230, 2191, 2185, 2215, 2188, 2177, 2214, 2169, 2149, 2151, 2191, 2201, 2202, 2202, 2163, 2158, 2198, 2164, 2165, 2163, 2173, 2188, 2167, 2153, 2151, 2180, 2172, 2158, 2168, 2191, 2201, 2193, 2170, 2169, 2194, 2196, 2193, 2180, 2189, 2160, 2176, 2178, 2170, 2205, 2202, 2151, 2162, 2173, 2159, 2171, 2164, 2146, 2156, 2172, 2149, 2160, 2176, 2185, 2191, 2154, 2128, 2146, 2134, 2171, 2188, 2204, 2165, 2127, 2158, 2184, 2188, 2182, 2170, 2153, 2144, 2171, 2151, 2165, 2150, 2153, 2135, 2161, 2127, 2128, 2163, 2161, 2147, 2144, 2186, 2173, 2136, 2152, 2179, 2161, 2148, 2156, 2170, 2167, 2150, 2193, 2144, 2179, 2176, 2166, 2165, 2145, 2171, 2166, 2150, 2149, 2150, 2134, 2125, 2136, 2133, 2168, 2154, 2161, 2151, 2152, 2164, 2168, 2150, 2161],
      "WindowCenter": [722.0, 721.0, 722.0, 722.0, 723.0, 722.0, 721.0, 721.0, 721.0, 722.0, 722.0, 722.0, 722.0, 722.0, 722.0, 722.0, 722.0, 721.0, 722.0, 721.0, 721.0, 722.0, 723.0, 723.0, 723.0, 723.0, 723.0, 723.0, 723.0, 724.0, 723.0, 723.0, 722.0, 722.0, 722.0, 722.0, 722.0, 723.0, 723.0, 723.0, 724.0, 723.0, 723.0, 722.0, 722.0, 721.0, 723.0, 723.0, 723.0, 722.0, 722.0, 723.0, 723.0, 723.0, 723.0, 723.0, 723.0, 723.0, 722.0, 722.0, 723.0, 723.0, 723.0, 722.0, 722.0, 722.0, 722.0, 722.0, 722.0, 722.0, 722.0, 722.0, 722.0, 721.0, 722.0, 721.0, 721.0, 721.0, 722.0, 722.0, 721.0, 722.0, 722.0, 722.0, 722.0, 722.0, 722.0, 722.0, 721.0, 722.0, 723.0, 723.0, 723.0, 723.0, 723.0, 722.0, 722.0, 721.0, 721.0, 721.0, 722.0, 723.0, 723.0, 722.0, 722.0, 722.0, 722.0, 721.0, 721.0, 721.0, 722.0, 722.0, 722.0, 722.0, 721.0, 721.0, 721.0, 721.0, 721.0, 721.0, 722.0, 722.0, 722.0, 722.0, 723.0, 723.0, 722.0, 721.0, 721.0, 721.0, 722.0, 722.0, 722.0, 722.0, 723.0, 722.0, 722.0, 722.0, 721.0, 722.0, 722.0, 722.0, 722.0, 722.0, 722.0, 722.0, 722.0, 722.0, 722.0, 721.0, 720.0, 720.0, 720.0, 721.0, 723.0, 723.0, 722.0, 720.0, 720.0, 720.0, 721.0, 721.0, 721.0, 721.0, 721.0, 721.0, 721.0, 721.0, 721.0, 721.0, 720.0, 720.0, 720.0, 721.0, 722.0, 721.0, 721.0, 721.0, 722.0, 722.0, 722.0, 721.0, 721.0, 720.0, 720.0, 720.0, 722.0, 722.0, 722.0, 721.0, 720.0, 720.0, 720.0, 720.0, 720.0, 720.0, 720.0, 721.0, 722.0, 722.0, 722.0, 721.0, 720.0, 720.0, 721.0, 722.0, 722.0, 722.0, 722.0, 721.0, 720.0, 720.0, 720.0, 720.0],
      "WindowWidth": [1556.0, 1551.0, 1554.0, 1555.0, 1556.0, 1554.0, 1551.0, 1552.0, 1552.0, 1553.0, 1554.0, 1555.0, 1554.0, 1555.0, 1554.0, 1554.0, 1553.0, 1553.0, 1553.0, 1552.0, 1553.0, 1554.0, 1556.0, 1556.0, 1556.0, 1555.0, 1556.0, 1556.0, 1557.0, 1558.0, 1558.0, 1557.0, 1555.0, 1555.0, 1555.0, 1554.0, 1555.0, 1555.0, 1556.0, 1557.0, 1558.0, 1558.0, 1558.0, 1555.0, 1553.0, 1553.0, 1556.0, 1556.0, 1555.0, 1554.0, 1554.0, 1556.0, 1557.0, 1558.0, 1557.0, 1556.0, 1556.0, 1555.0, 1555.0, 1555.0, 1557.0, 1558.0, 1556.0, 1554.0, 1554.0, 1555.0, 1555.0, 1554.0, 1553.0, 1553.0, 1554.0, 1554.0, 1554.0, 1552.0, 1553.0, 1553.0, 1551.0, 1551.0, 1553.0, 1554.0, 1553.0, 1553.0, 1553.0, 1554.0, 1555.0, 1555.0, 1554.0, 1553.0, 1552.0, 1554.0, 1557.0, 1557.0, 1556.0, 1557.0, 1556.0, 1555.0, 1554.0, 1552.0, 1550.0, 1551.0, 1554.0, 1556.0, 1556.0, 1555.0, 1554.0, 1553.0, 1554.0, 1552.0, 1552.0, 1551.0, 1553.0, 1554.0, 1554.0, 1554.0, 1552.0, 1551.0, 1550.0, 1550.0, 1550.0, 1552.0, 1553.0, 1554.0, 1554.0, 1555.0, 1557.0, 1557.0, 1555.0, 1552.0, 1552.0, 1552.0, 1554.0, 1555.0, 1555.0, 1555.0, 1556.0, 1555.0, 1554.0, 1553.0, 1551.0, 1553.0, 1554.0, 1555.0, 1555.0, 1555.0, 1553.0, 1553.0, 1554.0, 1555.0, 1555.0, 1552.0, 1549.0, 1548.0, 1549.0, 1552.0, 1555.0, 1557.0, 1554.0, 1549.0, 1548.0, 1549.0, 1550.0, 1551.0, 1551.0, 1550.0, 1551.0, 1552.0, 1553.0, 1552.0, 1552.0, 1552.0, 1549.0, 1549.0, 1549.0, 1551.0, 1553.0, 1552.0, 1551.0, 1551.0, 1553.0, 1554.0, 1553.0, 1551.0, 1551.0, 1549.0, 1548.0, 1549.0, 1553.0, 1555.0, 1554.0, 1551.0, 1549.0, 1549.0, 1550.0, 1549.0, 1549.0, 1548.0, 1549.0, 1551.0, 1553.0, 1553.0, 1553.0, 1551.0, 1549.0, 1548.0, 1551.0, 1553.0, 1554.0, 1554.0, 1553.0, 1551.0, 1549.0, 1548.0, 1549.0, 1549.0]
    },
    "slices": {}
  }
}