{
  "AcquisitionMatrixPE": 72,
  "AcquisitionNumber": 1,
  "AcquisitionTime": "18:26:12.500000",
  "BandwidthPerPixelPhaseEncode": 17.943,
  "BaseResolution": 96,
  "BodyPartExamined": "BRAIN",
  "CoilCombinationMethod": "Sum of Squares",
  "ConsistencyInfo": "N4_VE11C_LATEST_20160120",
  "ConversionSoftware": "dcm2niix",
  "ConversionSoftwareVersion": "v1.0.20211006",
  "DerivedVendorReportedEchoSpacing": 0.000552897,
  "DeviceSerialNumber": "166011",
  "EchoTime": 0.03,
  "EchoTrainLength": 58,
  "EffectiveEchoSpacing": 0.000580542,
  "FlipAngle": 62,
  "ImageOrientationPatientDICOM": [0.997791, -0.028044, 0.0602262, 0.0351923, 0.992014, -0.121119],
  "ImageType": [
    "ORIGINAL",
    "PRIMARY",
    "M",
    "ND",
    "MOSAIC"
],
  "ImagingFrequency": 123.259,
  "InPlanePhaseEncodingDirectionDICOM": "COL",
  "InstitutionAddress": "West 130th Street 610,NY,NYC,US,10025",
  "InstitutionName": "MBBI",
  "MRAcquisitionType": "2D",
  "MagneticFieldStrength": 3,
  "Manufacturer": "Siemens",
  "ManufacturersModelName": "Prisma",
  "Modality": "MR",
  "MultibandAccelerationFactor": 3,
  "PartialFourier": 0.75,
  "PatientPosition": "HFS",
  "PercentPhaseFOV": 100,
  "PercentSampling": 75,
  "PhaseEncodingDirection": "j-",
  "PhaseEncodingSteps": 58,
  "PhaseOversampling": 0.05,
  "PhaseResolution": 0.75,
  "PixelBandwidth": 2265,
  "ProcedureStepDescription": "White^Word_recognition",
  "ProtocolName": "func_vwfate_run1",
  "PulseSequenceDetails": "%SiemensSeq%\\ep2d_bold",
  "ReceiveCoilActiveElements": "HC1-7",
  "ReceiveCoilName": "HeadNeck_64",
  "ReconMatrixPE": 96,
  "RefLinesPE": 40,
  "RepetitionTime": 1.5,
  "SAR": 0.0474231,
  "ScanOptions": "PFP\\FS",
  "ScanningSequence": "EP",
  "SequenceName": "*epfid2d1_72",
  "SequenceVariant": "SK\\OSP",
  "SeriesDescription": "func_vwfate_run1",
  "SeriesNumber": 8,
  "ShimSetting": [-1131, -1351, 692, 538, -55, 97, -18, -9],
  "SliceThickness": 2,
  "SliceTiming": [1.075, 0, 0.74, 0.0675, 0.8075, 0.135, 0.875, 0.2025, 0.9425, 0.27, 1.01, 0.4025, 1.1425, 0.47, 1.21, 0.5375, 1.2775, 0.605, 1.345, 0.6725, 1.4125, 0.335, 1.075, 0, 0.74, 0.0675, 0.8075, 0.135, 0.875, 0.2025, 0.9425, 0.27, 1.01, 0.4025, 1.1425, 0.47, 1.21, 0.5375, 1.2775, 0.605, 1.345, 0.6725, 1.4125, 0.335, 1.075, 0, 0.74, 0.0675, 0.8075, 0.135, 0.875, 0.2025, 0.9425, 0.27, 1.01, 0.4025, 1.1425, 0.47, 1.21, 0.5375, 1.2775, 0.605, 1.345, 0.6725, 1.4125, 0.335],
  "SoftwareVersions": "syngo MR E11",
  "SpacingBetweenSlices": 2,
  "StationName": "AWP166011",
  "TaskName": "vwfate",
  "TotalReadoutTime": 0.0551515,
  "TxRefAmp": 228.376,
  "dcmmeta_affine": [
    [-1.9955815076828003, 0.07038458436727524, 0.112697072327137, 92.5066909790039],
    [0.056087903678417206, 1.9840278625488281, -0.24594242870807648, -72.6191635131836],
    [0.12045234441757202, 0.2422386109828949, 1.9816184043884277, -88.25450897216797],
    [0.0, 0.0, 0.0, 1.0]
],
  "dcmmeta_reorient_transform": [
    [0.0, -1.0, 0.0, 95.0],
    [1.0, 0.0, 0.0, 0.0],
    [0.0, 0.0, 1.0, 0.0],
    [0.0, 0.0, 0.0, 1.0]
],
  "dcmmeta_shape": [96, 96, 66, 164],
  "dcmmeta_slice_dim": 2,
  "dcmmeta_version": 0.6,
  "global": {
    "const": {
      "AcquisitionMatrix": [96, 0, 0, 72],
      "AngioFlag": "N",
      "BitsAllocated": 16,
      "BitsStored": 12,
      "BodyPartExamined": "BRAIN",
      "Columns": 864,
      "EchoNumbers": 1,
      "EchoTime": 30.0,
      "EchoTrainLength": 58,
      "FlipAngle": 62.0,
      "HighBit": 11,
      "ImageOrientationPatient": [0.99779073205804, -0.0280439511388, 0.0602261722477, 0.03519229116502, 0.99201391966704, -0.1211193041153],
      "ImagePositionPatient": [-892.52419153629, -856.19241570817, -18.475919515575],
      "ImageType": [
        "ORIGINAL",
        "PRIMARY",
        "M",
        "ND",
        "MOSAIC"
],
      "ImagedNucleus": "1H",
      "ImagingFrequency": 123.259425,
      "InPlanePhaseEncodingDirection": "COL",
      "MRAcquisitionType": "2D",
      "MagneticFieldStrength": 3.0,
      "Manufacturer": "SIEMENS",
      "ManufacturerModelName": "Prisma",
      "Modality": "MR",
      "NumberOfAverages": 1.0,
      "NumberOfPhaseEncodingSteps": 58,
      "PercentPhaseFieldOfView": 100.0,
      "PercentSampling": 75.0,
      "PerformedProcedureStepStartTime": "180711.868000",
      "PhotometricInterpretation": "MONOCHROME2",
      "PixelBandwidth": 2265.0,
      "PixelRepresentation": 0,
      "PixelSpacing": [2.0, 2.0],
      "ProtocolName": "func_vwfate_run1",
      "RepetitionTime": 1500.0,
      "Rows": 864,
      "SAR": 0.04742311922172,
      "SamplesPerPixel": 1,
      "ScanOptions": [
        "PFP",
        "FS"
],
      "ScanningSequence": "EP",
      "SequenceName": "*epfid2d1_72",
      "SequenceVariant": [
        "SK",
        "OSP"
],
      "SeriesDescription": "func_vwfate_run1",
      "SeriesNumber": 8,
      "SeriesTime": "182644.655000",
      "SliceLocation": -73.300701354264,
      "SliceThickness": 2.0,
      "SmallestImagePixelValue": 0,
      "SoftwareVersions": "syngo MR E11",
      "SpacingBetweenSlices": 1.9999999887751,
      "SpecificCharacterSet": "ISO_IR 100",
      "StudyID": "2",
      "StudyTime": "180711.816000",
      "TransmitCoilName": "Body",
      "VariableFlipAngleFlag": "N",
      "WindowCenterWidthExplanation": "Algo1",
      "dBdt": 0.0},
    "slices": {}
  },
  "time": {
    "samples": {
      "AcquisitionNumber": [1, 2, 3, 4, 5, 6, 7, 8, 9, 10, 11, 12, 13, 14, 15, 16, 17, 18, 19, 20, 21, 22, 23, 24, 25, 26, 27, 28, 29, 30, 31, 32, 33, 34, 35, 36, 37, 38, 39, 40, 41, 42, 43, 44, 45, 46, 47, 48, 49, 50, 51, 52, 53, 54, 55, 56, 57, 58, 59, 60, 61, 62, 63, 64, 65, 66, 67, 68, 69, 70, 71, 72, 73, 74, 75, 76, 77, 78, 79, 80, 81, 82, 83, 84, 85, 86, 87, 88, 89, 90, 91, 92, 93, 94, 95, 96, 97, 98, 99, 100, 101, 102, 103, 104, 105, 106, 107, 108, 109, 110, 111, 112, 113, 114, 115, 116, 117, 118, 119, 120, 121, 122, 123, 124, 125, 126, 127, 128, 129, 130, 131, 132, 133, 134, 135, 136, 137, 138, 139, 140, 141, 142, 143, 144, 145, 146, 147, 148, 149, 150, 151, 152, 153, 154, 155, 156, 157, 158, 159, 160, 161, 162, 163, 164],
      "AcquisitionTime": ["182612.500000", "182614.000000", "182615.500000", "182617.000000", "182618.500000", "182620.000000", "182621.500000", "182623.000000", "182624.500000", "182626.000000", "182627.500000", "182629.000000", "182630.500000", "182632.000000", "182633.500000", "182635.000000", "182636.500000", "182638.000000", "182639.500000", "182641.000000", "182642.500000", "182644.000000", "182645.500000", "182647.000000", "182648.500000", "182650.000000", "182651.500000", "182653.000000", "182654.500000", "182656.000000", "182657.500000", "182659.000000", "182700.500000", "182702.000000", "182703.500000", "182705.000000", "182706.500000", "182708.000000", "182709.500000", "182711.000000", "182712.500000", "182714.000000", "182715.500000", "182717.000000", "182718.500000", "182720.000000", "182721.500000", "182723.000000", "182724.500000", "182726.000000", "182727.500000", "182729.000000", "182730.500000", "182732.000000", "182733.500000", "182735.000000", "182736.500000", "182738.000000", "182739.500000", "182741.000000", "182742.500000", "182744.000000", "182745.500000", "182747.000000", "182748.500000", "182750.000000", "182751.500000", "182753.000000", "182754.500000", "182756.000000", "182757.500000", "182759.000000", "182800.500000", "182802.000000", "182803.500000", "182805.000000", "182806.500000", "182808.000000", "182809.500000", "182811.000000", "182812.500000", "182814.000000", "182815.500000", "182817.000000", "182818.500000", "182820.000000", "182821.500000", "182823.000000", "182824.500000", "182826.000000", "182827.500000", "182829.000000", "182830.500000", "182832.000000", "182833.500000", "182835.000000", "182836.500000", "182838.000000", "182839.500000", "182841.000000", "182842.500000", "182844.000000", "182845.500000", "182847.000000", "182848.500000", "182850.000000", "182851.500000", "182853.000000", "182854.500000", "182856.000000", "182857.500000", "182859.000000", "182900.500000", "182902.000000", "182903.500000", "182905.000000", "182906.500000", "182908.000000", "182909.500000", "182911.000000", "182912.500000", "182914.000000", "182915.500000", "182917.000000", "182918.500000", "182920.000000", "182921.500000", "182923.000000", "182924.500000", "182926.000000", "182927.500000", "182929.000000", "182930.500000", "182932.000000", "182933.500000", "182935.000000", "182936.500000", "182938.000000", "182939.500000", "182941.000000", "182942.500000", "182944.000000", "182945.500000", "182947.000000", "182948.500000", "182950.000000", "182951.500000", "182953.000000", "182954.500000", "182956.000000", "182957.500000", "182959.000000", "183000.500000", "183002.000000", "183003.500000", "183005.000000", "183006.500000", "183008.000000", "183009.500000", "183011.000000", "183012.500000", "183014.000000", "183015.500000", "183017.000000"],
      "ContentTime": ["182644.659000", "182644.663000", "182644.665000", "182644.669000", "182644.672000", "182644.675000", "182644.678000", "182644.681000", "182644.684000", "182644.687000", "182644.690000", "182644.698000", "182644.701000", "182644.706000", "182644.709000", "182644.712000", "182644.715000", "182644.718000", "182644.721000", "182644.724000", "182644.728000", "182724.655000", "182724.658000", "182724.662000", "182724.665000", "182724.668000", "182724.678000", "182724.681000", "182724.684000", "182724.687000", "182724.690000", "182724.693000", "182724.696000", "182724.699000", "182724.702000", "182724.705000", "182724.708000", "182724.711000", "182724.714000", "182724.717000", "182724.720000", "182724.723000", "182724.726000", "182724.729000", "182724.732000", "182724.735000", "182724.738000", "182724.741000", "182804.655000", "182804.658000", "182804.661000", "182804.664000", "182804.667000", "182804.670000", "182804.675000", "182804.678000", "182804.681000", "182804.684000", "182804.687000", "182804.690000", "182804.693000", "182804.696000", "182804.699000", "182804.702000", "182804.705000", "182804.708000", "182804.711000", "182804.720000", "182804.723000", "182804.726000", "182804.729000", "182804.732000", "182804.735000", "182804.738000", "182844.654000", "182844.657000", "182844.660000", "182844.663000", "182844.666000", "182844.669000", "182844.672000", "182844.675000", "182844.678000", "182844.681000", "182844.684000", "182844.687000", "182844.690000", "182844.693000", "182844.696000", "182844.699000", "182844.702000", "182844.705000", "182844.708000", "182844.711000", "182844.714000", "182844.717000", "182844.720000", "182844.736000", "182844.739000", "182844.743000", "182844.746000", "182924.654000", "182924.657000", "182924.660000", "182924.663000", "182924.666000", "182924.669000", "182924.672000", "182924.675000", "182924.679000", "182924.682000", "182924.684000", "182924.687000", "182924.691000", "182924.694000", "182924.697000", "182924.700000", "182924.703000", "182924.706000", "182924.709000", "182924.712000", "182924.715000", "182924.718000", "182924.721000", "182924.724000", "182924.727000", "182924.730000", "182924.733000", "183004.655000", "183004.658000", "183004.661000", "183004.664000", "183004.667000", "183004.672000", "183004.675000", "183004.678000", "183004.681000", "183004.684000", "183004.687000", "183004.690000", "183004.693000", "183004.705000", "183004.708000", "183004.711000", "183004.714000", "183004.717000", "183004.720000", "183004.723000", "183004.726000", "183004.730000", "183004.733000", "183004.736000", "183004.739000", "183004.742000", "183018.447000", "183018.450000", "183018.453000", "183018.457000", "183018.460000", "183018.464000", "183018.468000", "183018.471000", "183018.474000", "183018.478000"],
      "InstanceCreationTime": ["182644.659000", "182644.663000", "182644.665000", "182644.669000", "182644.672000", "182644.675000", "182644.678000", "182644.681000", "182644.684000", "182644.687000", "182644.690000", "182644.698000", "182644.701000", "182644.706000", "182644.709000", "182644.712000", "182644.715000", "182644.718000", "182644.721000", "182644.724000", "182644.728000", "182724.655000", "182724.658000", "182724.662000", "182724.665000", "182724.668000", "182724.678000", "182724.681000", "182724.684000", "182724.687000", "182724.690000", "182724.693000", "182724.696000", "182724.699000", "182724.702000", "182724.705000", "182724.708000", "182724.711000", "182724.714000", "182724.717000", "182724.720000", "182724.723000", "182724.726000", "182724.729000", "182724.732000", "182724.735000", "182724.738000", "182724.741000", "182804.655000", "182804.658000", "182804.661000", "182804.664000", "182804.667000", "182804.670000", "182804.675000", "182804.678000", "182804.681000", "182804.684000", "182804.687000", "182804.690000", "182804.693000", "182804.696000", "182804.699000", "182804.702000", "182804.705000", "182804.708000", "182804.711000", "182804.720000", "182804.723000", "182804.726000", "182804.729000", "182804.732000", "182804.735000", "182804.738000", "182844.654000", "182844.657000", "182844.660000", "182844.663000", "182844.666000", "182844.669000", "182844.672000", "182844.675000", "182844.678000", "182844.681000", "182844.684000", "182844.687000", "182844.690000", "182844.693000", "182844.696000", "182844.699000", "182844.702000", "182844.705000", "182844.708000", "182844.711000", "182844.714000", "182844.717000", "182844.720000", "182844.736000", "182844.739000", "182844.743000", "182844.746000", "182924.654000", "182924.657000", "182924.660000", "182924.663000", "182924.666000", "182924.669000", "182924.672000", "182924.675000", "182924.679000", "182924.682000", "182924.684000", "182924.687000", "182924.691000", "182924.694000", "182924.697000", "182924.700000", "182924.703000", "182924.706000", "182924.709000", "182924.712000", "182924.715000", "182924.718000", "182924.721000", "182924.724000", "182924.727000", "182924.730000", "182924.733000", "183004.655000", "183004.658000", "183004.661000", "183004.664000", "183004.667000", "183004.672000", "183004.675000", "183004.678000", "183004.681000", "183004.684000", "183004.687000", "183004.690000", "183004.693000", "183004.705000", "183004.708000", "183004.711000", "183004.714000", "183004.717000", "183004.720000", "183004.723000", "183004.726000", "183004.730000", "183004.733000", "183004.736000", "183004.739000", "183004.742000", "183018.447000", "183018.450000", "183018.453000", "183018.457000", "183018.460000", "183018.464000", "183018.468000", "183018.471000", "183018.474000", "183018.478000"],
      "InstanceNumber": [1, 2, 3, 4, 5, 6, 7, 8, 9, 10, 11, 12, 13, 14, 15, 16, 17, 18, 19, 20, 21, 22, 23, 24, 25, 26, 27, 28, 29, 30, 31, 32, 33, 34, 35, 36, 37, 38, 39, 40, 41, 42, 43, 44, 45, 46, 47, 48, 49, 50, 51, 52, 53, 54, 55, 56, 57, 58, 59, 60, 61, 62, 63, 64, 65, 66, 67, 68, 69, 70, 71, 72, 73, 74, 75, 76, 77, 78, 79, 80, 81, 82, 83, 84, 85, 86, 87, 88, 89, 90, 91, 92, 93, 94, 95, 96, 97, 98, 99, 100, 101, 102, 103, 104, 105, 106, 107, 108, 109, 110, 111, 112, 113, 114, 115, 116, 117, 118, 119, 120, 121, 122, 123, 124, 125, 126, 127, 128, 129, 130, 131, 132, 133, 134, 135, 136, 137, 138, 139, 140, 141, 142, 143, 144, 145, 146, 147, 148, 149, 150, 151, 152, 153, 154, 155, 156, 157, 158, 159, 160, 161, 162, 163, 164],
      "LargestImagePixelValue": [2218, 2195, 2144, 2158, 2132, 2166, 2147, 2162, 2147, 2141, 2163, 2116, 2153, 2091, 2148, 2123, 2144, 2134, 2148, 2142, 2155, 2149, 2143, 2144, 2134, 2141, 2151, 2115, 2132, 2131, 2155, 2145, 2114, 2134, 2124, 2131, 2118, 2148, 2128, 2129, 2136, 2121, 2103, 2126, 2121, 2112, 2117, 2115, 2149, 2117, 2125, 2149, 2120, 2103, 2140, 2132, 2137, 2146, 2138, 2155, 2120, 2115, 2133, 2123, 2104, 2121, 2145, 2105, 2129, 2122, 2108, 2122, 2121, 2119, 2129, 2132, 2153, 2169, 2116, 2171, 2141, 2131, 2155, 2152, 2164, 2190, 2128, 2160, 2146, 2143, 2196, 2153, 2141, 2180, 2176, 2141, 2182, 2184, 2161, 2215, 2163, 2171, 2135, 2183, 2185, 2180, 2189, 2155, 2166, 2160, 2160, 2175, 2169, 2188, 2213, 2172, 2154, 2198, 2161, 2171, 2220, 2161, 2165, 2181, 2188, 2163, 2225, 2185, 2186, 2192, 2186, 2185, 2159, 2203, 2205, 2180, 2163, 2210, 2196, 2160, 2179, 2186, 2207, 2216, 2222, 2200, 2225, 2202, 2179, 2205, 2174, 2209, 2200, 2166, 2191, 2191, 2237, 2217, 2179, 2194, 2205, 2208, 2207, 2186],
      "WindowCenter": [727.0, 726.0, 726.0, 726.0, 726.0, 726.0, 725.0, 725.0, 724.0, 725.0, 725.0, 724.0, 725.0, 724.0, 725.0, 724.0, 724.0, 724.0, 725.0, 725.0, 724.0, 724.0, 725.0, 726.0, 726.0, 726.0, 725.0, 725.0, 725.0, 725.0, 725.0, 725.0, 724.0, 725.0, 724.0, 724.0, 724.0, 724.0, 725.0, 726.0, 727.0, 726.0, 724.0, 724.0, 723.0, 724.0, 724.0, 724.0, 724.0, 724.0, 723.0, 723.0, 723.0, 723.0, 724.0, 724.0, 725.0, 724.0, 724.0, 724.0, 724.0, 724.0, 724.0, 724.0, 724.0, 723.0, 723.0, 723.0, 723.0, 723.0, 723.0, 723.0, 723.0, 722.0, 723.0, 725.0, 725.0, 725.0, 724.0, 724.0, 723.0, 722.0, 723.0, 724.0, 724.0, 725.0, 723.0, 722.0, 723.0, 723.0, 724.0, 724.0, 724.0, 724.0, 723.0, 723.0, 723.0, 723.0, 724.0, 724.0, 723.0, 723.0, 723.0, 724.0, 725.0, 725.0, 725.0, 725.0, 724.0, 724.0, 723.0, 723.0, 724.0, 724.0, 724.0, 724.0, 723.0, 723.0, 723.0, 724.0, 724.0, 723.0, 722.0, 722.0, 723.0, 724.0, 725.0, 725.0, 724.0, 724.0, 723.0, 723.0, 723.0, 723.0, 723.0, 724.0, 724.0, 724.0, 724.0, 723.0, 723.0, 723.0, 723.0, 723.0, 723.0, 724.0, 725.0, 724.0, 723.0, 723.0, 722.0, 723.0, 724.0, 723.0, 724.0, 723.0, 724.0, 723.0, 722.0, 722.0, 722.0, 723.0, 723.0, 722.0],
      "WindowWidth": [1568.0, 1564.0, 1564.0, 1564.0, 1564.0, 1565.0, 1563.0, 1562.0, 1560.0, 1561.0, 1562.0, 1561.0, 1562.0, 1560.0, 1561.0, 1560.0, 1560.0, 1561.0, 1561.0, 1562.0, 1560.0, 1560.0, 1562.0, 1564.0, 1566.0, 1565.0, 1563.0, 1561.0, 1562.0, 1561.0, 1562.0, 1562.0, 1560.0, 1561.0, 1560.0, 1560.0, 1558.0, 1560.0, 1562.0, 1565.0, 1568.0, 1564.0, 1560.0, 1559.0, 1557.0, 1558.0, 1559.0, 1559.0, 1559.0, 1558.0, 1557.0, 1557.0, 1556.0, 1556.0, 1559.0, 1560.0, 1561.0, 1560.0, 1559.0, 1559.0, 1558.0, 1559.0, 1560.0, 1560.0, 1559.0, 1557.0, 1557.0, 1555.0, 1556.0, 1556.0, 1556.0, 1557.0, 1556.0, 1554.0, 1558.0, 1561.0, 1563.0, 1563.0, 1560.0, 1558.0, 1557.0, 1554.0, 1555.0, 1558.0, 1560.0, 1562.0, 1557.0, 1554.0, 1555.0, 1557.0, 1560.0, 1559.0, 1558.0, 1559.0, 1557.0, 1556.0, 1557.0, 1558.0, 1559.0, 1560.0, 1556.0, 1556.0, 1556.0, 1559.0, 1561.0, 1563.0, 1562.0, 1560.0, 1558.0, 1558.0, 1557.0, 1557.0, 1558.0, 1559.0, 1560.0, 1558.0, 1555.0, 1557.0, 1558.0, 1558.0, 1558.0, 1555.0, 1553.0, 1553.0, 1555.0, 1558.0, 1562.0, 1561.0, 1559.0, 1558.0, 1556.0, 1556.0, 1556.0, 1556.0, 1557.0, 1559.0, 1558.0, 1559.0, 1558.0, 1556.0, 1556.0, 1556.0, 1556.0, 1556.0, 1557.0, 1560.0, 1560.0, 1559.0, 1557.0, 1555.0, 1555.0, 1557.0, 1558.0, 1557.0, 1558.0, 1556.0, 1558.0, 1557.0, 1554.0, 1553.0, 1554.0, 1555.0, 1556.0, 1554.0]
    },
    "slices": {}
  }
}