{
  "AcquisitionMatrixPE": 72,
  "AcquisitionNumber": 1,
  "AcquisitionTime": "15:41:31.450000",
  "BandwidthPerPixelPhaseEncode": 17.943,
  "BaseResolution": 96,
  "BodyPartExamined": "BRAIN",
  "CoilCombinationMethod": "Sum of Squares",
  "ConsistencyInfo": "N4_VE11C_LATEST_20160120",
  "ConversionSoftware": "dcm2niix",
  "ConversionSoftwareVersion": "v1.0.20211006",
  "DerivedVendorReportedEchoSpacing": 0.000552897,
  "DeviceSerialNumber": "166011",
  "EchoTime": 0.03,
  "EchoTrainLength": 58,
  "EffectiveEchoSpacing": 0.000580542,
  "FlipAngle": 62,
  "ImageOrientationPatientDICOM": [0.994565, 0.101183, -0.0245633, -0.103831, 0.981421, -0.161345],
  "ImageType": [
    "ORIGINAL",
    "PRIMARY",
    "M",
    "ND",
    "MOSAIC"
],
  "ImagingFrequency": 123.26,
  "InPlanePhaseEncodingDirectionDICOM": "COL",
  "InstitutionAddress": "West 130th Street 610,NY,NYC,US,10025",
  "InstitutionName": "MBBI",
  "MRAcquisitionType": "2D",
  "MagneticFieldStrength": 3,
  "Manufacturer": "Siemens",
  "ManufacturersModelName": "Prisma",
  "Modality": "MR",
  "MultibandAccelerationFactor": 3,
  "PartialFourier": 0.75,
  "PatientPosition": "HFS",
  "PercentPhaseFOV": 100,
  "PercentSampling": 75,
  "PhaseEncodingDirection": "j-",
  "PhaseEncodingSteps": 58,
  "PhaseOversampling": 0.05,
  "PhaseResolution": 0.75,
  "PixelBandwidth": 2265,
  "ProcedureStepDescription": "White^Word_recognition",
  "ProtocolName": "func_vwfate_run4",
  "PulseSequenceDetails": "%SiemensSeq%\\ep2d_bold",
  "ReceiveCoilActiveElements": "HC1-7",
  "ReceiveCoilName": "HeadNeck_64",
  "ReconMatrixPE": 96,
  "RefLinesPE": 40,
  "RepetitionTime": 1.5,
  "SAR": 0.0478671,
  "ScanOptions": "PFP\\FS",
  "ScanningSequence": "EP",
  "SequenceName": "*epfid2d1_72",
  "SequenceVariant": "SK\\OSP",
  "SeriesDescription": "func_vwfate_run4",
  "SeriesNumber": 12,
  "ShimSetting": [-1145, -1336, 627, 663, -133, 92, -64, 29],
  "SliceThickness": 2,
  "SliceTiming": [1.0775, 0, 0.74, 0.0675, 0.8075, 0.135, 0.875, 0.2025, 0.9425, 0.27, 1.01, 0.405, 1.145, 0.47, 1.21, 0.5375, 1.2775, 0.605, 1.345, 0.6725, 1.4125, 0.3375, 1.0775, 0, 0.74, 0.0675, 0.8075, 0.135, 0.875, 0.2025, 0.9425, 0.27, 1.01, 0.405, 1.145, 0.47, 1.21, 0.5375, 1.2775, 0.605, 1.345, 0.6725, 1.4125, 0.3375, 1.0775, 0, 0.74, 0.0675, 0.8075, 0.135, 0.875, 0.2025, 0.9425, 0.27, 1.01, 0.405, 1.145, 0.47, 1.21, 0.5375, 1.2775, 0.605, 1.345, 0.6725, 1.4125, 0.3375],
  "SoftwareVersions": "syngo MR E11",
  "SpacingBetweenSlices": 2,
  "StationName": "AWP166011",
  "TaskName": "vwfate",
  "TotalReadoutTime": 0.0551515,
  "TxRefAmp": 221.835,
  "dcmmeta_affine": [
    [-1.9891290664672852, -0.20766191184520721, -0.01556301862001419, 110.06775665283203],
    [-0.2023666501045227, 1.9628417491912842, -0.3260365426540375, -54.14857864379883],
    [-0.049126558005809784, 0.32268962264060974, 1.9731848239898682, -81.49652099609375],
    [0.0, 0.0, 0.0, 1.0]
],
  "dcmmeta_reorient_transform": [
    [0.0, -1.0, 0.0, 95.0],
    [1.0, 0.0, 0.0, 0.0],
    [0.0, 0.0, 1.0, 0.0],
    [0.0, 0.0, 0.0, 1.0]
],
  "dcmmeta_shape": [96, 96, 66, 164],
  "dcmmeta_slice_dim": 2,
  "dcmmeta_version": 0.6,
  "global": {
    "const": {
      "AcquisitionMatrix": [96, 0, 0, 72],
      "AngioFlag": "N",
      "BitsAllocated": 16,
      "BitsStored": 12,
      "BodyPartExamined": "BRAIN",
      "Columns": 864,
      "EchoNumbers": 1,
      "EchoTime": 30.0,
      "EchoTrainLength": 58,
      "FlipAngle": 62.0,
      "HighBit": 11,
      "ImageOrientationPatient": [0.99456451776156, 0.1011833255946, -0.0245632781066, -0.1038309593753, 0.98142089919167, -0.1613448186494],
      "ImagePositionPatient": [-774.4232483909, -963.76143624744, 91.936416581127],
      "ImageType": [
        "ORIGINAL",
        "PRIMARY",
        "M",
        "ND",
        "MOSAIC"
],
      "ImagedNucleus": "1H",
      "ImagingFrequency": 123.259543,
      "InPlanePhaseEncodingDirection": "COL",
      "MRAcquisitionType": "2D",
      "MagneticFieldStrength": 3.0,
      "Manufacturer": "SIEMENS",
      "ManufacturerModelName": "Prisma",
      "Modality": "MR",
      "NumberOfAverages": 1.0,
      "NumberOfPhaseEncodingSteps": 58,
      "PercentPhaseFieldOfView": 100.0,
      "PercentSampling": 75.0,
      "PerformedProcedureStepStartTime": "145822.861000",
      "PhotometricInterpretation": "MONOCHROME2",
      "PixelBandwidth": 2265.0,
      "PixelRepresentation": 0,
      "PixelSpacing": [2.0, 2.0],
      "ProtocolName": "func_vwfate_run4",
      "RepetitionTime": 1500.0,
      "Rows": 864,
      "SAR": 0.04786709989658,
      "SamplesPerPixel": 1,
      "ScanOptions": [
        "PFP",
        "FS"
],
      "ScanningSequence": "EP",
      "SequenceName": "*epfid2d1_72",
      "SequenceVariant": [
        "SK",
        "OSP"
],
      "SeriesDescription": "func_vwfate_run4",
      "SeriesNumber": 12,
      "SeriesTime": "154217.034000",
      "SliceLocation": -72.433127793424,
      "SliceThickness": 2.0,
      "SmallestImagePixelValue": 0,
      "SoftwareVersions": "syngo MR E11",
      "SpacingBetweenSlices": 2.0000000608364,
      "SpecificCharacterSet": "ISO_IR 100",
      "StudyID": "1",
      "StudyTime": "145822.809000",
      "TransmitCoilName": "Body",
      "VariableFlipAngleFlag": "N",
      "WindowCenterWidthExplanation": "Algo1",
      "dBdt": 0.0},
    "slices": {}
  },
  "time": {
    "samples": {
      "AcquisitionNumber": [1, 2, 3, 4, 5, 6, 7, 8, 9, 10, 11, 12, 13, 14, 15, 16, 17, 18, 19, 20, 21, 22, 23, 24, 25, 26, 27, 28, 29, 30, 31, 32, 33, 34, 35, 36, 37, 38, 39, 40, 41, 42, 43, 44, 45, 46, 47, 48, 49, 50, 51, 52, 53, 54, 55, 56, 57, 58, 59, 60, 61, 62, 63, 64, 65, 66, 67, 68, 69, 70, 71, 72, 73, 74, 75, 76, 77, 78, 79, 80, 81, 82, 83, 84, 85, 86, 87, 88, 89, 90, 91, 92, 93, 94, 95, 96, 97, 98, 99, 100, 101, 102, 103, 104, 105, 106, 107, 108, 109, 110, 111, 112, 113, 114, 115, 116, 117, 118, 119, 120, 121, 122, 123, 124, 125, 126, 127, 128, 129, 130, 131, 132, 133, 134, 135, 136, 137, 138, 139, 140, 141, 142, 143, 144, 145, 146, 147, 148, 149, 150, 151, 152, 153, 154, 155, 156, 157, 158, 159, 160, 161, 162, 163, 164],
      "AcquisitionTime": ["154131.450000", "154132.950000", "154134.450000", "154135.950000", "154137.450000", "154138.950000", "154140.450000", "154141.950000", "154143.450000", "154144.950000", "154146.450000", "154147.950000", "154149.450000", "154150.950000", "154152.450000", "154153.950000", "154155.450000", "154156.950000", "154158.450000", "154159.950000", "154201.450000", "154202.950000", "154204.450000", "154205.950000", "154207.450000", "154208.950000", "154210.450000", "154211.950000", "154213.450000", "154214.950000", "154216.450000", "154217.950000", "154219.450000", "154220.950000", "154222.450000", "154223.950000", "154225.450000", "154226.950000", "154228.450000", "154229.950000", "154231.450000", "154232.950000", "154234.450000", "154235.950000", "154237.450000", "154238.950000", "154240.450000", "154241.950000", "154243.450000", "154244.950000", "154246.450000", "154247.950000", "154249.450000", "154250.950000", "154252.450000", "154253.950000", "154255.450000", "154256.950000", "154258.450000", "154259.950000", "154301.450000", "154302.950000", "154304.450000", "154305.950000", "154307.450000", "154308.950000", "154310.450000", "154311.950000", "154313.450000", "154314.950000", "154316.450000", "154317.950000", "154319.450000", "154320.950000", "154322.450000", "154323.950000", "154325.450000", "154326.950000", "154328.450000", "154329.950000", "154331.450000", "154332.950000", "154334.450000", "154335.950000", "154337.450000", "154338.950000", "154340.450000", "154341.950000", "154343.450000", "154344.950000", "154346.450000", "154347.950000", "154349.450000", "154350.950000", "154352.450000", "154353.950000", "154355.450000", "154356.950000", "154358.450000", "154359.950000", "154401.450000", "154402.950000", "154404.450000", "154405.950000", "154407.450000", "154408.950000", "154410.450000", "154411.950000", "154413.450000", "154414.950000", "154416.450000", "154417.950000", "154419.450000", "154420.950000", "154422.450000", "154423.950000", "154425.450000", "154426.950000", "154428.450000", "154429.950000", "154431.450000", "154432.950000", "154434.450000", "154435.950000", "154437.450000", "154438.950000", "154440.450000", "154441.950000", "154443.450000", "154444.950000", "154446.450000", "154447.950000", "154449.450000", "154450.950000", "154452.450000", "154453.950000", "154455.450000", "154456.950000", "154458.450000", "154459.950000", "154501.450000", "154502.950000", "154504.450000", "154505.950000", "154507.450000", "154508.950000", "154510.450000", "154511.950000", "154513.450000", "154514.950000", "154516.450000", "154517.950000", "154519.450000", "154520.950000", "154522.450000", "154523.950000", "154525.450000", "154526.950000", "154528.450000", "154529.950000", "154531.450000", "154532.950000", "154534.450000", "154535.950000"],
      "ContentTime": ["154217.038000", "154217.048000", "154217.051000", "154217.054000", "154217.057000", "154217.062000", "154217.066000", "154217.069000", "154217.072000", "154217.075000", "154217.078000", "154217.081000", "154217.084000", "154217.088000", "154217.091000", "154217.094000", "154217.097000", "154217.100000", "154217.104000", "154217.107000", "154217.110000", "154217.117000", "154217.120000", "154217.123000", "154217.146000", "154217.150000", "154217.153000", "154217.156000", "154217.159000", "154217.162000", "154257.033000", "154257.036000", "154257.039000", "154257.042000", "154257.046000", "154257.049000", "154257.052000", "154257.055000", "154257.058000", "154257.061000", "154257.064000", "154257.067000", "154257.070000", "154257.073000", "154257.076000", "154257.083000", "154257.087000", "154257.090000", "154257.093000", "154257.096000", "154257.099000", "154257.102000", "154257.105000", "154257.108000", "154257.113000", "154257.116000", "154257.119000", "154337.033000", "154337.036000", "154337.039000", "154337.042000", "154337.045000", "154337.049000", "154337.052000", "154337.055000", "154337.058000", "154337.061000", "154337.064000", "154337.067000", "154337.070000", "154337.073000", "154337.076000", "154337.079000", "154337.082000", "154337.085000", "154337.088000", "154337.092000", "154337.095000", "154337.098000", "154337.101000", "154337.104000", "154337.107000", "154337.110000", "154337.113000", "154417.033000", "154417.036000", "154417.039000", "154417.043000", "154417.050000", "154417.053000", "154417.056000", "154417.059000", "154417.063000", "154417.066000", "154417.069000", "154417.072000", "154417.075000", "154417.078000", "154417.081000", "154417.084000", "154417.088000", "154417.091000", "154417.094000", "154417.097000", "154417.100000", "154417.103000", "154417.106000", "154417.109000", "154417.112000", "154417.115000", "154457.033000", "154457.036000", "154457.039000", "154457.042000", "154457.046000", "154457.049000", "154457.052000", "154457.055000", "154457.058000", "154457.061000", "154457.065000", "154457.068000", "154457.071000", "154457.074000", "154457.077000", "154457.080000", "154457.083000", "154457.086000", "154457.089000", "154457.092000", "154457.096000", "154457.099000", "154457.102000", "154457.105000", "154457.108000", "154457.111000", "154457.114000", "154536.777000", "154536.781000", "154536.784000", "154536.787000", "154536.791000", "154536.794000", "154536.797000", "154536.800000", "154536.803000", "154536.807000", "154536.810000", "154536.814000", "154536.818000", "154536.821000", "154536.824000", "154536.828000", "154536.831000", "154536.834000", "154536.837000", "154536.840000", "154536.843000", "154536.846000", "154536.849000", "154536.852000", "154536.855000", "154536.859000", "154536.862000"],
      "InstanceCreationTime": ["154217.038000", "154217.048000", "154217.051000", "154217.054000", "154217.057000", "154217.062000", "154217.066000", "154217.069000", "154217.072000", "154217.075000", "154217.078000", "154217.081000", "154217.084000", "154217.088000", "154217.091000", "154217.094000", "154217.097000", "154217.100000", "154217.104000", "154217.107000", "154217.110000", "154217.117000", "154217.120000", "154217.123000", "154217.146000", "154217.150000", "154217.153000", "154217.156000", "154217.159000", "154217.162000", "154257.033000", "154257.036000", "154257.039000", "154257.042000", "154257.046000", "154257.049000", "154257.052000", "154257.055000", "154257.058000", "154257.061000", "154257.064000", "154257.067000", "154257.070000", "154257.073000", "154257.076000", "154257.083000", "154257.087000", "154257.090000", "154257.093000", "154257.096000", "154257.099000", "154257.102000", "154257.105000", "154257.108000", "154257.113000", "154257.116000", "154257.119000", "154337.033000", "154337.036000", "154337.039000", "154337.042000", "154337.045000", "154337.049000", "154337.052000", "154337.055000", "154337.058000", "154337.061000", "154337.064000", "154337.067000", "154337.070000", "154337.073000", "154337.076000", "154337.079000", "154337.082000", "154337.085000", "154337.088000", "154337.092000", "154337.095000", "154337.098000", "154337.101000", "154337.104000", "154337.107000", "154337.110000", "154337.113000", "154417.033000", "154417.036000", "154417.039000", "154417.043000", "154417.050000", "154417.053000", "154417.056000", "154417.059000", "154417.063000", "154417.066000", "154417.069000", "154417.072000", "154417.075000", "154417.078000", "154417.081000", "154417.084000", "154417.088000", "154417.091000", "154417.094000", "154417.097000", "154417.100000", "154417.103000", "154417.106000", "154417.109000", "154417.112000", "154417.115000", "154457.033000", "154457.036000", "154457.039000", "154457.042000", "154457.046000", "154457.049000", "154457.052000", "154457.055000", "154457.058000", "154457.061000", "154457.065000", "154457.068000", "154457.071000", "154457.074000", "154457.077000", "154457.080000", "154457.083000", "154457.086000", "154457.089000", "154457.092000", "154457.096000", "154457.099000", "154457.102000", "154457.105000", "154457.108000", "154457.111000", "154457.114000", "154536.777000", "154536.781000", "154536.784000", "154536.787000", "154536.791000", "154536.794000", "154536.797000", "154536.800000", "154536.803000", "154536.807000", "154536.810000", "154536.814000", "154536.818000", "154536.821000", "154536.824000", "154536.828000", "154536.831000", "154536.834000", "154536.837000", "154536.840000", "154536.843000", "154536.846000", "154536.849000", "154536.852000", "154536.855000", "154536.859000", "154536.862000"],
      "InstanceNumber": [1, 2, 3, 4, 5, 6, 7, 8, 9, 10, 11, 12, 13, 14, 15, 16, 17, 18, 19, 20, 21, 22, 23, 24, 25, 26, 27, 28, 29, 30, 31, 32, 33, 34, 35, 36, 37, 38, 39, 40, 41, 42, 43, 44, 45, 46, 47, 48, 49, 50, 51, 52, 53, 54, 55, 56, 57, 58, 59, 60, 61, 62, 63, 64, 65, 66, 67, 68, 69, 70, 71, 72, 73, 74, 75, 76, 77, 78, 79, 80, 81, 82, 83, 84, 85, 86, 87, 88, 89, 90, 91, 92, 93, 94, 95, 96, 97, 98, 99, 100, 101, 102, 103, 104, 105, 106, 107, 108, 109, 110, 111, 112, 113, 114, 115, 116, 117, 118, 119, 120, 121, 122, 123, 124, 125, 126, 127, 128, 129, 130, 131, 132, 133, 134, 135, 136, 137, 138, 139, 140, 141, 142, 143, 144, 145, 146, 147, 148, 149, 150, 151, 152, 153, 154, 155, 156, 157, 158, 159, 160, 161, 162, 163, 164],
      "LargestImagePixelValue": [2691, 2604, 2599, 2581, 2561, 2573, 2581, 2548, 2570, 2548, 2535, 2566, 2542, 2515, 2503, 2514, 2484, 2493, 2526, 2519, 2518, 2527, 2528, 2548, 2558, 2532, 2551, 2536, 2540, 2537, 2540, 2543, 2544, 2544, 2536, 2569, 2519, 2538, 2556, 2540, 2543, 2489, 2510, 2533, 2503, 2500, 2525, 2538, 2545, 2532, 2546, 2529, 2577, 2516, 2573, 2555, 2578, 2579, 2574, 2577, 2576, 2553, 2585, 2529, 2562, 2555, 2540, 2547, 2506, 2503, 2498, 2521, 2523, 2508, 2531, 2505, 2564, 2528, 2567, 2528, 2520, 2529, 2527, 2513, 2539, 2535, 2576, 2560, 2563, 2510, 2553, 2546, 2575, 2561, 2586, 2549, 2580, 2547, 2599, 2528, 2591, 2551, 2580, 2601, 2588, 2587, 2603, 2584, 2610, 2574, 2592, 2584, 2595, 2611, 2599, 2611, 2569, 2599, 2558, 2596, 2550, 2571, 2525, 2565, 2534, 2561, 2566, 2573, 2509, 2528, 2546, 2552, 2524, 2526, 2534, 2537, 2534, 2547, 2548, 2546, 2559, 2626, 2582, 2630, 2589, 2583, 2587, 2595, 2610, 2573, 2534, 2568, 2580, 2562, 2572, 2582, 2549, 2523, 2500, 2532, 2537, 2525, 2532, 2522],
      "WindowCenter": [731.0, 730.0, 731.0, 732.0, 731.0, 729.0, 728.0, 728.0, 729.0, 729.0, 728.0, 728.0, 727.0, 727.0, 727.0, 728.0, 727.0, 726.0, 726.0, 726.0, 727.0, 728.0, 728.0, 728.0, 729.0, 730.0, 730.0, 730.0, 730.0, 729.0, 729.0, 730.0, 730.0, 729.0, 728.0, 728.0, 728.0, 729.0, 729.0, 728.0, 727.0, 727.0, 726.0, 726.0, 727.0, 728.0, 728.0, 727.0, 727.0, 727.0, 727.0, 726.0, 726.0, 725.0, 727.0, 727.0, 728.0, 729.0, 729.0, 729.0, 730.0, 729.0, 729.0, 729.0, 729.0, 728.0, 728.0, 728.0, 728.0, 728.0, 727.0, 727.0, 728.0, 727.0, 728.0, 728.0, 729.0, 729.0, 729.0, 728.0, 728.0, 729.0, 729.0, 728.0, 729.0, 728.0, 728.0, 728.0, 728.0, 728.0, 728.0, 728.0, 729.0, 728.0, 728.0, 728.0, 729.0, 729.0, 728.0, 727.0, 728.0, 728.0, 728.0, 728.0, 727.0, 727.0, 727.0, 728.0, 729.0, 729.0, 729.0, 729.0, 729.0, 728.0, 728.0, 729.0, 728.0, 728.0, 727.0, 728.0, 728.0, 729.0, 729.0, 728.0, 727.0, 727.0, 726.0, 727.0, 727.0, 729.0, 728.0, 729.0, 729.0, 728.0, 728.0, 729.0, 728.0, 728.0, 728.0, 728.0, 729.0, 729.0, 728.0, 729.0, 729.0, 729.0, 729.0, 729.0, 729.0, 729.0, 729.0, 728.0, 727.0, 728.0, 728.0, 728.0, 727.0, 726.0, 726.0, 726.0, 726.0, 726.0, 728.0, 728.0],
      "WindowWidth": [1579.0, 1577.0, 1578.0, 1580.0, 1578.0, 1572.0, 1570.0, 1570.0, 1573.0, 1573.0, 1569.0, 1569.0, 1567.0, 1566.0, 1568.0, 1570.0, 1566.0, 1564.0, 1565.0, 1565.0, 1568.0, 1570.0, 1571.0, 1571.0, 1573.0, 1575.0, 1576.0, 1576.0, 1575.0, 1571.0, 1573.0, 1575.0, 1574.0, 1573.0, 1570.0, 1570.0, 1569.0, 1573.0, 1572.0, 1569.0, 1568.0, 1568.0, 1565.0, 1565.0, 1568.0, 1568.0, 1568.0, 1568.0, 1567.0, 1567.0, 1565.0, 1564.0, 1564.0, 1563.0, 1566.0, 1568.0, 1571.0, 1573.0, 1573.0, 1572.0, 1574.0, 1573.0, 1574.0, 1573.0, 1572.0, 1571.0, 1568.0, 1569.0, 1570.0, 1570.0, 1567.0, 1568.0, 1569.0, 1568.0, 1569.0, 1570.0, 1573.0, 1572.0, 1572.0, 1569.0, 1570.0, 1572.0, 1571.0, 1571.0, 1572.0, 1570.0, 1570.0, 1571.0, 1570.0, 1570.0, 1570.0, 1571.0, 1572.0, 1571.0, 1571.0, 1571.0, 1572.0, 1571.0, 1570.0, 1567.0, 1569.0, 1569.0, 1570.0, 1570.0, 1567.0, 1567.0, 1568.0, 1570.0, 1573.0, 1573.0, 1573.0, 1571.0, 1571.0, 1570.0, 1570.0, 1572.0, 1569.0, 1568.0, 1566.0, 1568.0, 1568.0, 1571.0, 1571.0, 1570.0, 1567.0, 1565.0, 1566.0, 1566.0, 1567.0, 1571.0, 1570.0, 1571.0, 1571.0, 1570.0, 1571.0, 1572.0, 1570.0, 1570.0, 1570.0, 1571.0, 1572.0, 1573.0, 1570.0, 1572.0, 1571.0, 1573.0, 1572.0, 1573.0, 1573.0, 1572.0, 1573.0, 1569.0, 1567.0, 1569.0, 1569.0, 1569.0, 1567.0, 1564.0, 1563.0, 1565.0, 1564.0, 1564.0, 1570.0, 1569.0]
    },
    "slices": {}
  }
}