{
  "AcquisitionMatrixPE": 72,
  "AcquisitionNumber": 1,
  "AcquisitionTime": "15:36:11.992500",
  "BandwidthPerPixelPhaseEncode": 17.943,
  "BaseResolution": 96,
  "BodyPartExamined": "BRAIN",
  "CoilCombinationMethod": "Sum of Squares",
  "ConsistencyInfo": "N4_VE11C_LATEST_20160120",
  "ConversionSoftware": "dcm2niix",
  "ConversionSoftwareVersion": "v1.0.20211006",
  "DerivedVendorReportedEchoSpacing": 0.000552897,
  "DeviceSerialNumber": "166011",
  "EchoTime": 0.03,
  "EchoTrainLength": 58,
  "EffectiveEchoSpacing": 0.000580542,
  "FlipAngle": 62,
  "ImageOrientationPatientDICOM": [0.994565, 0.101183, -0.0245633, -0.103831, 0.981421, -0.161345],
  "ImageType": [
    "ORIGINAL",
    "PRIMARY",
    "M",
    "ND",
    "MOSAIC"
],
  "ImagingFrequency": 123.26,
  "InPlanePhaseEncodingDirectionDICOM": "COL",
  "InstitutionAddress": "West 130th Street 610,NY,NYC,US,10025",
  "InstitutionName": "MBBI",
  "MRAcquisitionType": "2D",
  "MagneticFieldStrength": 3,
  "Manufacturer": "Siemens",
  "ManufacturersModelName": "Prisma",
  "Modality": "MR",
  "MultibandAccelerationFactor": 3,
  "PartialFourier": 0.75,
  "PatientPosition": "HFS",
  "PercentPhaseFOV": 100,
  "PercentSampling": 75,
  "PhaseEncodingDirection": "j-",
  "PhaseEncodingSteps": 58,
  "PhaseOversampling": 0.05,
  "PhaseResolution": 0.75,
  "PixelBandwidth": 2265,
  "ProcedureStepDescription": "White^Word_recognition",
  "ProtocolName": "func_vwfate_run3",
  "PulseSequenceDetails": "%SiemensSeq%\\ep2d_bold",
  "ReceiveCoilActiveElements": "HC1-7",
  "ReceiveCoilName": "HeadNeck_64",
  "ReconMatrixPE": 96,
  "RefLinesPE": 40,
  "RepetitionTime": 1.5,
  "SAR": 0.0478671,
  "ScanOptions": "PFP\\FS",
  "ScanningSequence": "EP",
  "SequenceName": "*epfid2d1_72",
  "SequenceVariant": "SK\\OSP",
  "SeriesDescription": "func_vwfate_run3",
  "SeriesNumber": 11,
  "ShimSetting": [-1145, -1336, 627, 663, -133, 92, -64, 29],
  "SliceThickness": 2,
  "SliceTiming": [1.075, 0, 0.74, 0.0675, 0.8075, 0.135, 0.875, 0.2025, 0.9425, 0.27, 1.01, 0.4025, 1.1425, 0.47, 1.21, 0.5375, 1.2775, 0.605, 1.345, 0.6725, 1.4125, 0.335, 1.075, 0, 0.74, 0.0675, 0.8075, 0.135, 0.875, 0.2025, 0.9425, 0.27, 1.01, 0.4025, 1.1425, 0.47, 1.21, 0.5375, 1.2775, 0.605, 1.345, 0.6725, 1.4125, 0.335, 1.075, 0, 0.74, 0.0675, 0.8075, 0.135, 0.875, 0.2025, 0.9425, 0.27, 1.01, 0.4025, 1.1425, 0.47, 1.21, 0.5375, 1.2775, 0.605, 1.345, 0.6725, 1.4125, 0.335],
  "SoftwareVersions": "syngo MR E11",
  "SpacingBetweenSlices": 2,
  "StationName": "AWP166011",
  "TaskName": "vwfate",
  "TotalReadoutTime": 0.0551515,
  "TxRefAmp": 221.835,
  "dcmmeta_affine": [
    [-1.9891290664672852, -0.20766191184520721, -0.01556301862001419, 110.06775665283203],
    [-0.2023666501045227, 1.9628417491912842, -0.3260365426540375, -54.14857864379883],
    [-0.049126558005809784, 0.32268962264060974, 1.9731848239898682, -81.49652099609375],
    [0.0, 0.0, 0.0, 1.0]
],
  "dcmmeta_reorient_transform": [
    [0.0, -1.0, 0.0, 95.0],
    [1.0, 0.0, 0.0, 0.0],
    [0.0, 0.0, 1.0, 0.0],
    [0.0, 0.0, 0.0, 1.0]
],
  "dcmmeta_shape": [96, 96, 66, 164],
  "dcmmeta_slice_dim": 2,
  "dcmmeta_version": 0.6,
  "global": {
    "const": {
      "AcquisitionMatrix": [96, 0, 0, 72],
      "AngioFlag": "N",
      "BitsAllocated": 16,
      "BitsStored": 12,
      "BodyPartExamined": "BRAIN",
      "Columns": 864,
      "EchoNumbers": 1,
      "EchoTime": 30.0,
      "EchoTrainLength": 58,
      "FlipAngle": 62.0,
      "HighBit": 11,
      "ImageOrientationPatient": [0.99456451776156, 0.1011833255946, -0.0245632781066, -0.1038309593753, 0.98142089919167, -0.1613448186494],
      "ImagePositionPatient": [-774.4232483909, -963.76143624744, 91.936416581127],
      "ImageType": [
        "ORIGINAL",
        "PRIMARY",
        "M",
        "ND",
        "MOSAIC"
],
      "ImagedNucleus": "1H",
      "ImagingFrequency": 123.25954,
      "InPlanePhaseEncodingDirection": "COL",
      "MRAcquisitionType": "2D",
      "MagneticFieldStrength": 3.0,
      "Manufacturer": "SIEMENS",
      "ManufacturerModelName": "Prisma",
      "Modality": "MR",
      "NumberOfAverages": 1.0,
      "NumberOfPhaseEncodingSteps": 58,
      "PercentPhaseFieldOfView": 100.0,
      "PercentSampling": 75.0,
      "PerformedProcedureStepStartTime": "145822.861000",
      "PhotometricInterpretation": "MONOCHROME2",
      "PixelBandwidth": 2265.0,
      "PixelRepresentation": 0,
      "PixelSpacing": [2.0, 2.0],
      "ProtocolName": "func_vwfate_run3",
      "RepetitionTime": 1500.0,
      "Rows": 864,
      "SAR": 0.04786709989658,
      "SamplesPerPixel": 1,
      "ScanOptions": [
        "PFP",
        "FS"
],
      "ScanningSequence": "EP",
      "SequenceName": "*epfid2d1_72",
      "SequenceVariant": [
        "SK",
        "OSP"
],
      "SeriesDescription": "func_vwfate_run3",
      "SeriesNumber": 11,
      "SeriesTime": "153656.960000",
      "SliceLocation": -72.433127793424,
      "SliceThickness": 2.0,
      "SmallestImagePixelValue": 0,
      "SoftwareVersions": "syngo MR E11",
      "SpacingBetweenSlices": 2.0000000608364,
      "SpecificCharacterSet": "ISO_IR 100",
      "StudyID": "1",
      "StudyTime": "145822.809000",
      "TransmitCoilName": "Body",
      "VariableFlipAngleFlag": "N",
      "WindowCenterWidthExplanation": "Algo1",
      "dBdt": 0.0},
    "slices": {}
  },
  "time": {
    "samples": {
      "AcquisitionNumber": [1, 2, 3, 4, 5, 6, 7, 8, 9, 10, 11, 12, 13, 14, 15, 16, 17, 18, 19, 20, 21, 22, 23, 24, 25, 26, 27, 28, 29, 30, 31, 32, 33, 34, 35, 36, 37, 38, 39, 40, 41, 42, 43, 44, 45, 46, 47, 48, 49, 50, 51, 52, 53, 54, 55, 56, 57, 58, 59, 60, 61, 62, 63, 64, 65, 66, 67, 68, 69, 70, 71, 72, 73, 74, 75, 76, 77, 78, 79, 80, 81, 82, 83, 84, 85, 86, 87, 88, 89, 90, 91, 92, 93, 94, 95, 96, 97, 98, 99, 100, 101, 102, 103, 104, 105, 106, 107, 108, 109, 110, 111, 112, 113, 114, 115, 116, 117, 118, 119, 120, 121, 122, 123, 124, 125, 126, 127, 128, 129, 130, 131, 132, 133, 134, 135, 136, 137, 138, 139, 140, 141, 142, 143, 144, 145, 146, 147, 148, 149, 150, 151, 152, 153, 154, 155, 156, 157, 158, 159, 160, 161, 162, 163, 164],
      "AcquisitionTime": ["153611.992500", "153613.492500", "153614.992500", "153616.492500", "153617.992500", "153619.492500", "153620.992500", "153622.492500", "153623.992500", "153625.492500", "153626.992500", "153628.492500", "153629.992500", "153631.492500", "153632.992500", "153634.492500", "153635.992500", "153637.492500", "153638.992500", "153640.492500", "153641.992500", "153643.492500", "153644.992500", "153646.492500", "153647.992500", "153649.492500", "153650.992500", "153652.492500", "153653.992500", "153655.492500", "153656.992500", "153658.492500", "153659.992500", "153701.492500", "153702.992500", "153704.492500", "153705.992500", "153707.492500", "153708.992500", "153710.492500", "153711.992500", "153713.492500", "153714.992500", "153716.492500", "153717.992500", "153719.492500", "153720.992500", "153722.492500", "153723.992500", "153725.492500", "153726.992500", "153728.492500", "153729.992500", "153731.492500", "153732.992500", "153734.492500", "153735.992500", "153737.492500", "153738.992500", "153740.492500", "153741.992500", "153743.492500", "153744.992500", "153746.492500", "153747.992500", "153749.492500", "153750.992500", "153752.492500", "153753.992500", "153755.492500", "153756.992500", "153758.492500", "153759.992500", "153801.492500", "153802.992500", "153804.492500", "153805.992500", "153807.492500", "153808.992500", "153810.492500", "153811.992500", "153813.492500", "153814.992500", "153816.492500", "153817.992500", "153819.492500", "153820.992500", "153822.492500", "153823.992500", "153825.492500", "153826.992500", "153828.492500", "153829.992500", "153831.492500", "153832.992500", "153834.492500", "153835.992500", "153837.492500", "153838.992500", "153840.492500", "153841.992500", "153843.492500", "153844.992500", "153846.492500", "153847.992500", "153849.492500", "153850.992500", "153852.492500", "153853.992500", "153855.492500", "153856.992500", "153858.492500", "153859.992500", "153901.492500", "153902.992500", "153904.492500", "153905.992500", "153907.492500", "153908.992500", "153910.492500", "153911.992500", "153913.492500", "153914.992500", "153916.492500", "153917.992500", "153919.492500", "153920.992500", "153922.492500", "153923.992500", "153925.492500", "153926.992500", "153928.492500", "153929.992500", "153931.492500", "153932.992500", "153934.492500", "153935.992500", "153937.492500", "153938.992500", "153940.492500", "153941.992500", "153943.492500", "153944.992500", "153946.492500", "153947.992500", "153949.492500", "153950.992500", "153952.492500", "153953.992500", "153955.492500", "153956.992500", "153958.492500", "153959.992500", "154001.492500", "154002.992500", "154004.492500", "154005.992500", "154007.492500", "154008.992500", "154010.492500", "154011.992500", "154013.492500", "154014.992500", "154016.492500"],
      "ContentTime": ["153656.964000", "153656.968000", "153656.981000", "153656.984000", "153656.987000", "153656.991000", "153656.994000", "153656.997000", "153657.001000", "153657.004000", "153657.007000", "153657.010000", "153657.013000", "153657.021000", "153657.024000", "153657.027000", "153657.030000", "153657.033000", "153657.045000", "153657.048000", "153657.051000", "153657.057000", "153657.060000", "153657.063000", "153657.066000", "153657.069000", "153657.072000", "153657.075000", "153657.078000", "153657.082000", "153736.959000", "153736.962000", "153736.965000", "153736.969000", "153736.972000", "153736.975000", "153736.978000", "153736.981000", "153736.984000", "153736.997000", "153737.001000", "153737.004000", "153737.007000", "153737.010000", "153737.014000", "153737.017000", "153737.020000", "153737.023000", "153737.026000", "153737.029000", "153737.032000", "153737.035000", "153737.038000", "153737.041000", "153737.045000", "153737.048000", "153816.959000", "153816.962000", "153816.965000", "153816.969000", "153816.972000", "153816.975000", "153816.978000", "153816.981000", "153816.984000", "153816.987000", "153816.990000", "153816.993000", "153816.996000", "153817.000000", "153817.004000", "153817.007000", "153817.010000", "153817.013000", "153817.029000", "153817.032000", "153817.035000", "153817.038000", "153817.042000", "153817.045000", "153817.048000", "153817.051000", "153817.054000", "153856.959000", "153856.962000", "153856.965000", "153856.968000", "153856.972000", "153856.975000", "153856.978000", "153856.981000", "153856.984000", "153856.987000", "153856.990000", "153856.993000", "153856.996000", "153857.000000", "153857.003000", "153857.006000", "153857.009000", "153857.012000", "153857.015000", "153857.018000", "153857.021000", "153857.024000", "153857.028000", "153857.031000", "153857.034000", "153857.037000", "153857.040000", "153916.959000", "153916.962000", "153916.965000", "153916.968000", "153916.972000", "153916.975000", "153916.978000", "153916.981000", "153916.984000", "153916.987000", "153916.990000", "153916.993000", "153916.996000", "153956.959000", "153956.962000", "153956.965000", "153956.968000", "153956.971000", "153956.975000", "153956.978000", "153956.981000", "153956.984000", "153956.987000", "153956.990000", "153956.993000", "153956.996000", "153957.000000", "153957.003000", "153957.007000", "153957.010000", "153957.013000", "153957.016000", "153957.019000", "153957.022000", "153957.025000", "153957.028000", "153957.031000", "153957.034000", "153957.038000", "153957.041000", "154017.482000", "154017.485000", "154017.488000", "154017.491000", "154017.494000", "154017.498000", "154017.501000", "154017.504000", "154017.507000", "154017.511000", "154017.515000", "154017.518000", "154017.521000", "154017.525000"],
      "InstanceCreationTime": ["153656.964000", "153656.968000", "153656.981000", "153656.984000", "153656.987000", "153656.991000", "153656.994000", "153656.997000", "153657.001000", "153657.004000", "153657.007000", "153657.010000", "153657.013000", "153657.021000", "153657.024000", "153657.027000", "153657.030000", "153657.033000", "153657.045000", "153657.048000", "153657.051000", "153657.057000", "153657.060000", "153657.063000", "153657.066000", "153657.069000", "153657.072000", "153657.075000", "153657.078000", "153657.082000", "153736.959000", "153736.962000", "153736.965000", "153736.969000", "153736.972000", "153736.975000", "153736.978000", "153736.981000", "153736.984000", "153736.997000", "153737.001000", "153737.004000", "153737.007000", "153737.010000", "153737.014000", "153737.017000", "153737.020000", "153737.023000", "153737.026000", "153737.029000", "153737.032000", "153737.035000", "153737.038000", "153737.041000", "153737.045000", "153737.048000", "153816.959000", "153816.962000", "153816.965000", "153816.969000", "153816.972000", "153816.975000", "153816.978000", "153816.981000", "153816.984000", "153816.987000", "153816.990000", "153816.993000", "153816.996000", "153817.000000", "153817.004000", "153817.007000", "153817.010000", "153817.013000", "153817.029000", "153817.032000", "153817.035000", "153817.038000", "153817.042000", "153817.045000", "153817.048000", "153817.051000", "153817.054000", "153856.959000", "153856.962000", "153856.965000", "153856.968000", "153856.972000", "153856.975000", "153856.978000", "153856.981000", "153856.984000", "153856.987000", "153856.990000", "153856.993000", "153856.996000", "153857.000000", "153857.003000", "153857.006000", "153857.009000", "153857.012000", "153857.015000", "153857.018000", "153857.021000", "153857.024000", "153857.028000", "153857.031000", "153857.034000", "153857.037000", "153857.040000", "153916.959000", "153916.962000", "153916.965000", "153916.968000", "153916.972000", "153916.975000", "153916.978000", "153916.981000", "153916.984000", "153916.987000", "153916.990000", "153916.993000", "153916.996000", "153956.959000", "153956.962000", "153956.965000", "153956.968000", "153956.971000", "153956.975000", "153956.978000", "153956.981000", "153956.984000", "153956.987000", "153956.990000", "153956.993000", "153956.996000", "153957.000000", "153957.003000", "153957.007000", "153957.010000", "153957.013000", "153957.016000", "153957.019000", "153957.022000", "153957.025000", "153957.028000", "153957.031000", "153957.034000", "153957.038000", "153957.041000", "154017.482000", "154017.485000", "154017.488000", "154017.491000", "154017.494000", "154017.498000", "154017.501000", "154017.504000", "154017.507000", "154017.511000", "154017.515000", "154017.518000", "154017.521000", "154017.525000"],
      "InstanceNumber": [1, 2, 3, 4, 5, 6, 7, 8, 9, 10, 11, 12, 13, 14, 15, 16, 17, 18, 19, 20, 21, 22, 23, 24, 25, 26, 27, 28, 29, 30, 31, 32, 33, 34, 35, 36, 37, 38, 39, 40, 41, 42, 43, 44, 45, 46, 47, 48, 49, 50, 51, 52, 53, 54, 55, 56, 57, 58, 59, 60, 61, 62, 63, 64, 65, 66, 67, 68, 69, 70, 71, 72, 73, 74, 75, 76, 77, 78, 79, 80, 81, 82, 83, 84, 85, 86, 87, 88, 89, 90, 91, 92, 93, 94, 95, 96, 97, 98, 99, 100, 101, 102, 103, 104, 105, 106, 107, 108, 109, 110, 111, 112, 113, 114, 115, 116, 117, 118, 119, 120, 121, 122, 123, 124, 125, 126, 127, 128, 129, 130, 131, 132, 133, 134, 135, 136, 137, 138, 139, 140, 141, 142, 143, 144, 145, 146, 147, 148, 149, 150, 151, 152, 153, 154, 155, 156, 157, 158, 159, 160, 161, 162, 163, 164],
      "LargestImagePixelValue": [2665, 2547, 2541, 2490, 2500, 2490, 2478, 2509, 2464, 2453, 2497, 2477, 2486, 2478, 2520, 2475, 2513, 2472, 2538, 2470, 2502, 2492, 2718, 2650, 2635, 2557, 2583, 2510, 2521, 2506, 2500, 2502, 2509, 2492, 2513, 2534, 2539, 2525, 2502, 2522, 2525, 2577, 2527, 2549, 2532, 2535, 2531, 2547, 2534, 2531, 2565, 2510, 2536, 2555, 2548, 2544, 2525, 2531, 2537, 2550, 2580, 2555, 2620, 2554, 2618, 2551, 2579, 2557, 2547, 2560, 2537, 2569, 2524, 2558, 2546, 2563, 2543, 2564, 2543, 2600, 2551, 2601, 2554, 2585, 2563, 2590, 2557, 2603, 2606, 2583, 2580, 2570, 2559, 2622, 2597, 2591, 2570, 2537, 2550, 2551, 2559, 2560, 2563, 2556, 2550, 2571, 2556, 2575, 2563, 2579, 2557, 2589, 2560, 2547, 2539, 2589, 2559, 2589, 2572, 2564, 2554, 2561, 2565, 2573, 2569, 2546, 2596, 2574, 2609, 2579, 2605, 2583, 2593, 2566, 2630, 2591, 2619, 2583, 2584, 2622, 2593, 2616, 2620, 2611, 2571, 2606, 2584, 2636, 2579, 2608, 2590, 2560, 2575, 2566, 2595, 2593, 2560, 2575, 2618, 2593, 2580, 2597, 2600, 2594],
      "WindowCenter": [732.0, 729.0, 728.0, 728.0, 728.0, 729.0, 729.0, 729.0, 728.0, 728.0, 728.0, 729.0, 729.0, 728.0, 728.0, 728.0, 728.0, 729.0, 729.0, 728.0, 727.0, 728.0, 723.0, 734.0, 732.0, 729.0, 729.0, 729.0, 729.0, 729.0, 728.0, 729.0, 729.0, 729.0, 730.0, 730.0, 730.0, 730.0, 730.0, 730.0, 730.0, 730.0, 730.0, 731.0, 732.0, 731.0, 731.0, 731.0, 730.0, 730.0, 728.0, 728.0, 728.0, 728.0, 728.0, 729.0, 729.0, 729.0, 728.0, 729.0, 730.0, 729.0, 730.0, 730.0, 730.0, 730.0, 730.0, 730.0, 730.0, 729.0, 728.0, 729.0, 729.0, 729.0, 729.0, 730.0, 730.0, 729.0, 728.0, 730.0, 730.0, 730.0, 730.0, 730.0, 730.0, 730.0, 730.0, 729.0, 728.0, 728.0, 728.0, 728.0, 729.0, 730.0, 730.0, 730.0, 729.0, 729.0, 729.0, 730.0, 731.0, 730.0, 730.0, 729.0, 728.0, 728.0, 729.0, 730.0, 728.0, 729.0, 730.0, 730.0, 729.0, 730.0, 731.0, 731.0, 731.0, 730.0, 730.0, 729.0, 729.0, 729.0, 729.0, 729.0, 730.0, 730.0, 730.0, 729.0, 729.0, 729.0, 729.0, 730.0, 730.0, 730.0, 730.0, 729.0, 730.0, 730.0, 730.0, 731.0, 731.0, 731.0, 731.0, 730.0, 729.0, 729.0, 728.0, 728.0, 729.0, 729.0, 729.0, 728.0, 728.0, 729.0, 730.0, 730.0, 730.0, 729.0, 729.0, 729.0, 731.0, 732.0, 731.0, 730.0],
      "WindowWidth": [1580.0, 1573.0, 1570.0, 1569.0, 1571.0, 1572.0, 1572.0, 1571.0, 1570.0, 1569.0, 1569.0, 1571.0, 1573.0, 1571.0, 1571.0, 1568.0, 1571.0, 1572.0, 1573.0, 1569.0, 1568.0, 1570.0, 1557.0, 1585.0, 1581.0, 1573.0, 1573.0, 1572.0, 1572.0, 1573.0, 1571.0, 1571.0, 1572.0, 1572.0, 1575.0, 1575.0, 1576.0, 1575.0, 1574.0, 1576.0, 1574.0, 1576.0, 1576.0, 1578.0, 1579.0, 1578.0, 1578.0, 1578.0, 1576.0, 1574.0, 1571.0, 1569.0, 1569.0, 1570.0, 1571.0, 1573.0, 1572.0, 1572.0, 1570.0, 1573.0, 1575.0, 1574.0, 1575.0, 1575.0, 1576.0, 1575.0, 1575.0, 1576.0, 1575.0, 1572.0, 1570.0, 1571.0, 1572.0, 1574.0, 1573.0, 1575.0, 1574.0, 1572.0, 1570.0, 1574.0, 1574.0, 1575.0, 1575.0, 1576.0, 1576.0, 1574.0, 1575.0, 1573.0, 1571.0, 1570.0, 1570.0, 1571.0, 1573.0, 1576.0, 1575.0, 1575.0, 1572.0, 1571.0, 1572.0, 1575.0, 1577.0, 1576.0, 1575.0, 1573.0, 1570.0, 1569.0, 1572.0, 1575.0, 1570.0, 1571.0, 1576.0, 1576.0, 1573.0, 1576.0, 1576.0, 1578.0, 1577.0, 1575.0, 1575.0, 1571.0, 1571.0, 1571.0, 1572.0, 1573.0, 1574.0, 1574.0, 1575.0, 1572.0, 1572.0, 1573.0, 1573.0, 1574.0, 1574.0, 1574.0, 1574.0, 1573.0, 1575.0, 1576.0, 1575.0, 1577.0, 1576.0, 1579.0, 1577.0, 1575.0, 1573.0, 1572.0, 1570.0, 1570.0, 1571.0, 1573.0, 1573.0, 1569.0, 1569.0, 1571.0, 1574.0, 1575.0, 1574.0, 1572.0, 1573.0, 1573.0, 1577.0, 1580.0, 1577.0, 1574.0]
    },
    "slices": {}
  }
}