{
  "AcquisitionMatrixPE": 72,
  "AcquisitionNumber": 1,
  "AcquisitionTime": "15:17:42.945000",
  "BandwidthPerPixelPhaseEncode": 17.943,
  "BaseResolution": 96,
  "BodyPartExamined": "BRAIN",
  "CoilCombinationMethod": "Sum of Squares",
  "ConsistencyInfo": "N4_VE11C_LATEST_20160120",
  "ConversionSoftware": "dcm2niix",
  "ConversionSoftwareVersion": "v1.0.20211006",
  "DerivedVendorReportedEchoSpacing": 0.000552897,
  "DeviceSerialNumber": "166011",
  "EchoTime": 0.03,
  "EchoTrainLength": 58,
  "EffectiveEchoSpacing": 0.000580542,
  "FlipAngle": 62,
  "ImageOrientationPatientDICOM": [0.994565, 0.101183, -0.0245633, -0.103831, 0.981421, -0.161345],
  "ImageType": [
    "ORIGINAL",
    "PRIMARY",
    "M",
    "ND",
    "MOSAIC"
],
  "ImagingFrequency": 123.26,
  "InPlanePhaseEncodingDirectionDICOM": "COL",
  "InstitutionAddress": "West 130th Street 610,NY,NYC,US,10025",
  "InstitutionName": "MBBI",
  "MRAcquisitionType": "2D",
  "MagneticFieldStrength": 3,
  "Manufacturer": "Siemens",
  "ManufacturersModelName": "Prisma",
  "Modality": "MR",
  "MultibandAccelerationFactor": 3,
  "PartialFourier": 0.75,
  "PatientPosition": "HFS",
  "PercentPhaseFOV": 100,
  "PercentSampling": 75,
  "PhaseEncodingDirection": "j-",
  "PhaseEncodingSteps": 58,
  "PhaseOversampling": 0.05,
  "PhaseResolution": 0.75,
  "PixelBandwidth": 2265,
  "ProcedureStepDescription": "White^Word_recognition",
  "ProtocolName": "func_vwfate_run1",
  "PulseSequenceDetails": "%SiemensSeq%\\ep2d_bold",
  "ReceiveCoilActiveElements": "HC1-7",
  "ReceiveCoilName": "HeadNeck_64",
  "ReconMatrixPE": 96,
  "RefLinesPE": 40,
  "RepetitionTime": 1.5,
  "SAR": 0.0478671,
  "ScanOptions": "PFP\\FS",
  "ScanningSequence": "EP",
  "SequenceName": "*epfid2d1_72",
  "SequenceVariant": "SK\\OSP",
  "SeriesDescription": "func_vwfate_run1",
  "SeriesNumber": 8,
  "ShimSetting": [-1145, -1336, 627, 663, -133, 92, -64, 29],
  "SliceThickness": 2,
  "SliceTiming": [1.075, 0, 0.74, 0.0675, 0.8075, 0.135, 0.875, 0.2025, 0.9425, 0.2675, 1.0075, 0.4025, 1.1425, 0.47, 1.21, 0.5375, 1.2775, 0.605, 1.345, 0.6725, 1.4125, 0.335, 1.075, 0, 0.74, 0.0675, 0.8075, 0.135, 0.875, 0.2025, 0.9425, 0.2675, 1.0075, 0.4025, 1.1425, 0.47, 1.21, 0.5375, 1.2775, 0.605, 1.345, 0.6725, 1.4125, 0.335, 1.075, 0, 0.74, 0.0675, 0.8075, 0.135, 0.875, 0.2025, 0.9425, 0.2675, 1.0075, 0.4025, 1.1425, 0.47, 1.21, 0.5375, 1.2775, 0.605, 1.345, 0.6725, 1.4125, 0.335],
  "SoftwareVersions": "syngo MR E11",
  "SpacingBetweenSlices": 2,
  "StationName": "AWP166011",
  "TaskName": "vwfate",
  "TotalReadoutTime": 0.0551515,
  "TxRefAmp": 221.835,
  "dcmmeta_affine": [
    [-1.9891290664672852, -0.20766191184520721, -0.01556301862001419, 110.06775665283203],
    [-0.2023666501045227, 1.9628417491912842, -0.3260365426540375, -54.14857864379883],
    [-0.049126558005809784, 0.32268962264060974, 1.9731848239898682, -81.49652099609375],
    [0.0, 0.0, 0.0, 1.0]
],
  "dcmmeta_reorient_transform": [
    [0.0, -1.0, 0.0, 95.0],
    [1.0, 0.0, 0.0, 0.0],
    [0.0, 0.0, 1.0, 0.0],
    [0.0, 0.0, 0.0, 1.0]
],
  "dcmmeta_shape": [96, 96, 66, 164],
  "dcmmeta_slice_dim": 2,
  "dcmmeta_version": 0.6,
  "global": {
    "const": {
      "AcquisitionMatrix": [96, 0, 0, 72],
      "AngioFlag": "N",
      "BitsAllocated": 16,
      "BitsStored": 12,
      "BodyPartExamined": "BRAIN",
      "Columns": 864,
      "EchoNumbers": 1,
      "EchoTime": 30.0,
      "EchoTrainLength": 58,
      "FlipAngle": 62.0,
      "HighBit": 11,
      "ImageOrientationPatient": [0.99456451776156, 0.1011833255946, -0.0245632781066, -0.1038309593753, 0.98142089919167, -0.1613448186494],
      "ImagePositionPatient": [-774.4232483909, -963.76143624744, 91.936416581127],
      "ImageType": [
        "ORIGINAL",
        "PRIMARY",
        "M",
        "ND",
        "MOSAIC"
],
      "ImagedNucleus": "1H",
      "ImagingFrequency": 123.259536,
      "InPlanePhaseEncodingDirection": "COL",
      "MRAcquisitionType": "2D",
      "MagneticFieldStrength": 3.0,
      "Manufacturer": "SIEMENS",
      "ManufacturerModelName": "Prisma",
      "Modality": "MR",
      "NumberOfAverages": 1.0,
      "NumberOfPhaseEncodingSteps": 58,
      "PercentPhaseFieldOfView": 100.0,
      "PercentSampling": 75.0,
      "PerformedProcedureStepStartTime": "145822.861000",
      "PhotometricInterpretation": "MONOCHROME2",
      "PixelBandwidth": 2265.0,
      "PixelRepresentation": 0,
      "PixelSpacing": [2.0, 2.0],
      "ProtocolName": "func_vwfate_run1",
      "RepetitionTime": 1500.0,
      "Rows": 864,
      "SAR": 0.04786709989658,
      "SamplesPerPixel": 1,
      "ScanOptions": [
        "PFP",
        "FS"
],
      "ScanningSequence": "EP",
      "SequenceName": "*epfid2d1_72",
      "SequenceVariant": [
        "SK",
        "OSP"
],
      "SeriesDescription": "func_vwfate_run1",
      "SeriesNumber": 8,
      "SeriesTime": "151816.960000",
      "SliceLocation": -72.433127793424,
      "SliceThickness": 2.0,
      "SmallestImagePixelValue": 0,
      "SoftwareVersions": "syngo MR E11",
      "SpacingBetweenSlices": 2.0000000608364,
      "SpecificCharacterSet": "ISO_IR 100",
      "StudyID": "1",
      "StudyTime": "145822.809000",
      "TransmitCoilName": "Body",
      "VariableFlipAngleFlag": "N",
      "WindowCenterWidthExplanation": "Algo1",
      "dBdt": 0.0},
    "slices": {}
  },
  "time": {
    "samples": {
      "AcquisitionNumber": [1, 2, 3, 4, 5, 6, 7, 8, 9, 10, 11, 12, 13, 14, 15, 16, 17, 18, 19, 20, 21, 22, 23, 24, 25, 26, 27, 28, 29, 30, 31, 32, 33, 34, 35, 36, 37, 38, 39, 40, 41, 42, 43, 44, 45, 46, 47, 48, 49, 50, 51, 52, 53, 54, 55, 56, 57, 58, 59, 60, 61, 62, 63, 64, 65, 66, 67, 68, 69, 70, 71, 72, 73, 74, 75, 76, 77, 78, 79, 80, 81, 82, 83, 84, 85, 86, 87, 88, 89, 90, 91, 92, 93, 94, 95, 96, 97, 98, 99, 100, 101, 102, 103, 104, 105, 106, 107, 108, 109, 110, 111, 112, 113, 114, 115, 116, 117, 118, 119, 120, 121, 122, 123, 124, 125, 126, 127, 128, 129, 130, 131, 132, 133, 134, 135, 136, 137, 138, 139, 140, 141, 142, 143, 144, 145, 146, 147, 148, 149, 150, 151, 152, 153, 154, 155, 156, 157, 158, 159, 160, 161, 162, 163, 164],
      "AcquisitionTime": ["151742.945000", "151744.445000", "151745.945000", "151747.445000", "151748.945000", "151750.445000", "151751.945000", "151753.445000", "151754.945000", "151756.445000", "151757.945000", "151759.445000", "151800.945000", "151802.445000", "151803.945000", "151805.445000", "151806.945000", "151808.445000", "151809.945000", "151811.445000", "151812.945000", "151814.445000", "151815.945000", "151817.445000", "151818.945000", "151820.445000", "151821.945000", "151823.445000", "151824.945000", "151826.445000", "151827.945000", "151829.445000", "151830.945000", "151832.445000", "151833.945000", "151835.445000", "151836.945000", "151838.445000", "151839.945000", "151841.445000", "151842.945000", "151844.445000", "151845.945000", "151847.445000", "151848.945000", "151850.445000", "151851.945000", "151853.445000", "151854.945000", "151856.445000", "151857.945000", "151859.445000", "151900.945000", "151902.445000", "151903.945000", "151905.445000", "151906.945000", "151908.445000", "151909.945000", "151911.445000", "151912.945000", "151914.445000", "151915.945000", "151917.445000", "151918.945000", "151920.445000", "151921.945000", "151923.445000", "151924.945000", "151926.445000", "151927.945000", "151929.445000", "151930.945000", "151932.445000", "151933.945000", "151935.445000", "151936.945000", "151938.445000", "151939.945000", "151941.445000", "151942.945000", "151944.445000", "151945.945000", "151947.445000", "151948.945000", "151950.445000", "151951.945000", "151953.445000", "151954.945000", "151956.445000", "151957.945000", "151959.445000", "152000.945000", "152002.445000", "152003.945000", "152005.445000", "152006.945000", "152008.445000", "152009.945000", "152011.445000", "152012.945000", "152014.445000", "152015.945000", "152017.445000", "152018.945000", "152020.445000", "152021.945000", "152023.445000", "152024.945000", "152026.445000", "152027.945000", "152029.445000", "152030.945000", "152032.445000", "152033.945000", "152035.445000", "152036.945000", "152038.445000", "152039.945000", "152041.445000", "152042.945000", "152044.445000", "152045.945000", "152047.445000", "152048.945000", "152050.445000", "152051.945000", "152053.445000", "152054.945000", "152056.445000", "152057.945000", "152059.445000", "152100.945000", "152102.445000", "152103.945000", "152105.445000", "152106.945000", "152108.445000", "152109.945000", "152111.445000", "152112.945000", "152114.445000", "152115.945000", "152117.445000", "152118.945000", "152120.445000", "152121.945000", "152123.445000", "152124.945000", "152126.445000", "152127.945000", "152129.445000", "152130.945000", "152132.445000", "152133.945000", "152135.445000", "152136.945000", "152138.445000", "152139.945000", "152141.445000", "152142.945000", "152144.445000", "152145.945000", "152147.445000"],
      "ContentTime": ["151816.965000", "151816.969000", "151816.972000", "151816.996000", "151817.000000", "151817.003000", "151817.006000", "151817.009000", "151817.012000", "151817.019000", "151817.022000", "151817.026000", "151817.029000", "151817.032000", "151817.035000", "151817.038000", "151817.041000", "151817.049000", "151817.053000", "151817.056000", "151817.059000", "151817.062000", "151856.959000", "151856.962000", "151856.966000", "151856.977000", "151856.980000", "151856.983000", "151856.986000", "151856.989000", "151856.992000", "151856.995000", "151856.998000", "151857.002000", "151857.005000", "151857.009000", "151857.012000", "151857.015000", "151857.018000", "151857.021000", "151857.024000", "151857.027000", "151857.030000", "151857.033000", "151857.036000", "151857.039000", "151857.042000", "151857.045000", "151857.049000", "151916.959000", "151916.962000", "151916.966000", "151916.975000", "151916.978000", "151916.981000", "151916.984000", "151916.987000", "151916.990000", "151916.993000", "151916.996000", "151917.001000", "151917.004000", "151956.959000", "151956.962000", "151956.966000", "151956.969000", "151956.972000", "151956.975000", "151956.978000", "151956.981000", "151956.984000", "151956.987000", "151956.991000", "151956.994000", "151956.997000", "151957.001000", "151957.004000", "151957.007000", "151957.010000", "151957.013000", "151957.016000", "151957.019000", "151957.022000", "151957.026000", "151957.029000", "151957.032000", "151957.035000", "151957.038000", "151957.041000", "152036.959000", "152036.969000", "152036.972000", "152036.975000", "152036.978000", "152036.981000", "152036.984000", "152036.987000", "152037.003000", "152037.009000", "152037.012000", "152037.015000", "152037.018000", "152037.021000", "152037.024000", "152037.027000", "152037.030000", "152037.034000", "152037.037000", "152037.040000", "152037.043000", "152037.046000", "152037.049000", "152037.052000", "152037.055000", "152037.058000", "152037.061000", "152116.959000", "152116.963000", "152116.973000", "152116.976000", "152116.979000", "152116.982000", "152116.985000", "152116.988000", "152116.992000", "152116.995000", "152116.998000", "152117.002000", "152117.005000", "152117.008000", "152117.011000", "152117.014000", "152117.017000", "152117.020000", "152117.023000", "152117.026000", "152117.030000", "152117.033000", "152117.036000", "152117.039000", "152117.042000", "152117.045000", "152148.485000", "152148.489000", "152148.492000", "152148.495000", "152148.498000", "152148.501000", "152148.504000", "152148.507000", "152148.511000", "152148.514000", "152148.518000", "152148.521000", "152148.524000", "152148.527000", "152148.530000", "152148.534000", "152148.537000", "152148.540000", "152148.544000", "152148.547000", "152148.551000", "152148.554000"],
      "InstanceCreationTime": ["151816.965000", "151816.969000", "151816.972000", "151816.996000", "151817.000000", "151817.003000", "151817.006000", "151817.009000", "151817.012000", "151817.019000", "151817.022000", "151817.026000", "151817.029000", "151817.032000", "151817.035000", "151817.038000", "151817.041000", "151817.049000", "151817.053000", "151817.056000", "151817.059000", "151817.062000", "151856.959000", "151856.962000", "151856.966000", "151856.977000", "151856.980000", "151856.983000", "151856.986000", "151856.989000", "151856.992000", "151856.995000", "151856.998000", "151857.002000", "151857.005000", "151857.009000", "151857.012000", "151857.015000", "151857.018000", "151857.021000", "151857.024000", "151857.027000", "151857.030000", "151857.033000", "151857.036000", "151857.039000", "151857.042000", "151857.045000", "151857.049000", "151916.959000", "151916.962000", "151916.966000", "151916.975000", "151916.978000", "151916.981000", "151916.984000", "151916.987000", "151916.990000", "151916.993000", "151916.996000", "151917.001000", "151917.004000", "151956.959000", "151956.962000", "151956.966000", "151956.969000", "151956.972000", "151956.975000", "151956.978000", "151956.981000", "151956.984000", "151956.987000", "151956.991000", "151956.994000", "151956.997000", "151957.001000", "151957.004000", "151957.007000", "151957.010000", "151957.013000", "151957.016000", "151957.019000", "151957.022000", "151957.026000", "151957.029000", "151957.032000", "151957.035000", "151957.038000", "151957.041000", "152036.959000", "152036.969000", "152036.972000", "152036.975000", "152036.978000", "152036.981000", "152036.984000", "152036.987000", "152037.003000", "152037.009000", "152037.012000", "152037.015000", "152037.018000", "152037.021000", "152037.024000", "152037.027000", "152037.030000", "152037.034000", "152037.037000", "152037.040000", "152037.043000", "152037.046000", "152037.049000", "152037.052000", "152037.055000", "152037.058000", "152037.061000", "152116.959000", "152116.963000", "152116.973000", "152116.976000", "152116.979000", "152116.982000", "152116.985000", "152116.988000", "152116.992000", "152116.995000", "152116.998000", "152117.002000", "152117.005000", "152117.008000", "152117.011000", "152117.014000", "152117.017000", "152117.020000", "152117.023000", "152117.026000", "152117.030000", "152117.033000", "152117.036000", "152117.039000", "152117.042000", "152117.045000", "152148.485000", "152148.489000", "152148.492000", "152148.495000", "152148.498000", "152148.501000", "152148.504000", "152148.507000", "152148.511000", "152148.514000", "152148.518000", "152148.521000", "152148.524000", "152148.527000", "152148.530000", "152148.534000", "152148.537000", "152148.540000", "152148.544000", "152148.547000", "152148.551000", "152148.554000"],
      "InstanceNumber": [1, 2, 3, 4, 5, 6, 7, 8, 9, 10, 11, 12, 13, 14, 15, 16, 17, 18, 19, 20, 21, 22, 23, 24, 25, 26, 27, 28, 29, 30, 31, 32, 33, 34, 35, 36, 37, 38, 39, 40, 41, 42, 43, 44, 45, 46, 47, 48, 49, 50, 51, 52, 53, 54, 55, 56, 57, 58, 59, 60, 61, 62, 63, 64, 65, 66, 67, 68, 69, 70, 71, 72, 73, 74, 75, 76, 77, 78, 79, 80, 81, 82, 83, 84, 85, 86, 87, 88, 89, 90, 91, 92, 93, 94, 95, 96, 97, 98, 99, 100, 101, 102, 103, 104, 105, 106, 107, 108, 109, 110, 111, 112, 113, 114, 115, 116, 117, 118, 119, 120, 121, 122, 123, 124, 125, 126, 127, 128, 129, 130, 131, 132, 133, 134, 135, 136, 137, 138, 139, 140, 141, 142, 143, 144, 145, 146, 147, 148, 149, 150, 151, 152, 153, 154, 155, 156, 157, 158, 159, 160, 161, 162, 163, 164],
      "LargestImagePixelValue": [2596, 2534, 2555, 2504, 2537, 2524, 2507, 2485, 2479, 2503, 2484, 2512, 2538, 2528, 2497, 2481, 2476, 2500, 2508, 2497, 2521, 2495, 2491, 2478, 2496, 2499, 2502, 2462, 2504, 2467, 2503, 2480, 2503, 2479, 2522, 2481, 2518, 2515, 2487, 2510, 2461, 2468, 2474, 2505, 2477, 2457, 2451, 2471, 2490, 2474, 2487, 2495, 2472, 2485, 2490, 2500, 2490, 2513, 2487, 2527, 2474, 2488, 2499, 2495, 2513, 2466, 2506, 2502, 2550, 2503, 2498, 2502, 2511, 2508, 2520, 2495, 2517, 2485, 2521, 2493, 2524, 2544, 2528, 2599, 2535, 2575, 2542, 2616, 2517, 2511, 2498, 2525, 2502, 2528, 2543, 2523, 2520, 2506, 2529, 2508, 2474, 2512, 2491, 2499, 2497, 2489, 2483, 2487, 2472, 2476, 2486, 2497, 2489, 2488, 2497, 2506, 2504, 2504, 2501, 2486, 2478, 2490, 2505, 2493, 2510, 2503, 2500, 2510, 2491, 2493, 2502, 2524, 2503, 2479, 2514, 2501, 2487, 2518, 2497, 2489, 2509, 2498, 2507, 2498, 2490, 2516, 2610, 2616, 2599, 2533, 2535, 2517, 2517, 2545, 2530, 2585, 2545, 2579, 2543, 2545, 2578, 2543, 2574, 2541],
      "WindowCenter": [729.0, 729.0, 730.0, 729.0, 729.0, 729.0, 730.0, 730.0, 730.0, 731.0, 731.0, 732.0, 731.0, 730.0, 729.0, 728.0, 727.0, 727.0, 727.0, 726.0, 726.0, 727.0, 728.0, 729.0, 729.0, 730.0, 730.0, 730.0, 730.0, 731.0, 731.0, 731.0, 730.0, 730.0, 730.0, 730.0, 730.0, 730.0, 729.0, 730.0, 730.0, 729.0, 730.0, 730.0, 730.0, 730.0, 729.0, 729.0, 730.0, 729.0, 729.0, 729.0, 729.0, 729.0, 729.0, 729.0, 730.0, 730.0, 730.0, 731.0, 730.0, 730.0, 729.0, 729.0, 730.0, 729.0, 729.0, 729.0, 730.0, 730.0, 729.0, 729.0, 729.0, 730.0, 730.0, 731.0, 731.0, 731.0, 731.0, 731.0, 730.0, 730.0, 730.0, 730.0, 729.0, 730.0, 730.0, 730.0, 729.0, 729.0, 729.0, 729.0, 729.0, 730.0, 730.0, 730.0, 729.0, 729.0, 729.0, 729.0, 730.0, 731.0, 728.0, 728.0, 728.0, 728.0, 726.0, 723.0, 722.0, 723.0, 726.0, 728.0, 728.0, 729.0, 730.0, 730.0, 730.0, 729.0, 728.0, 727.0, 727.0, 728.0, 728.0, 729.0, 730.0, 732.0, 731.0, 732.0, 732.0, 731.0, 731.0, 731.0, 730.0, 729.0, 730.0, 730.0, 730.0, 729.0, 729.0, 730.0, 730.0, 730.0, 729.0, 730.0, 730.0, 723.0, 733.0, 733.0, 733.0, 732.0, 731.0, 730.0, 730.0, 729.0, 729.0, 729.0, 729.0, 729.0, 729.0, 730.0, 730.0, 731.0, 731.0, 730.0],
      "WindowWidth": [1573.0, 1572.0, 1574.0, 1573.0, 1573.0, 1572.0, 1574.0, 1575.0, 1576.0, 1579.0, 1579.0, 1579.0, 1577.0, 1574.0, 1573.0, 1570.0, 1567.0, 1567.0, 1566.0, 1565.0, 1565.0, 1566.0, 1570.0, 1571.0, 1573.0, 1574.0, 1574.0, 1575.0, 1577.0, 1578.0, 1579.0, 1578.0, 1576.0, 1575.0, 1575.0, 1576.0, 1575.0, 1575.0, 1573.0, 1574.0, 1574.0, 1573.0, 1575.0, 1576.0, 1575.0, 1575.0, 1573.0, 1573.0, 1575.0, 1572.0, 1572.0, 1573.0, 1573.0, 1571.0, 1572.0, 1573.0, 1576.0, 1576.0, 1576.0, 1577.0, 1574.0, 1574.0, 1572.0, 1573.0, 1574.0, 1571.0, 1572.0, 1572.0, 1574.0, 1574.0, 1573.0, 1573.0, 1574.0, 1574.0, 1576.0, 1577.0, 1577.0, 1577.0, 1578.0, 1577.0, 1576.0, 1575.0, 1574.0, 1574.0, 1573.0, 1575.0, 1574.0, 1574.0, 1573.0, 1573.0, 1571.0, 1571.0, 1573.0, 1574.0, 1575.0, 1574.0, 1572.0, 1573.0, 1572.0, 1573.0, 1574.0, 1576.0, 1570.0, 1568.0, 1570.0, 1570.0, 1564.0, 1556.0, 1554.0, 1556.0, 1564.0, 1569.0, 1570.0, 1572.0, 1574.0, 1575.0, 1575.0, 1572.0, 1570.0, 1567.0, 1567.0, 1569.0, 1569.0, 1572.0, 1576.0, 1579.0, 1579.0, 1579.0, 1579.0, 1578.0, 1578.0, 1578.0, 1574.0, 1573.0, 1574.0, 1575.0, 1574.0, 1573.0, 1573.0, 1575.0, 1575.0, 1574.0, 1573.0, 1574.0, 1575.0, 1557.0, 1584.0, 1584.0, 1582.0, 1580.0, 1577.0, 1574.0, 1574.0, 1573.0, 1573.0, 1573.0, 1571.0, 1572.0, 1571.0, 1574.0, 1576.0, 1577.0, 1578.0, 1575.0]
    },
    "slices": {}
  }
}