{
  "AcquisitionMatrixPE": 72,
  "AcquisitionNumber": 1,
  "AcquisitionTime": "15:23:19.092500",
  "BandwidthPerPixelPhaseEncode": 17.943,
  "BaseResolution": 96,
  "BodyPartExamined": "BRAIN",
  "CoilCombinationMethod": "Sum of Squares",
  "ConsistencyInfo": "N4_VE11C_LATEST_20160120",
  "ConversionSoftware": "dcm2niix",
  "ConversionSoftwareVersion": "v1.0.20211006",
  "DerivedVendorReportedEchoSpacing": 0.000552897,
  "DeviceSerialNumber": "166011",
  "EchoTime": 0.03,
  "EchoTrainLength": 58,
  "EffectiveEchoSpacing": 0.000580542,
  "FlipAngle": 62,
  "ImageOrientationPatientDICOM": [0.994565, 0.101183, -0.0245633, -0.103831, 0.981421, -0.161345],
  "ImageType": [
    "ORIGINAL",
    "PRIMARY",
    "M",
    "ND",
    "MOSAIC"
],
  "ImagingFrequency": 123.26,
  "InPlanePhaseEncodingDirectionDICOM": "COL",
  "InstitutionAddress": "West 130th Street 610,NY,NYC,US,10025",
  "InstitutionName": "MBBI",
  "MRAcquisitionType": "2D",
  "MagneticFieldStrength": 3,
  "Manufacturer": "Siemens",
  "ManufacturersModelName": "Prisma",
  "Modality": "MR",
  "MultibandAccelerationFactor": 3,
  "PartialFourier": 0.75,
  "PatientPosition": "HFS",
  "PercentPhaseFOV": 100,
  "PercentSampling": 75,
  "PhaseEncodingDirection": "j-",
  "PhaseEncodingSteps": 58,
  "PhaseOversampling": 0.05,
  "PhaseResolution": 0.75,
  "PixelBandwidth": 2265,
  "ProcedureStepDescription": "White^Word_recognition",
  "ProtocolName": "func_vwfate_run2",
  "PulseSequenceDetails": "%SiemensSeq%\\ep2d_bold",
  "ReceiveCoilActiveElements": "HC1-7",
  "ReceiveCoilName": "HeadNeck_64",
  "ReconMatrixPE": 96,
  "RefLinesPE": 40,
  "RepetitionTime": 1.5,
  "SAR": 0.0478671,
  "ScanOptions": "PFP\\FS",
  "ScanningSequence": "EP",
  "SequenceName": "*epfid2d1_72",
  "SequenceVariant": "SK\\OSP",
  "SeriesDescription": "func_vwfate_run2",
  "SeriesNumber": 9,
  "ShimSetting": [-1145, -1336, 627, 663, -133, 92, -64, 29],
  "SliceThickness": 2,
  "SliceTiming": [1.0775, 0, 0.74, 0.0675, 0.8075, 0.135, 0.875, 0.2025, 0.9425, 0.27, 1.01, 0.4025, 1.1425, 0.47, 1.21, 0.5375, 1.2775, 0.605, 1.345, 0.6725, 1.4125, 0.3375, 1.0775, 0, 0.74, 0.0675, 0.8075, 0.135, 0.875, 0.2025, 0.9425, 0.27, 1.01, 0.4025, 1.1425, 0.47, 1.21, 0.5375, 1.2775, 0.605, 1.345, 0.6725, 1.4125, 0.3375, 1.0775, 0, 0.74, 0.0675, 0.8075, 0.135, 0.875, 0.2025, 0.9425, 0.27, 1.01, 0.4025, 1.1425, 0.47, 1.21, 0.5375, 1.2775, 0.605, 1.345, 0.6725, 1.4125, 0.3375],
  "SoftwareVersions": "syngo MR E11",
  "SpacingBetweenSlices": 2,
  "StationName": "AWP166011",
  "TaskName": "vwfate",
  "TotalReadoutTime": 0.0551515,
  "TxRefAmp": 221.835,
  "dcmmeta_affine": [
    [-1.9891290664672852, -0.20766191184520721, -0.01556301862001419, 110.06775665283203],
    [-0.2023666501045227, 1.9628417491912842, -0.3260365426540375, -54.14857864379883],
    [-0.049126558005809784, 0.32268962264060974, 1.9731848239898682, -81.49652099609375],
    [0.0, 0.0, 0.0, 1.0]
],
  "dcmmeta_reorient_transform": [
    [0.0, -1.0, 0.0, 95.0],
    [1.0, 0.0, 0.0, 0.0],
    [0.0, 0.0, 1.0, 0.0],
    [0.0, 0.0, 0.0, 1.0]
],
  "dcmmeta_shape": [96, 96, 66, 164],
  "dcmmeta_slice_dim": 2,
  "dcmmeta_version": 0.6,
  "global": {
    "const": {
      "AcquisitionMatrix": [96, 0, 0, 72],
      "AngioFlag": "N",
      "BitsAllocated": 16,
      "BitsStored": 12,
      "BodyPartExamined": "BRAIN",
      "Columns": 864,
      "EchoNumbers": 1,
      "EchoTime": 30.0,
      "EchoTrainLength": 58,
      "FlipAngle": 62.0,
      "HighBit": 11,
      "ImageOrientationPatient": [0.99456451776156, 0.1011833255946, -0.0245632781066, -0.1038309593753, 0.98142089919167, -0.1613448186494],
      "ImagePositionPatient": [-774.4232483909, -963.76143624744, 91.936416581127],
      "ImageType": [
        "ORIGINAL",
        "PRIMARY",
        "M",
        "ND",
        "MOSAIC"
],
      "ImagedNucleus": "1H",
      "ImagingFrequency": 123.259537,
      "InPlanePhaseEncodingDirection": "COL",
      "MRAcquisitionType": "2D",
      "MagneticFieldStrength": 3.0,
      "Manufacturer": "SIEMENS",
      "ManufacturerModelName": "Prisma",
      "Modality": "MR",
      "NumberOfAverages": 1.0,
      "NumberOfPhaseEncodingSteps": 58,
      "PercentPhaseFieldOfView": 100.0,
      "PercentSampling": 75.0,
      "PerformedProcedureStepStartTime": "145822.861000",
      "PhotometricInterpretation": "MONOCHROME2",
      "PixelBandwidth": 2265.0,
      "PixelRepresentation": 0,
      "PixelSpacing": [2.0, 2.0],
      "ProtocolName": "func_vwfate_run2",
      "RepetitionTime": 1500.0,
      "Rows": 864,
      "SAR": 0.04786709989658,
      "SamplesPerPixel": 1,
      "ScanOptions": [
        "PFP",
        "FS"
],
      "ScanningSequence": "EP",
      "SequenceName": "*epfid2d1_72",
      "SequenceVariant": [
        "SK",
        "OSP"
],
      "SeriesDescription": "func_vwfate_run2",
      "SeriesNumber": 9,
      "SeriesTime": "152357.034000",
      "SliceLocation": -72.433127793424,
      "SliceThickness": 2.0,
      "SmallestImagePixelValue": 0,
      "SoftwareVersions": "syngo MR E11",
      "SpacingBetweenSlices": 2.0000000608364,
      "SpecificCharacterSet": "ISO_IR 100",
      "StudyID": "1",
      "StudyTime": "145822.809000",
      "TransmitCoilName": "Body",
      "VariableFlipAngleFlag": "N",
      "WindowCenterWidthExplanation": "Algo1",
      "dBdt": 0.0},
    "slices": {}
  },
  "time": {
    "samples": {
      "AcquisitionNumber": [1, 2, 3, 4, 5, 6, 7, 8, 9, 10, 11, 12, 13, 14, 15, 16, 17, 18, 19, 20, 21, 22, 23, 24, 25, 26, 27, 28, 29, 30, 31, 32, 33, 34, 35, 36, 37, 38, 39, 40, 41, 42, 43, 44, 45, 46, 47, 48, 49, 50, 51, 52, 53, 54, 55, 56, 57, 58, 59, 60, 61, 62, 63, 64, 65, 66, 67, 68, 69, 70, 71, 72, 73, 74, 75, 76, 77, 78, 79, 80, 81, 82, 83, 84, 85, 86, 87, 88, 89, 90, 91, 92, 93, 94, 95, 96, 97, 98, 99, 100, 101, 102, 103, 104, 105, 106, 107, 108, 109, 110, 111, 112, 113, 114, 115, 116, 117, 118, 119, 120, 121, 122, 123, 124, 125, 126, 127, 128, 129, 130, 131, 132, 133, 134, 135, 136, 137, 138, 139, 140, 141, 142, 143, 144, 145, 146, 147, 148, 149, 150, 151, 152, 153, 154, 155, 156, 157, 158, 159, 160, 161, 162, 163, 164],
      "AcquisitionTime": ["152319.092500", "152320.592500", "152322.092500", "152323.592500", "152325.092500", "152326.592500", "152328.092500", "152329.592500", "152331.092500", "152332.592500", "152334.092500", "152335.592500", "152337.092500", "152338.592500", "152340.092500", "152341.592500", "152343.092500", "152344.592500", "152346.092500", "152347.592500", "152349.092500", "152350.592500", "152352.092500", "152353.592500", "152355.092500", "152356.592500", "152358.092500", "152359.592500", "152401.092500", "152402.592500", "152404.092500", "152405.592500", "152407.092500", "152408.592500", "152410.092500", "152411.592500", "152413.092500", "152414.592500", "152416.092500", "152417.592500", "152419.092500", "152420.592500", "152422.092500", "152423.592500", "152425.092500", "152426.592500", "152428.092500", "152429.592500", "152431.092500", "152432.592500", "152434.092500", "152435.592500", "152437.092500", "152438.592500", "152440.092500", "152441.592500", "152443.092500", "152444.592500", "152446.092500", "152447.592500", "152449.092500", "152450.592500", "152452.092500", "152453.592500", "152455.092500", "152456.592500", "152458.092500", "152459.592500", "152501.092500", "152502.592500", "152504.092500", "152505.592500", "152507.092500", "152508.592500", "152510.092500", "152511.592500", "152513.092500", "152514.592500", "152516.092500", "152517.592500", "152519.092500", "152520.592500", "152522.092500", "152523.592500", "152525.092500", "152526.592500", "152528.092500", "152529.592500", "152531.092500", "152532.592500", "152534.092500", "152535.592500", "152537.092500", "152538.592500", "152540.092500", "152541.592500", "152543.092500", "152544.592500", "152546.092500", "152547.592500", "152549.092500", "152550.592500", "152552.092500", "152553.592500", "152555.092500", "152556.592500", "152558.092500", "152559.592500", "152601.092500", "152602.592500", "152604.092500", "152605.592500", "152607.092500", "152608.592500", "152610.092500", "152611.592500", "152613.092500", "152614.592500", "152616.092500", "152617.592500", "152619.092500", "152620.592500", "152622.092500", "152623.592500", "152625.092500", "152626.592500", "152628.092500", "152629.592500", "152631.092500", "152632.592500", "152634.092500", "152635.592500", "152637.092500", "152638.592500", "152640.092500", "152641.592500", "152643.092500", "152644.592500", "152646.092500", "152647.592500", "152649.092500", "152650.592500", "152652.092500", "152653.592500", "152655.092500", "152656.592500", "152658.092500", "152659.592500", "152701.092500", "152702.592500", "152704.092500", "152705.592500", "152707.092500", "152708.592500", "152710.092500", "152711.592500", "152713.092500", "152714.592500", "152716.092500", "152717.592500", "152719.092500", "152720.592500", "152722.092500", "152723.592500"],
      "ContentTime": ["152357.038000", "152357.042000", "152357.045000", "152357.048000", "152357.057000", "152357.061000", "152357.064000", "152357.067000", "152357.070000", "152357.073000", "152357.076000", "152357.082000", "152357.086000", "152357.089000", "152357.092000", "152357.096000", "152357.099000", "152357.106000", "152357.109000", "152357.112000", "152357.115000", "152357.118000", "152357.122000", "152357.126000", "152357.129000", "152437.033000", "152437.048000", "152437.051000", "152437.054000", "152437.057000", "152437.060000", "152437.063000", "152437.066000", "152437.069000", "152437.072000", "152437.075000", "152437.078000", "152437.081000", "152437.084000", "152437.087000", "152437.090000", "152437.093000", "152437.097000", "152437.100000", "152437.106000", "152437.109000", "152437.112000", "152437.115000", "152437.118000", "152437.122000", "152437.125000", "152437.128000", "152517.033000", "152517.041000", "152517.044000", "152517.047000", "152517.050000", "152517.053000", "152517.056000", "152517.059000", "152517.063000", "152517.066000", "152517.069000", "152517.072000", "152517.075000", "152517.078000", "152517.081000", "152517.084000", "152517.087000", "152517.090000", "152517.093000", "152517.096000", "152517.100000", "152517.103000", "152517.106000", "152517.109000", "152517.112000", "152517.115000", "152517.118000", "152557.033000", "152557.036000", "152557.039000", "152557.042000", "152557.046000", "152557.049000", "152557.052000", "152557.055000", "152557.058000", "152557.061000", "152557.064000", "152557.067000", "152557.070000", "152557.073000", "152557.076000", "152557.079000", "152557.082000", "152557.085000", "152557.088000", "152557.091000", "152557.094000", "152557.098000", "152557.101000", "152557.104000", "152557.107000", "152557.110000", "152637.033000", "152637.036000", "152637.039000", "152637.043000", "152637.046000", "152637.049000", "152637.052000", "152637.055000", "152637.058000", "152637.061000", "152637.064000", "152637.067000", "152637.070000", "152637.073000", "152637.076000", "152637.079000", "152637.082000", "152637.086000", "152637.089000", "152637.092000", "152637.095000", "152637.098000", "152637.101000", "152637.104000", "152637.107000", "152637.110000", "152637.113000", "152717.032000", "152717.035000", "152717.038000", "152717.041000", "152717.045000", "152717.048000", "152717.051000", "152717.054000", "152717.057000", "152717.060000", "152717.063000", "152717.066000", "152717.070000", "152717.073000", "152717.076000", "152717.079000", "152717.082000", "152717.085000", "152717.088000", "152717.091000", "152717.094000", "152717.097000", "152717.100000", "152717.104000", "152717.107000", "152717.110000", "152717.113000", "152724.401000", "152724.405000", "152724.408000", "152724.411000", "152724.414000"],
      "InstanceCreationTime": ["152357.038000", "152357.042000", "152357.045000", "152357.048000", "152357.057000", "152357.061000", "152357.064000", "152357.067000", "152357.070000", "152357.073000", "152357.076000", "152357.082000", "152357.086000", "152357.089000", "152357.092000", "152357.096000", "152357.099000", "152357.106000", "152357.109000", "152357.112000", "152357.115000", "152357.118000", "152357.122000", "152357.126000", "152357.129000", "152437.033000", "152437.048000", "152437.051000", "152437.054000", "152437.057000", "152437.060000", "152437.063000", "152437.066000", "152437.069000", "152437.072000", "152437.075000", "152437.078000", "152437.081000", "152437.084000", "152437.087000", "152437.090000", "152437.093000", "152437.097000", "152437.100000", "152437.106000", "152437.109000", "152437.112000", "152437.115000", "152437.118000", "152437.122000", "152437.125000", "152437.128000", "152517.033000", "152517.041000", "152517.044000", "152517.047000", "152517.050000", "152517.053000", "152517.056000", "152517.059000", "152517.063000", "152517.066000", "152517.069000", "152517.072000", "152517.075000", "152517.078000", "152517.081000", "152517.084000", "152517.087000", "152517.090000", "152517.093000", "152517.096000", "152517.100000", "152517.103000", "152517.106000", "152517.109000", "152517.112000", "152517.115000", "152517.118000", "152557.033000", "152557.036000", "152557.039000", "152557.042000", "152557.046000", "152557.049000", "152557.052000", "152557.055000", "152557.058000", "152557.061000", "152557.064000", "152557.067000", "152557.070000", "152557.073000", "152557.076000", "152557.079000", "152557.082000", "152557.085000", "152557.088000", "152557.091000", "152557.094000", "152557.098000", "152557.101000", "152557.104000", "152557.107000", "152557.110000", "152637.033000", "152637.036000", "152637.039000", "152637.043000", "152637.046000", "152637.049000", "152637.052000", "152637.055000", "152637.058000", "152637.061000", "152637.064000", "152637.067000", "152637.070000", "152637.073000", "152637.076000", "152637.079000", "152637.082000", "152637.086000", "152637.089000", "152637.092000", "152637.095000", "152637.098000", "152637.101000", "152637.104000", "152637.107000", "152637.110000", "152637.113000", "152717.032000", "152717.035000", "152717.038000", "152717.041000", "152717.045000", "152717.048000", "152717.051000", "152717.054000", "152717.057000", "152717.060000", "152717.063000", "152717.066000", "152717.070000", "152717.073000", "152717.076000", "152717.079000", "152717.082000", "152717.085000", "152717.088000", "152717.091000", "152717.094000", "152717.097000", "152717.100000", "152717.104000", "152717.107000", "152717.110000", "152717.113000", "152724.401000", "152724.405000", "152724.408000", "152724.411000", "152724.414000"],
      "InstanceNumber": [1, 2, 3, 4, 5, 6, 7, 8, 9, 10, 11, 12, 13, 14, 15, 16, 17, 18, 19, 20, 21, 22, 23, 24, 25, 26, 27, 28, 29, 30, 31, 32, 33, 34, 35, 36, 37, 38, 39, 40, 41, 42, 43, 44, 45, 46, 47, 48, 49, 50, 51, 52, 53, 54, 55, 56, 57, 58, 59, 60, 61, 62, 63, 64, 65, 66, 67, 68, 69, 70, 71, 72, 73, 74, 75, 76, 77, 78, 79, 80, 81, 82, 83, 84, 85, 86, 87, 88, 89, 90, 91, 92, 93, 94, 95, 96, 97, 98, 99, 100, 101, 102, 103, 104, 105, 106, 107, 108, 109, 110, 111, 112, 113, 114, 115, 116, 117, 118, 119, 120, 121, 122, 123, 124, 125, 126, 127, 128, 129, 130, 131, 132, 133, 134, 135, 136, 137, 138, 139, 140, 141, 142, 143, 144, 145, 146, 147, 148, 149, 150, 151, 152, 153, 154, 155, 156, 157, 158, 159, 160, 161, 162, 163, 164],
      "LargestImagePixelValue": [2678, 2615, 2586, 2544, 2548, 2560, 2518, 2523, 2511, 2531, 2510, 2505, 2533, 2512, 2535, 2522, 2535, 2540, 2515, 2554, 2528, 2542, 2529, 2510, 2539, 2507, 2549, 2513, 2549, 2526, 2566, 2558, 2567, 2514, 2523, 2539, 2540, 2528, 2528, 2527, 2518, 2503, 2504, 2523, 2510, 2522, 2495, 2526, 2492, 2546, 2527, 2526, 2532, 2513, 2528, 2511, 2532, 2492, 2531, 2527, 2531, 2495, 2532, 2506, 2493, 2500, 2511, 2522, 2498, 2512, 2514, 2527, 2532, 2500, 2521, 2510, 2533, 2512, 2542, 2552, 2521, 2490, 2604, 2558, 2513, 2495, 2492, 2505, 2481, 2496, 2478, 2500, 2499, 2489, 2522, 2504, 2522, 2524, 2525, 2523, 2497, 2518, 2479, 2507, 2502, 2520, 2493, 2543, 2524, 2555, 2568, 2574, 2514, 2597, 2569, 2606, 2627, 2574, 2591, 2549, 2575, 2507, 2524, 2485, 2489, 2517, 2501, 2517, 2503, 2518, 2523, 2501, 2495, 2505, 2495, 2492, 2482, 2508, 2512, 2498, 2510, 2503, 2537, 2533, 2510, 2532, 2504, 2505, 2490, 2530, 2562, 2538, 2512, 2490, 2529, 2511, 2523, 2514, 2488, 2507, 2475, 2552, 2508, 2529],
      "WindowCenter": [732.0, 730.0, 730.0, 731.0, 732.0, 732.0, 731.0, 731.0, 730.0, 730.0, 730.0, 729.0, 730.0, 729.0, 730.0, 730.0, 730.0, 730.0, 730.0, 730.0, 729.0, 730.0, 730.0, 730.0, 729.0, 730.0, 730.0, 730.0, 730.0, 729.0, 729.0, 729.0, 729.0, 729.0, 729.0, 730.0, 730.0, 729.0, 730.0, 730.0, 731.0, 730.0, 730.0, 730.0, 731.0, 732.0, 731.0, 731.0, 731.0, 730.0, 730.0, 731.0, 730.0, 731.0, 731.0, 730.0, 729.0, 729.0, 729.0, 729.0, 729.0, 729.0, 729.0, 731.0, 730.0, 730.0, 729.0, 728.0, 728.0, 729.0, 729.0, 729.0, 729.0, 729.0, 729.0, 730.0, 730.0, 730.0, 731.0, 732.0, 731.0, 731.0, 731.0, 730.0, 732.0, 731.0, 730.0, 729.0, 728.0, 727.0, 725.0, 723.0, 723.0, 724.0, 725.0, 727.0, 729.0, 729.0, 730.0, 731.0, 731.0, 731.0, 731.0, 730.0, 730.0, 730.0, 729.0, 729.0, 729.0, 730.0, 731.0, 731.0, 730.0, 730.0, 731.0, 731.0, 731.0, 731.0, 731.0, 731.0, 731.0, 730.0, 731.0, 730.0, 730.0, 729.0, 729.0, 729.0, 730.0, 730.0, 730.0, 730.0, 730.0, 731.0, 731.0, 731.0, 730.0, 729.0, 729.0, 730.0, 731.0, 731.0, 730.0, 729.0, 730.0, 730.0, 730.0, 730.0, 730.0, 730.0, 730.0, 730.0, 730.0, 730.0, 730.0, 730.0, 731.0, 731.0, 731.0, 731.0, 731.0, 730.0, 730.0, 730.0],
      "WindowWidth": [1582.0, 1577.0, 1576.0, 1577.0, 1581.0, 1579.0, 1579.0, 1578.0, 1576.0, 1576.0, 1574.0, 1574.0, 1574.0, 1574.0, 1575.0, 1575.0, 1576.0, 1576.0, 1575.0, 1575.0, 1573.0, 1575.0, 1574.0, 1575.0, 1574.0, 1574.0, 1575.0, 1575.0, 1575.0, 1573.0, 1574.0, 1574.0, 1574.0, 1573.0, 1574.0, 1575.0, 1576.0, 1574.0, 1575.0, 1576.0, 1578.0, 1575.0, 1575.0, 1577.0, 1579.0, 1580.0, 1577.0, 1577.0, 1577.0, 1576.0, 1577.0, 1577.0, 1576.0, 1578.0, 1578.0, 1575.0, 1573.0, 1572.0, 1573.0, 1573.0, 1572.0, 1572.0, 1573.0, 1578.0, 1576.0, 1575.0, 1572.0, 1571.0, 1569.0, 1573.0, 1573.0, 1573.0, 1573.0, 1572.0, 1573.0, 1575.0, 1576.0, 1576.0, 1579.0, 1580.0, 1579.0, 1578.0, 1577.0, 1576.0, 1580.0, 1579.0, 1575.0, 1574.0, 1571.0, 1567.0, 1562.0, 1556.0, 1556.0, 1558.0, 1563.0, 1567.0, 1573.0, 1574.0, 1575.0, 1577.0, 1578.0, 1577.0, 1578.0, 1576.0, 1575.0, 1575.0, 1572.0, 1573.0, 1573.0, 1575.0, 1577.0, 1578.0, 1575.0, 1576.0, 1578.0, 1579.0, 1578.0, 1579.0, 1578.0, 1577.0, 1578.0, 1576.0, 1578.0, 1576.0, 1575.0, 1573.0, 1572.0, 1574.0, 1575.0, 1576.0, 1576.0, 1576.0, 1575.0, 1577.0, 1578.0, 1578.0, 1575.0, 1572.0, 1573.0, 1576.0, 1579.0, 1577.0, 1574.0, 1573.0, 1574.0, 1575.0, 1577.0, 1577.0, 1576.0, 1576.0, 1575.0, 1575.0, 1576.0, 1575.0, 1575.0, 1575.0, 1577.0, 1579.0, 1578.0, 1577.0, 1577.0, 1576.0, 1576.0, 1574.0]
    },
    "slices": {}
  }
}