{
  "AcquisitionMatrixPE": 72,
  "AcquisitionNumber": 1,
  "AcquisitionTime": "15:11:0.525000",
  "BandwidthPerPixelPhaseEncode": 17.943,
  "BaseResolution": 96,
  "BodyPartExamined": "BRAIN",
  "CoilCombinationMethod": "Sum of Squares",
  "ConsistencyInfo": "N4_VE11C_LATEST_20160120",
  "ConversionSoftware": "dcm2niix",
  "ConversionSoftwareVersion": "v1.0.20211006",
  "DerivedVendorReportedEchoSpacing": 0.000552897,
  "DeviceSerialNumber": "166011",
  "EchoTime": 0.03,
  "EchoTrainLength": 58,
  "EffectiveEchoSpacing": 0.000580542,
  "FlipAngle": 62,
  "ImageOrientationPatientDICOM": [0.999943, -0.00241069, 0.0104127, 0.00261778, 0.999798, -0.0199212],
  "ImageType": [
    "ORIGINAL",
    "PRIMARY",
    "M",
    "ND",
    "MOSAIC"
],
  "ImagingFrequency": 123.259,
  "InPlanePhaseEncodingDirectionDICOM": "COL",
  "InstitutionAddress": "West 130th Street 610,NY,NYC,US,10025",
  "InstitutionName": "MBBI",
  "MRAcquisitionType": "2D",
  "MagneticFieldStrength": 3,
  "Manufacturer": "Siemens",
  "ManufacturersModelName": "Prisma",
  "Modality": "MR",
  "MultibandAccelerationFactor": 3,
  "PartialFourier": 0.75,
  "PatientPosition": "HFS",
  "PercentPhaseFOV": 100,
  "PercentSampling": 75,
  "PhaseEncodingDirection": "j-",
  "PhaseEncodingSteps": 58,
  "PhaseOversampling": 0.05,
  "PhaseResolution": 0.75,
  "PixelBandwidth": 2265,
  "ProcedureStepDescription": "White^Word_recognition",
  "ProtocolName": "func_vwfate_run1",
  "PulseSequenceDetails": "%SiemensSeq%\\ep2d_bold",
  "ReceiveCoilActiveElements": "HC1-6",
  "ReceiveCoilName": "HeadNeck_64",
  "ReconMatrixPE": 96,
  "RefLinesPE": 40,
  "RepetitionTime": 1.5,
  "SAR": 0.0510522,
  "ScanOptions": "PFP\\FS",
  "ScanningSequence": "EP",
  "SequenceName": "*epfid2d1_72",
  "SequenceVariant": "SK\\OSP",
  "SeriesDescription": "func_vwfate_run1",
  "SeriesNumber": 8,
  "ShimSetting": [-1145, -1374, 622, 503, -71, -140, -73, 1],
  "SliceThickness": 2,
  "SliceTiming": [1.075, 0, 0.74, 0.065, 0.805, 0.1325, 0.8725, 0.2, 0.94, 0.2675, 1.0075, 0.4025, 1.1425, 0.47, 1.21, 0.5375, 1.2775, 0.605, 1.345, 0.6725, 1.4125, 0.335, 1.075, 0, 0.74, 0.065, 0.805, 0.1325, 0.8725, 0.2, 0.94, 0.2675, 1.0075, 0.4025, 1.1425, 0.47, 1.21, 0.5375, 1.2775, 0.605, 1.345, 0.6725, 1.4125, 0.335, 1.075, 0, 0.74, 0.065, 0.805, 0.1325, 0.8725, 0.2, 0.94, 0.2675, 1.0075, 0.4025, 1.1425, 0.47, 1.21, 0.5375, 1.2775, 0.605, 1.345, 0.6725, 1.4125, 0.335],
  "SoftwareVersions": "syngo MR E11",
  "SpacingBetweenSlices": 2,
  "StationName": "AWP166011",
  "TaskName": "vwfate",
  "TotalReadoutTime": 0.0551515,
  "TxRefAmp": 217.235,
  "dcmmeta_affine": [
    [-1.9998857975006104, 0.005235567223280668, 0.020725129172205925, 101.2327651977539],
    [0.004821375943720341, 1.9995962381362915, -0.03989454731345177, -70.80670928955078],
    [0.020825378596782684, 0.039842307567596436, 1.9994946718215942, -67.20441436767578],
    [0.0, 0.0, 0.0, 1.0]
],
  "dcmmeta_reorient_transform": [
    [0.0, -1.0, 0.0, 95.0],
    [1.0, 0.0, 0.0, 0.0],
    [0.0, 0.0, 1.0, 0.0],
    [0.0, 0.0, 0.0, 1.0]
],
  "dcmmeta_shape": [96, 96, 66, 164],
  "dcmmeta_slice_dim": 2,
  "dcmmeta_version": 0.6,
  "global": {
    "const": {
      "AcquisitionMatrix": [96, 0, 0, 72],
      "AngioFlag": "N",
      "BitsAllocated": 16,
      "BitsStored": 12,
      "BodyPartExamined": "BRAIN",
      "Columns": 864,
      "EchoNumbers": 1,
      "EchoTime": 30.0,
      "EchoTrainLength": 58,
      "FlipAngle": 62.0,
      "HighBit": 11,
      "ImageOrientationPatient": [0.99994288060683, -0.0024106880204, 0.01041268970988, 0.00261778368553, 0.99979812704662, -0.0199211536475],
      "ImagePositionPatient": [-871.69673745019, -885.14848424184, -56.116893883986],
      "ImageType": [
        "ORIGINAL",
        "PRIMARY",
        "M",
        "ND",
        "MOSAIC"
],
      "ImagedNucleus": "1H",
      "ImagingFrequency": 123.259419,
      "InPlanePhaseEncodingDirection": "COL",
      "MRAcquisitionType": "2D",
      "MagneticFieldStrength": 3.0,
      "Manufacturer": "SIEMENS",
      "ManufacturerModelName": "Prisma",
      "Modality": "MR",
      "NumberOfAverages": 1.0,
      "NumberOfPhaseEncodingSteps": 58,
      "PercentPhaseFieldOfView": 100.0,
      "PercentSampling": 75.0,
      "PerformedProcedureStepStartTime": "150030.112000",
      "PhotometricInterpretation": "MONOCHROME2",
      "PixelBandwidth": 2265.0,
      "PixelRepresentation": 0,
      "PixelSpacing": [2.0, 2.0],
      "ProtocolName": "func_vwfate_run1",
      "RepetitionTime": 1500.0,
      "Rows": 864,
      "SAR": 0.05105223335173,
      "SamplesPerPixel": 1,
      "ScanOptions": [
        "PFP",
        "FS"
],
      "ScanningSequence": "EP",
      "SequenceName": "*epfid2d1_72",
      "SequenceVariant": [
        "SK",
        "OSP"
],
      "SeriesDescription": "func_vwfate_run1",
      "SeriesNumber": 8,
      "SeriesTime": "151104.656000",
      "SliceLocation": -64.726000890181,
      "SliceThickness": 2.0,
      "SmallestImagePixelValue": 0,
      "SoftwareVersions": "syngo MR E11",
      "SpacingBetweenSlices": 2.0000000395342,
      "SpecificCharacterSet": "ISO_IR 100",
      "StudyID": "1",
      "StudyTime": "150030.048000",
      "TransmitCoilName": "Body",
      "VariableFlipAngleFlag": "N",
      "WindowCenterWidthExplanation": "Algo1",
      "dBdt": 0.0},
    "slices": {}
  },
  "time": {
    "samples": {
      "AcquisitionNumber": [1, 2, 3, 4, 5, 6, 7, 8, 9, 10, 11, 12, 13, 14, 15, 16, 17, 18, 19, 20, 21, 22, 23, 24, 25, 26, 27, 28, 29, 30, 31, 32, 33, 34, 35, 36, 37, 38, 39, 40, 41, 42, 43, 44, 45, 46, 47, 48, 49, 50, 51, 52, 53, 54, 55, 56, 57, 58, 59, 60, 61, 62, 63, 64, 65, 66, 67, 68, 69, 70, 71, 72, 73, 74, 75, 76, 77, 78, 79, 80, 81, 82, 83, 84, 85, 86, 87, 88, 89, 90, 91, 92, 93, 94, 95, 96, 97, 98, 99, 100, 101, 102, 103, 104, 105, 106, 107, 108, 109, 110, 111, 112, 113, 114, 115, 116, 117, 118, 119, 120, 121, 122, 123, 124, 125, 126, 127, 128, 129, 130, 131, 132, 133, 134, 135, 136, 137, 138, 139, 140, 141, 142, 143, 144, 145, 146, 147, 148, 149, 150, 151, 152, 153, 154, 155, 156, 157, 158, 159, 160, 161, 162, 163, 164],
      "AcquisitionTime": ["151100.525000", "151102.025000", "151103.525000", "151105.025000", "151106.525000", "151108.025000", "151109.525000", "151111.025000", "151112.525000", "151114.025000", "151115.525000", "151117.025000", "151118.525000", "151120.025000", "151121.525000", "151123.025000", "151124.525000", "151126.025000", "151127.525000", "151129.025000", "151130.525000", "151132.025000", "151133.525000", "151135.025000", "151136.525000", "151138.025000", "151139.525000", "151141.025000", "151142.525000", "151144.025000", "151145.525000", "151147.025000", "151148.525000", "151150.025000", "151151.525000", "151153.025000", "151154.525000", "151156.025000", "151157.525000", "151159.025000", "151200.525000", "151202.025000", "151203.525000", "151205.025000", "151206.525000", "151208.025000", "151209.525000", "151211.025000", "151212.525000", "151214.025000", "151215.525000", "151217.025000", "151218.525000", "151220.025000", "151221.525000", "151223.025000", "151224.525000", "151226.025000", "151227.525000", "151229.025000", "151230.525000", "151232.025000", "151233.525000", "151235.025000", "151236.525000", "151238.025000", "151239.525000", "151241.025000", "151242.525000", "151244.025000", "151245.525000", "151247.025000", "151248.525000", "151250.025000", "151251.525000", "151253.025000", "151254.525000", "151256.025000", "151257.525000", "151259.025000", "151300.525000", "151302.025000", "151303.525000", "151305.025000", "151306.525000", "151308.025000", "151309.525000", "151311.025000", "151312.525000", "151314.025000", "151315.525000", "151317.025000", "151318.525000", "151320.025000", "151321.525000", "151323.025000", "151324.525000", "151326.025000", "151327.525000", "151329.025000", "151330.525000", "151332.025000", "151333.525000", "151335.025000", "151336.525000", "151338.025000", "151339.525000", "151341.025000", "151342.525000", "151344.025000", "151345.525000", "151347.025000", "151348.525000", "151350.025000", "151351.525000", "151353.025000", "151354.525000", "151356.025000", "151357.525000", "151359.025000", "151400.525000", "151402.025000", "151403.525000", "151405.025000", "151406.525000", "151408.025000", "151409.525000", "151411.025000", "151412.525000", "151414.025000", "151415.525000", "151417.025000", "151418.525000", "151420.025000", "151421.525000", "151423.025000", "151424.525000", "151426.025000", "151427.525000", "151429.025000", "151430.525000", "151432.025000", "151433.525000", "151435.025000", "151436.525000", "151438.025000", "151439.525000", "151441.025000", "151442.525000", "151444.025000", "151445.525000", "151447.025000", "151448.525000", "151450.025000", "151451.525000", "151453.025000", "151454.525000", "151456.025000", "151457.525000", "151459.025000", "151500.525000", "151502.025000", "151503.525000", "151505.025000"],
      "ContentTime": ["151104.660000", "151104.664000", "151144.654000", "151144.657000", "151144.660000", "151144.663000", "151144.666000", "151144.669000", "151144.679000", "151144.682000", "151144.685000", "151144.688000", "151144.691000", "151144.694000", "151144.698000", "151144.701000", "151144.704000", "151144.708000", "151144.711000", "151144.714000", "151144.717000", "151144.720000", "151144.723000", "151144.726000", "151144.729000", "151144.732000", "151144.735000", "151144.738000", "151144.741000", "151224.654000", "151224.657000", "151224.660000", "151224.663000", "151224.666000", "151224.669000", "151224.672000", "151224.675000", "151224.678000", "151224.681000", "151224.684000", "151224.691000", "151224.694000", "151224.697000", "151224.700000", "151224.703000", "151224.706000", "151224.709000", "151224.712000", "151224.715000", "151224.718000", "151224.721000", "151224.724000", "151224.727000", "151224.730000", "151224.733000", "151224.736000", "151304.655000", "151304.658000", "151304.661000", "151304.664000", "151304.684000", "151304.687000", "151304.690000", "151304.693000", "151304.696000", "151304.699000", "151304.702000", "151304.705000", "151304.708000", "151304.711000", "151304.714000", "151304.717000", "151304.720000", "151304.723000", "151304.726000", "151304.729000", "151304.732000", "151304.735000", "151304.738000", "151304.741000", "151304.744000", "151304.747000", "151344.655000", "151344.658000", "151344.661000", "151344.664000", "151344.667000", "151344.670000", "151344.673000", "151344.676000", "151344.679000", "151344.682000", "151344.685000", "151344.688000", "151344.691000", "151344.694000", "151344.697000", "151344.700000", "151344.703000", "151344.706000", "151344.709000", "151344.712000", "151344.715000", "151344.718000", "151344.721000", "151344.724000", "151344.727000", "151344.730000", "151344.733000", "151424.654000", "151424.657000", "151424.660000", "151424.663000", "151424.666000", "151424.669000", "151424.672000", "151424.675000", "151424.678000", "151424.681000", "151424.684000", "151424.687000", "151424.691000", "151424.693000", "151424.696000", "151424.700000", "151424.702000", "151424.705000", "151424.708000", "151424.712000", "151424.715000", "151424.718000", "151424.721000", "151424.724000", "151424.727000", "151424.730000", "151424.733000", "151504.656000", "151504.659000", "151504.662000", "151504.665000", "151504.668000", "151504.671000", "151504.674000", "151504.677000", "151504.680000", "151504.683000", "151504.686000", "151504.689000", "151504.692000", "151504.695000", "151504.698000", "151504.701000", "151504.705000", "151504.707000", "151504.710000", "151504.713000", "151504.717000", "151504.719000", "151504.723000", "151504.725000", "151504.729000", "151504.732000", "151506.535000", "151506.538000"],
      "InstanceCreationTime": ["151104.660000", "151104.664000", "151144.654000", "151144.657000", "151144.660000", "151144.663000", "151144.666000", "151144.669000", "151144.679000", "151144.682000", "151144.685000", "151144.688000", "151144.691000", "151144.694000", "151144.698000", "151144.701000", "151144.704000", "151144.708000", "151144.711000", "151144.714000", "151144.717000", "151144.720000", "151144.723000", "151144.726000", "151144.729000", "151144.732000", "151144.735000", "151144.738000", "151144.741000", "151224.654000", "151224.657000", "151224.660000", "151224.663000", "151224.666000", "151224.669000", "151224.672000", "151224.675000", "151224.678000", "151224.681000", "151224.684000", "151224.691000", "151224.694000", "151224.697000", "151224.700000", "151224.703000", "151224.706000", "151224.709000", "151224.712000", "151224.715000", "151224.718000", "151224.721000", "151224.724000", "151224.727000", "151224.730000", "151224.733000", "151224.736000", "151304.655000", "151304.658000", "151304.661000", "151304.664000", "151304.684000", "151304.687000", "151304.690000", "151304.693000", "151304.696000", "151304.699000", "151304.702000", "151304.705000", "151304.708000", "151304.711000", "151304.714000", "151304.717000", "151304.720000", "151304.723000", "151304.726000", "151304.729000", "151304.732000", "151304.735000", "151304.738000", "151304.741000", "151304.744000", "151304.747000", "151344.655000", "151344.658000", "151344.661000", "151344.664000", "151344.667000", "151344.670000", "151344.673000", "151344.676000", "151344.679000", "151344.682000", "151344.685000", "151344.688000", "151344.691000", "151344.694000", "151344.697000", "151344.700000", "151344.703000", "151344.706000", "151344.709000", "151344.712000", "151344.715000", "151344.718000", "151344.721000", "151344.724000", "151344.727000", "151344.730000", "151344.733000", "151424.654000", "151424.657000", "151424.660000", "151424.663000", "151424.666000", "151424.669000", "151424.672000", "151424.675000", "151424.678000", "151424.681000", "151424.684000", "151424.687000", "151424.691000", "151424.693000", "151424.696000", "151424.700000", "151424.702000", "151424.705000", "151424.708000", "151424.712000", "151424.715000", "151424.718000", "151424.721000", "151424.724000", "151424.727000", "151424.730000", "151424.733000", "151504.656000", "151504.659000", "151504.662000", "151504.665000", "151504.668000", "151504.671000", "151504.674000", "151504.677000", "151504.680000", "151504.683000", "151504.686000", "151504.689000", "151504.692000", "151504.695000", "151504.698000", "151504.701000", "151504.705000", "151504.707000", "151504.710000", "151504.713000", "151504.717000", "151504.719000", "151504.723000", "151504.725000", "151504.729000", "151504.732000", "151506.535000", "151506.538000"],
      "InstanceNumber": [1, 2, 3, 4, 5, 6, 7, 8, 9, 10, 11, 12, 13, 14, 15, 16, 17, 18, 19, 20, 21, 22, 23, 24, 25, 26, 27, 28, 29, 30, 31, 32, 33, 34, 35, 36, 37, 38, 39, 40, 41, 42, 43, 44, 45, 46, 47, 48, 49, 50, 51, 52, 53, 54, 55, 56, 57, 58, 59, 60, 61, 62, 63, 64, 65, 66, 67, 68, 69, 70, 71, 72, 73, 74, 75, 76, 77, 78, 79, 80, 81, 82, 83, 84, 85, 86, 87, 88, 89, 90, 91, 92, 93, 94, 95, 96, 97, 98, 99, 100, 101, 102, 103, 104, 105, 106, 107, 108, 109, 110, 111, 112, 113, 114, 115, 116, 117, 118, 119, 120, 121, 122, 123, 124, 125, 126, 127, 128, 129, 130, 131, 132, 133, 134, 135, 136, 137, 138, 139, 140, 141, 142, 143, 144, 145, 146, 147, 148, 149, 150, 151, 152, 153, 154, 155, 156, 157, 158, 159, 160, 161, 162, 163, 164],
      "LargestImagePixelValue": [2794, 2792, 2795, 2790, 2807, 2796, 2805, 2814, 2803, 2807, 2805, 2792, 2804, 2809, 2806, 2793, 2818, 2811, 2801, 2817, 2805, 2799, 2795, 2786, 2771, 2773, 2786, 2781, 2783, 2768, 2767, 2786, 2783, 2792, 2764, 2767, 2789, 2774, 2768, 2784, 2774, 2774, 2775, 2797, 2777, 2785, 2789, 2800, 2771, 2751, 2774, 2766, 2720, 2724, 2764, 2772, 2778, 2772, 2776, 2787, 2786, 2795, 2782, 2781, 2782, 2761, 2791, 2769, 2802, 2785, 2803, 2810, 2811, 2801, 2786, 2793, 2770, 2783, 2792, 2789, 2775, 2810, 2809, 2787, 2792, 2800, 2799, 2802, 2782, 2771, 2784, 2787, 2796, 2795, 2768, 2788, 2769, 2800, 2799, 2812, 2804, 2793, 2793, 2782, 2768, 2761, 2769, 2774, 2777, 2772, 2784, 2757, 2765, 2774, 2756, 2777, 2763, 2780, 2772, 2766, 2755, 2755, 2874, 2883, 2867, 2872, 2858, 2865, 2848, 2828, 2805, 2827, 2807, 2834, 2818, 2814, 2816, 2841, 2844, 2843, 2831, 2859, 2839, 2843, 2829, 2830, 2820, 2824, 2832, 2837, 2833, 2901, 2836, 2832, 2813, 2793, 2782, 2769, 2748, 2738, 2723, 2719, 2732, 2721],
      "WindowCenter": [777.0, 776.0, 774.0, 774.0, 773.0, 773.0, 774.0, 774.0, 774.0, 774.0, 774.0, 773.0, 773.0, 773.0, 773.0, 773.0, 773.0, 773.0, 773.0, 772.0, 772.0, 772.0, 772.0, 773.0, 773.0, 773.0, 773.0, 773.0, 773.0, 773.0, 773.0, 773.0, 773.0, 772.0, 772.0, 772.0, 772.0, 772.0, 772.0, 772.0, 773.0, 773.0, 774.0, 774.0, 774.0, 774.0, 774.0, 774.0, 774.0, 773.0, 773.0, 772.0, 772.0, 772.0, 772.0, 772.0, 772.0, 772.0, 772.0, 772.0, 773.0, 774.0, 774.0, 774.0, 774.0, 774.0, 773.0, 773.0, 773.0, 770.0, 776.0, 776.0, 773.0, 774.0, 773.0, 773.0, 773.0, 773.0, 774.0, 773.0, 774.0, 774.0, 774.0, 774.0, 774.0, 774.0, 774.0, 774.0, 774.0, 774.0, 775.0, 774.0, 774.0, 773.0, 773.0, 773.0, 774.0, 773.0, 774.0, 773.0, 773.0, 773.0, 773.0, 773.0, 773.0, 773.0, 773.0, 773.0, 774.0, 774.0, 773.0, 774.0, 774.0, 774.0, 774.0, 773.0, 773.0, 773.0, 773.0, 773.0, 773.0, 763.0, 786.0, 783.0, 782.0, 782.0, 780.0, 780.0, 780.0, 779.0, 778.0, 778.0, 778.0, 778.0, 778.0, 778.0, 779.0, 779.0, 779.0, 779.0, 780.0, 780.0, 779.0, 779.0, 779.0, 780.0, 779.0, 780.0, 780.0, 780.0, 779.0, 784.0, 780.0, 779.0, 779.0, 778.0, 778.0, 778.0, 778.0, 777.0, 777.0, 777.0, 777.0, 777.0],
      "WindowWidth": [1701.0, 1695.0, 1691.0, 1689.0, 1688.0, 1687.0, 1688.0, 1689.0, 1689.0, 1689.0, 1688.0, 1687.0, 1687.0, 1686.0, 1686.0, 1686.0, 1686.0, 1686.0, 1686.0, 1685.0, 1685.0, 1684.0, 1683.0, 1685.0, 1686.0, 1687.0, 1688.0, 1687.0, 1687.0, 1687.0, 1686.0, 1686.0, 1686.0, 1685.0, 1684.0, 1685.0, 1684.0, 1683.0, 1685.0, 1684.0, 1686.0, 1687.0, 1688.0, 1689.0, 1689.0, 1688.0, 1689.0, 1689.0, 1688.0, 1687.0, 1686.0, 1684.0, 1685.0, 1683.0, 1684.0, 1684.0, 1682.0, 1682.0, 1683.0, 1684.0, 1687.0, 1688.0, 1688.0, 1688.0, 1688.0, 1688.0, 1687.0, 1686.0, 1686.0, 1679.0, 1694.0, 1693.0, 1688.0, 1689.0, 1687.0, 1687.0, 1686.0, 1687.0, 1688.0, 1687.0, 1688.0, 1688.0, 1688.0, 1689.0, 1689.0, 1690.0, 1689.0, 1688.0, 1688.0, 1688.0, 1691.0, 1688.0, 1689.0, 1687.0, 1686.0, 1686.0, 1688.0, 1687.0, 1688.0, 1687.0, 1687.0, 1686.0, 1687.0, 1686.0, 1686.0, 1686.0, 1686.0, 1687.0, 1688.0, 1688.0, 1687.0, 1688.0, 1688.0, 1689.0, 1688.0, 1687.0, 1685.0, 1687.0, 1686.0, 1687.0, 1685.0, 1660.0, 1722.0, 1714.0, 1711.0, 1712.0, 1707.0, 1706.0, 1705.0, 1702.0, 1701.0, 1701.0, 1700.0, 1700.0, 1700.0, 1700.0, 1702.0, 1703.0, 1703.0, 1704.0, 1706.0, 1707.0, 1704.0, 1704.0, 1704.0, 1706.0, 1704.0, 1705.0, 1705.0, 1706.0, 1703.0, 1718.0, 1708.0, 1704.0, 1702.0, 1701.0, 1699.0, 1700.0, 1699.0, 1697.0, 1698.0, 1697.0, 1697.0, 1697.0]
    },
    "slices": {}
  }
}