{
  "AcquisitionMatrixPE": 70,
  "AcquisitionNumber": 1,
  "AcquisitionTime": "17:51:37.510000",
  "BaseResolution": 70,
  "BodyPartExamined": "BRAIN",
  "CoilCombinationMethod": "Sum of Squares",
  "ConsistencyInfo": "N4_VE11C_LATEST_20160120",
  "ConversionSoftware": "dcm2niix",
  "ConversionSoftwareVersion": "v1.0.20211006",
  "DeviceSerialNumber": "166011",
  "EchoNumber": 2,
  "EchoTime": 0.00738,
  "EchoTime1": 0.00492,
  "EchoTime2": 0.00738,
  "FlipAngle": 60,
  "ImageOrientationPatientDICOM": [
    0.999488,
    0.00938496,
    0.0305957,
    -0.00994361,
    0.999786,
    0.0181584
  ],
  "ImageType": [
    "ORIGINAL",
    "PRIMARY",
    "P",
    "ND",
    "PHASE"
  ],
  "ImagingFrequency": 123.259,
  "InPlanePhaseEncodingDirectionDICOM": "ROW",
  "InstitutionAddress": "West 130th Street 610,NY,NYC,US,10025",
  "InstitutionName": "MBBI",
  "IntendedFor": [
    "ses-1/func/sub-148_ses-1_task-catLoc_run-01_bold.nii.gz",
    "ses-1/func/sub-148_ses-1_task-catLoc_run-02_bold.nii.gz",
    "ses-1/func/sub-148_ses-1_task-vwfate_run-01_bold.nii.gz",
    "ses-1/func/sub-148_ses-1_task-vwfate_run-02_bold.nii.gz",
    "ses-1/func/sub-148_ses-1_task-vwfate_run-03_bold.nii.gz",
    "ses-1/func/sub-148_ses-1_task-vwfate_run-04_bold.nii.gz",
    "ses-1/func/sub-148_ses-1_task-vwfate_run-05_bold.nii.gz"
  ],
  "MRAcquisitionType": "2D",
  "MagneticFieldStrength": 3,
  "Manufacturer": "Siemens",
  "ManufacturersModelName": "Prisma",
  "MatrixCoilMode": "SENSE",
  "Modality": "MR",
  "MultibandAccelerationFactor": 2,
  "PartialFourier": 1,
  "PatientPosition": "HFS",
  "PercentPhaseFOV": 100,
  "PercentSampling": 100,
  "PhaseEncodingDirection": "i",
  "PhaseEncodingSteps": 70,
  "PhaseResolution": 1,
  "PixelBandwidth": 595,
  "ProcedureStepDescription": "White^Word_recognition",
  "ProtocolName": "fmap_gre_field_mapping",
  "PulseSequenceDetails": "%SiemensSeq%\\gre_field_mapping",
  "ReceiveCoilActiveElements": "HC1-7",
  "ReceiveCoilName": "HeadNeck_64",
  "ReconMatrixPE": 70,
  "RepetitionTime": 0.52,
  "SAR": 0.0839315,
  "ScanningSequence": "GR",
  "SequenceName": "*fm2d2r",
  "SequenceVariant": "SP",
  "SeriesDescription": "fmap_gre_field_mapping",
  "SeriesNumber": 17,
  "ShimSetting": [
    -1132,
    -1427,
    693,
    699,
    8,
    -55,
    35,
    -33
  ],
  "SliceThickness": 3,
  "SliceTiming": [
    0.26562,
    0,
    0.26562,
    0.01562,
    0.28125,
    0.03125,
    0.29688,
    0.03125,
    0.3125,
    0.04688,
    0.32812,
    0.0625,
    0.32812,
    0.07812,
    0.34375,
    0.09375,
    0.35938,
    0.09375,
    0.375,
    0.10938,
    0.39062,
    0.125,
    0.39062,
    0.14062,
    0.40625,
    0.15625,
    0.42188,
    0.15625,
    0.4375,
    0.17188,
    0.45312,
    0.1875,
    0.45312,
    0.20312,
    0.46875,
    0.21875,
    0.48438,
    0.21875,
    0.5,
    0.23438,
    0.5,
    0.25
  ],
  "SoftwareVersions": "syngo MR E11",
  "SpacingBetweenSlices": 3,
  "StationName": "AWP166011",
  "TxRefAmp": 217.873,
  "dcmmeta_affine": [
    [
      -2.9984633922576904,
      -0.029830826446413994,
      0.09125614166259766,
      103.38411712646484
    ],
    [
      -0.028154877945780754,
      2.999356985092163,
      0.05535888671875,
      -72.0643539428711
    ],
    [
      0.09178706258535385,
      -0.05447506532073021,
      2.998096466064453,
      -59.38823699951172
    ],
    [
      0.0,
      0.0,
      0.0,
      1.0
    ]
  ],
  "dcmmeta_reorient_transform": [
    [
      0.0,
      -1.0,
      0.0,
      69.0
    ],
    [
      1.0,
      0.0,
      0.0,
      0.0
    ],
    [
      0.0,
      0.0,
      -1.0,
      41.0
    ],
    [
      0.0,
      0.0,
      0.0,
      1.0
    ]
  ],
  "dcmmeta_shape": [
    70,
    70,
    42
  ],
  "dcmmeta_slice_dim": 2,
  "dcmmeta_version": 0.6,
  "global": {
    "const": {
      "AcquisitionMatrix": [
        0,
        70,
        70,
        0
      ],
      "AcquisitionNumber": 1,
      "AngioFlag": "N",
      "BitsAllocated": 16,
      "BitsStored": 12,
      "BodyPartExamined": "BRAIN",
      "Columns": 70,
      "EchoNumbers": 2,
      "EchoTime": 7.38,
      "EchoTrainLength": 0,
      "FlipAngle": 60.0,
      "HighBit": 11,
      "ImageOrientationPatient": [
        0.99948778202832,
        0.00938495957708,
        0.0305956877655,
        -0.0099436088173,
        0.99978567642445,
        0.01815835510712
      ],
      "ImageType": [
        "ORIGINAL",
        "PRIMARY",
        "P",
        "ND"
      ],
      "ImagedNucleus": "1H",
      "ImagingFrequency": 123.259488,
      "InPlanePhaseEncodingDirection": "ROW",
      "MRAcquisitionType": "2D",
      "MagneticFieldStrength": 3.0,
      "Manufacturer": "SIEMENS",
      "ManufacturerModelName": "Prisma",
      "Modality": "MR",
      "NumberOfAverages": 1.0,
      "NumberOfPhaseEncodingSteps": 70,
      "PercentPhaseFieldOfView": 100.0,
      "PercentSampling": 100.0,
      "PerformedProcedureStepStartTime": "162933.940000",
      "PhotometricInterpretation": "MONOCHROME2",
      "PixelBandwidth": 595.0,
      "PixelRepresentation": 0,
      "PixelSpacing": [
        3.0,
        3.0
      ],
      "ProtocolName": "fmap_gre_field_mapping",
      "RepetitionTime": 520.0,
      "RescaleIntercept": -4096.0,
      "RescaleSlope": 2.0,
      "RescaleType": "US",
      "Rows": 70,
      "SAR": 0.08393150249139,
      "SamplesPerPixel": 1,
      "ScanningSequence": "GR",
      "SequenceName": "*fm2d2r",
      "SequenceVariant": "SP",
      "SeriesDescription": "fmap_gre_field_mapping",
      "SeriesNumber": 17,
      "SeriesTime": "175250.313000",
      "SliceThickness": 3.0,
      "SoftwareVersions": "syngo MR E11",
      "SpacingBetweenSlices": 3.0,
      "SpecificCharacterSet": "ISO_IR 100",
      "StudyID": "1",
      "StudyTime": "162933.872000",
      "TransmitCoilName": "Body",
      "VariableFlipAngleFlag": "N",
      "WindowCenterWidthExplanation": "Algo1",
      "dBdt": 0.0
    },
    "slices": {
      "AcquisitionTime": [
        "175137.510000",
        "175137.250000",
        "175137.522500",
        "175137.262500",
        "175137.535000",
        "175137.275000",
        "175137.547500",
        "175137.287500",
        "175137.560000",
        "175137.300000",
        "175137.572500",
        "175137.312500",
        "175137.585000",
        "175137.325000",
        "175137.597500",
        "175137.337500",
        "175137.610000",
        "175137.350000",
        "175137.622500",
        "175137.362500",
        "175137.635000",
        "175137.375000",
        "175137.647500",
        "175137.387500",
        "175137.660000",
        "175137.400000",
        "175137.672500",
        "175137.412500",
        "175137.685000",
        "175137.425000",
        "175137.697500",
        "175137.437500",
        "175137.710000",
        "175137.450000",
        "175137.722500",
        "175137.462500",
        "175137.732500",
        "175137.472500",
        "175137.745000",
        "175137.485000",
        "175137.757500",
        "175137.497500"
      ],
      "ContentTime": [
        "175250.371000",
        "175250.315000",
        "175250.373000",
        "175250.317000",
        "175250.375000",
        "175250.319000",
        "175250.377000",
        "175250.321000",
        "175250.379000",
        "175250.323000",
        "175250.381000",
        "175250.326000",
        "175250.383000",
        "175250.328000",
        "175250.385000",
        "175250.330000",
        "175250.388000",
        "175250.343000",
        "175250.390000",
        "175250.345000",
        "175250.392000",
        "175250.348000",
        "175250.394000",
        "175250.350000",
        "175250.396000",
        "175250.352000",
        "175250.398000",
        "175250.354000",
        "175250.400000",
        "175250.356000",
        "175250.402000",
        "175250.358000",
        "175250.404000",
        "175250.360000",
        "175250.406000",
        "175250.363000",
        "175250.409000",
        "175250.365000",
        "175250.411000",
        "175250.367000",
        "175250.413000",
        "175250.369000"
      ],
      "CsaImage.ICE_Dims": [
        "X_2_1_1_1_1_1_22_1_1_1_1_97",
        "X_2_1_1_1_1_1_1_1_1_2_1_97",
        "X_2_1_1_1_1_1_23_1_1_3_1_97",
        "X_2_1_1_1_1_1_2_1_1_4_1_97",
        "X_2_1_1_1_1_1_24_1_1_5_1_97",
        "X_2_1_1_1_1_1_3_1_1_6_1_97",
        "X_2_1_1_1_1_1_25_1_1_7_1_97",
        "X_2_1_1_1_1_1_4_1_1_8_1_97",
        "X_2_1_1_1_1_1_26_1_1_9_1_97",
        "X_2_1_1_1_1_1_5_1_1_10_1_97",
        "X_2_1_1_1_1_1_27_1_1_11_1_97",
        "X_2_1_1_1_1_1_6_1_1_12_1_97",
        "X_2_1_1_1_1_1_28_1_1_13_1_97",
        "X_2_1_1_1_1_1_7_1_1_14_1_97",
        "X_2_1_1_1_1_1_29_1_1_15_1_97",
        "X_2_1_1_1_1_1_8_1_1_16_1_97",
        "X_2_1_1_1_1_1_30_1_1_17_1_97",
        "X_2_1_1_1_1_1_9_1_1_18_1_97",
        "X_2_1_1_1_1_1_31_1_1_19_1_97",
        "X_2_1_1_1_1_1_10_1_1_20_1_97",
        "X_2_1_1_1_1_1_32_1_1_21_1_97",
        "X_2_1_1_1_1_1_11_1_1_22_1_97",
        "X_2_1_1_1_1_1_33_1_1_23_1_97",
        "X_2_1_1_1_1_1_12_1_1_24_1_97",
        "X_2_1_1_1_1_1_34_1_1_25_1_97",
        "X_2_1_1_1_1_1_13_1_1_26_1_97",
        "X_2_1_1_1_1_1_35_1_1_27_1_97",
        "X_2_1_1_1_1_1_14_1_1_28_1_97",
        "X_2_1_1_1_1_1_36_1_1_29_1_97",
        "X_2_1_1_1_1_1_15_1_1_30_1_97",
        "X_2_1_1_1_1_1_37_1_1_31_1_97",
        "X_2_1_1_1_1_1_16_1_1_32_1_97",
        "X_2_1_1_1_1_1_38_1_1_33_1_97",
        "X_2_1_1_1_1_1_17_1_1_34_1_97",
        "X_2_1_1_1_1_1_39_1_1_35_1_97",
        "X_2_1_1_1_1_1_18_1_1_36_1_97",
        "X_2_1_1_1_1_1_40_1_1_37_1_97",
        "X_2_1_1_1_1_1_19_1_1_38_1_97",
        "X_2_1_1_1_1_1_41_1_1_39_1_97",
        "X_2_1_1_1_1_1_20_1_1_40_1_97",
        "X_2_1_1_1_1_1_42_1_1_41_1_97",
        "X_2_1_1_1_1_1_21_1_1_42_1_97"
      ],
      "CsaImage.ProtocolSliceNumber": [
        0,
        1,
        2,
        3,
        4,
        5,
        6,
        7,
        8,
        9,
        10,
        11,
        12,
        13,
        14,
        15,
        16,
        17,
        18,
        19,
        20,
        21,
        22,
        23,
        24,
        25,
        26,
        27,
        28,
        29,
        30,
        31,
        32,
        33,
        34,
        35,
        36,
        37,
        38,
        39,
        40,
        41
      ],
      "CsaImage.SlicePosition_PCS": [
        [
          -101.32579203,
          -134.89124243,
          -63.14718582
        ],
        [
          -101.41704817,
          -134.94660323,
          -60.14908554
        ],
        [
          -101.50830431,
          -135.00196211,
          -57.15098526
        ],
        [
          -101.59956045,
          -135.05732291,
          -54.15288498
        ],
        [
          -101.69081659,
          -135.11268179,
          -51.1547847
        ],
        [
          -101.78207274,
          -135.16804259,
          -48.15668442
        ],
        [
          -101.87332888,
          -135.22340148,
          -45.15858414
        ],
        [
          -101.96458502,
          -135.27876227,
          -42.16048386
        ],
        [
          -102.05584116,
          -135.33412116,
          -39.16237976
        ],
        [
          -102.1470973,
          -135.38948195,
          -36.16428139
        ],
        [
          -102.23835344,
          -135.44484084,
          -33.16618111
        ],
        [
          -102.32960959,
          -135.50020163,
          -30.16807892
        ],
        [
          -102.42086573,
          -135.55556052,
          -27.16997864
        ],
        [
          -102.51212187,
          -135.61092131,
          -24.17187836
        ],
        [
          -102.60337801,
          -135.6662802,
          -21.17377808
        ],
        [
          -102.69463415,
          -135.72164099,
          -18.17567684
        ],
        [
          -102.78589029,
          -135.77699988,
          -15.17757656
        ],
        [
          -102.87714644,
          -135.83236067,
          -12.17947581
        ],
        [
          -102.96840252,
          -135.88771956,
          -9.18137505
        ],
        [
          -103.05965866,
          -135.94308035,
          -6.18327429
        ],
        [
          -103.1509148,
          -135.99843924,
          -3.18517365
        ],
        [
          -103.24217094,
          -136.05380004,
          -0.18707278
        ],
        [
          -103.33342709,
          -136.10915892,
          2.81102751
        ],
        [
          -103.42468323,
          -136.16451972,
          5.80912826
        ],
        [
          -103.51593937,
          -136.2198786,
          8.8072295
        ],
        [
          -103.60719551,
          -136.2752394,
          11.80532882
        ],
        [
          -103.69845165,
          -136.33059828,
          14.80343101
        ],
        [
          -103.7897078,
          -136.38595908,
          17.80153129
        ],
        [
          -103.88096394,
          -136.44131796,
          20.79963157
        ],
        [
          -103.97222008,
          -136.49667876,
          23.79773186
        ],
        [
          -104.06347622,
          -136.55203765,
          26.79583214
        ],
        [
          -104.15473236,
          -136.60739844,
          29.79393432
        ],
        [
          -104.2459885,
          -136.66275733,
          32.7920346
        ],
        [
          -104.33724464,
          -136.71811812,
          35.79013489
        ],
        [
          -104.42850079,
          -136.77347701,
          38.78823517
        ],
        [
          -104.51975693,
          -136.8288378,
          41.78633545
        ],
        [
          -104.61101307,
          -136.88419859,
          44.78443573
        ],
        [
          -104.70226921,
          -136.93955748,
          47.78253601
        ],
        [
          -104.79352535,
          -136.99491828,
          50.7806401
        ],
        [
          -104.88478149,
          -137.05027716,
          53.77874038
        ],
        [
          -104.97603769,
          -137.10563796,
          56.77684067
        ],
        [
          -105.06729384,
          -137.16099684,
          59.77493713
        ]
      ],
      "CsaImage.TimeAfterStart": [
        0.7825,
        0.5225,
        0.795,
        0.535,
        0.8075,
        0.5475,
        0.82,
        0.56,
        0.8325,
        0.5725,
        0.845,
        0.585,
        0.8575,
        0.5975,
        0.87,
        0.61,
        0.8825,
        0.6225,
        0.895,
        0.635,
        0.9075,
        0.6475,
        0.92,
        0.66,
        0.9325,
        0.6725,
        0.945,
        0.685,
        0.9575,
        0.6975,
        0.97,
        0.71,
        0.9825,
        0.7225,
        0.995,
        0.735,
        1.005,
        0.745,
        1.0175,
        0.7575,
        1.03,
        0.77
      ],
      "ImagePositionPatient": [
        [
          -101.32579202817,
          -134.89124243324,
          -63.147185823647
        ],
        [
          -101.41704816984,
          -134.9466032273,
          -60.149085542885
        ],
        [
          -101.5083043115,
          -135.00196211402,
          -57.150985262123
        ],
        [
          -101.59956045316,
          -135.05732290809,
          -54.152884981362
        ],
        [
          -101.69081659482,
          -135.11268179481,
          -51.1547847006
        ],
        [
          -101.78207273649,
          -135.16804258888,
          -48.156684419838
        ],
        [
          -101.87332887815,
          -135.2234014756,
          -45.158584139077
        ],
        [
          -101.96458501981,
          -135.27876226966,
          -42.160483858315
        ],
        [
          -102.05584116147,
          -135.33412115638,
          -39.162379762856
        ],
        [
          -102.14709730314,
          -135.38948195045,
          -36.164281389443
        ],
        [
          -102.2383534448,
          -135.44484083717,
          -33.166181108681
        ],
        [
          -102.32960958646,
          -135.50020163123,
          -30.168078920571
        ],
        [
          -102.42086572812,
          -135.55556051795,
          -27.169978639809
        ],
        [
          -102.51212186979,
          -135.61092131202,
          -24.171878359047
        ],
        [
          -102.60337801145,
          -135.66628019874,
          -21.173778078286
        ],
        [
          -102.69463415311,
          -135.72164099281,
          -18.17567684385
        ],
        [
          -102.78589029478,
          -135.77699987953,
          -15.177576563088
        ],
        [
          -102.87714643644,
          -135.83236067359,
          -12.179475805489
        ],
        [
          -102.9684025185,
          -135.88771956031,
          -9.1813750478901
        ],
        [
          -103.05965866016,
          -135.94308035438,
          -6.1832742902912
        ],
        [
          -103.15091480182,
          -135.9984392411,
          -3.1851736519016
        ],
        [
          -103.24217094348,
          -136.05380003517,
          -0.1870727750934
        ],
        [
          -103.33342708515,
          -136.10915892188,
          2.8110275056683
        ],
        [
          -103.42468322681,
          -136.16451971595,
          5.8091282632672
        ],
        [
          -103.51593936847,
          -136.21987860267,
          8.8072294977032
        ],
        [
          -103.60719551013,
          -136.27523939674,
          11.805328824791
        ],
        [
          -103.6984516518,
          -136.33059828346,
          14.803431012901
        ],
        [
          -103.78970780091,
          -136.38595907752,
          17.801531293663
        ],
        [
          -103.88096394071,
          -136.44131796424,
          20.799631574424
        ],
        [
          -103.97222008423,
          -136.49667875831,
          23.797731855186
        ],
        [
          -104.06347621845,
          -136.55203764503,
          26.795832135948
        ],
        [
          -104.15473236011,
          -136.6073984391,
          29.793934324058
        ],
        [
          -104.24598850177,
          -136.66275732581,
          32.79203460482
        ],
        [
          -104.33724464343,
          -136.71811811988,
          35.790134885582
        ],
        [
          -104.4285007851,
          -136.7734770066,
          38.788235166343
        ],
        [
          -104.51975692676,
          -136.82883780067,
          41.786335447105
        ],
        [
          -104.61101306842,
          -136.88419859474,
          44.784435727867
        ],
        [
          -104.70226921009,
          -136.93955748145,
          47.782536008628
        ],
        [
          -104.79352535175,
          -136.99491827552,
          50.780640104087
        ],
        [
          -104.88478149341,
          -137.05027716224,
          53.778740384849
        ],
        [
          -104.97603769468,
          -137.10563795631,
          56.776840665611
        ],
        [
          -105.06729383634,
          -137.16099684303,
          59.774937131675
        ]
      ],
      "InstanceCreationTime": [
        "175250.371000",
        "175250.315000",
        "175250.373000",
        "175250.317000",
        "175250.375000",
        "175250.319000",
        "175250.377000",
        "175250.321000",
        "175250.379000",
        "175250.323000",
        "175250.381000",
        "175250.326000",
        "175250.383000",
        "175250.328000",
        "175250.385000",
        "175250.330000",
        "175250.388000",
        "175250.343000",
        "175250.390000",
        "175250.345000",
        "175250.392000",
        "175250.348000",
        "175250.394000",
        "175250.350000",
        "175250.396000",
        "175250.352000",
        "175250.398000",
        "175250.354000",
        "175250.400000",
        "175250.356000",
        "175250.402000",
        "175250.358000",
        "175250.404000",
        "175250.360000",
        "175250.406000",
        "175250.363000",
        "175250.409000",
        "175250.365000",
        "175250.411000",
        "175250.367000",
        "175250.413000",
        "175250.369000"
      ],
      "InstanceNumber": [
        1,
        2,
        3,
        4,
        5,
        6,
        7,
        8,
        9,
        10,
        11,
        12,
        13,
        14,
        15,
        16,
        17,
        18,
        19,
        20,
        21,
        22,
        23,
        24,
        25,
        26,
        27,
        28,
        29,
        30,
        31,
        32,
        33,
        34,
        35,
        36,
        37,
        38,
        39,
        40,
        41,
        42
      ],
      "LargestImagePixelValue": [
        4090,
        4093,
        4094,
        4093,
        4095,
        4095,
        4094,
        4092,
        4090,
        4094,
        4095,
        4083,
        4084,
        4091,
        4095,
        4094,
        4085,
        4089,
        4086,
        4089,
        4091,
        4095,
        4094,
        4089,
        4088,
        4094,
        4056,
        4095,
        4090,
        4081,
        4075,
        4094,
        4094,
        4090,
        4093,
        4091,
        4095,
        4093,
        4093,
        4089,
        4090,
        4091
      ],
      "SliceLocation": [
        -57.535819610139,
        -54.535819977736,
        -51.535820380531,
        -48.535820748129,
        -45.535821150923,
        -42.535821518521,
        -39.535821921316,
        -36.535822288914,
        -33.535818879426,
        -30.535821153165,
        -27.535821555959,
        -24.535820017416,
        -21.535820420211,
        -18.535820787809,
        -15.535821190603,
        -12.53582060513,
        -9.535821007925,
        -6.5358208989875,
        -3.53582082706,
        -0.5358207181225,
        2.4641792364844,
        5.4641794645557,
        8.4641790617611,
        11.464179170699,
        14.464179720974,
        17.464178400306,
        20.464179903653,
        23.464179536281,
        26.46417913343,
        29.464178765889,
        32.464178362868,
        35.464179901411,
        38.464179498617,
        41.464179131019,
        44.464178728224,
        47.464178360626,
        50.464177993029,
        53.464177590234,
        56.464181034918,
        59.464180632124,
        62.464180266339,
        65.464176051262
      ],
      "SmallestImagePixelValue": [
        0,
        4,
        0,
        0,
        1,
        5,
        4,
        7,
        1,
        6,
        0,
        0,
        3,
        0,
        6,
        1,
        4,
        1,
        17,
        0,
        5,
        18,
        3,
        15,
        8,
        1,
        12,
        0,
        4,
        5,
        17,
        1,
        5,
        5,
        4,
        3,
        3,
        2,
        4,
        0,
        1,
        0
      ],
      "WindowCenter": [
        -200.0,
        -210.0,
        -200.0,
        -146.0,
        -174.0,
        -166.0,
        -134.0,
        -110.0,
        -128.0,
        -184.0,
        -212.0,
        -258.0,
        -320.0,
        -304.0,
        -338.0,
        -258.0,
        -230.0,
        -430.0,
        -262.0,
        -210.0,
        -332.0,
        -128.0,
        -168.0,
        -104.0,
        -126.0,
        -124.0,
        -80.0,
        -80.0,
        -96.0,
        -92.0,
        -114.0,
        -124.0,
        -116.0,
        -98.0,
        -178.0,
        -104.0,
        -72.0,
        -136.0,
        -152.0,
        -178.0,
        -226.0,
        -166.0
      ],
      "WindowWidth": [
        6120.0,
        6218.0,
        6110.0,
        6158.0,
        6158.0,
        6218.0,
        6218.0,
        6274.0,
        6196.0,
        6224.0,
        6134.0,
        6108.0,
        6010.0,
        6016.0,
        5856.0,
        5782.0,
        5560.0,
        4776.0,
        5228.0,
        5428.0,
        4676.0,
        5598.0,
        5492.0,
        5514.0,
        5302.0,
        5176.0,
        5312.0,
        5326.0,
        5358.0,
        5334.0,
        5328.0,
        5190.0,
        5376.0,
        5302.0,
        5146.0,
        5480.0,
        5498.0,
        5290.0,
        5482.0,
        5460.0,
        5458.0,
        5856.0
      ]
    }
  }
}