{
  "AcquisitionMatrixPE": 72,
  "AcquisitionNumber": 1,
  "AcquisitionTime": "17:28:18.420000",
  "BandwidthPerPixelPhaseEncode": 17.943,
  "BaseResolution": 96,
  "BodyPartExamined": "BRAIN",
  "CoilCombinationMethod": "Sum of Squares",
  "ConsistencyInfo": "N4_VE11C_LATEST_20160120",
  "ConversionSoftware": "dcm2niix",
  "ConversionSoftwareVersion": "v1.0.20211006",
  "DerivedVendorReportedEchoSpacing": 0.000552897,
  "DeviceSerialNumber": "166011",
  "EchoTime": 0.03,
  "EchoTrainLength": 58,
  "EffectiveEchoSpacing": 0.000580542,
  "FlipAngle": 62,
  "ImageOrientationPatientDICOM": [0.999471, 0.011738, 0.0303397, -0.00994337, 0.99823, -0.0586383],
  "ImageType": [
    "ORIGINAL",
    "PRIMARY",
    "M",
    "ND",
    "MOSAIC"
],
  "ImagingFrequency": 123.259,
  "InPlanePhaseEncodingDirectionDICOM": "COL",
  "InstitutionAddress": "West 130th Street 610,NY,NYC,US,10025",
  "InstitutionName": "MBBI",
  "MRAcquisitionType": "2D",
  "MagneticFieldStrength": 3,
  "Manufacturer": "Siemens",
  "ManufacturersModelName": "Prisma",
  "Modality": "MR",
  "MultibandAccelerationFactor": 3,
  "PartialFourier": 0.75,
  "PatientPosition": "HFS",
  "PercentPhaseFOV": 100,
  "PercentSampling": 75,
  "PhaseEncodingDirection": "j-",
  "PhaseEncodingSteps": 58,
  "PhaseOversampling": 0.05,
  "PhaseResolution": 0.75,
  "PixelBandwidth": 2265,
  "ProcedureStepDescription": "White^Word_recognition",
  "ProtocolName": "func_vwfate_run4",
  "PulseSequenceDetails": "%SiemensSeq%\\ep2d_bold",
  "ReceiveCoilActiveElements": "HC1-7",
  "ReceiveCoilName": "HeadNeck_64",
  "ReconMatrixPE": 96,
  "RefLinesPE": 40,
  "RepetitionTime": 1.5,
  "SAR": 0.0442008,
  "ScanOptions": "PFP\\FS",
  "ScanningSequence": "EP",
  "SequenceName": "*epfid2d1_72",
  "SequenceVariant": "SK\\OSP",
  "SeriesDescription": "func_vwfate_run4",
  "SeriesNumber": 12,
  "ShimSetting": [-1130, -1438, 695, 682, 11, -111, -28, -33],
  "SliceThickness": 2,
  "SliceTiming": [1.075, 0, 0.74, 0.065, 0.805, 0.1325, 0.8725, 0.2, 0.94, 0.2675, 1.0075, 0.4025, 1.1425, 0.47, 1.21, 0.5375, 1.2775, 0.605, 1.345, 0.6725, 1.4125, 0.335, 1.075, 0, 0.74, 0.065, 0.805, 0.1325, 0.8725, 0.2, 0.94, 0.2675, 1.0075, 0.4025, 1.1425, 0.47, 1.21, 0.5375, 1.2775, 0.605, 1.345, 0.6725, 1.4125, 0.335, 1.075, 0, 0.74, 0.065, 0.805, 0.1325, 0.8725, 0.2, 0.94, 0.2675, 1.0075, 0.4025, 1.1425, 0.47, 1.21, 0.5375, 1.2775, 0.605, 1.345, 0.6725, 1.4125, 0.335],
  "SoftwareVersions": "syngo MR E11",
  "SpacingBetweenSlices": 2,
  "StationName": "AWP166011",
  "TaskName": "vwfate",
  "TotalReadoutTime": 0.0551515,
  "TxRefAmp": 217.873,
  "dcmmeta_affine": [
    [-1.998941421508789, -0.019886748865246773, 0.06194858253002167, 93.40015411376953],
    [-0.02347591705620289, 1.9964596033096313, -0.11661109328269958, -56.65166091918945],
    [0.06067941337823868, 0.11727652698755264, 1.995636224746704, -69.88821411132812],
    [0.0, 0.0, 0.0, 1.0]
],
  "dcmmeta_reorient_transform": [
    [0.0, -1.0, 0.0, 95.0],
    [1.0, 0.0, 0.0, 0.0],
    [0.0, 0.0, 1.0, 0.0],
    [0.0, 0.0, 0.0, 1.0]
],
  "dcmmeta_shape": [96, 96, 66, 164],
  "dcmmeta_slice_dim": 2,
  "dcmmeta_version": 0.6,
  "global": {
    "const": {
      "AcquisitionMatrix": [96, 0, 0, 72],
      "AngioFlag": "N",
      "BitsAllocated": 16,
      "BitsStored": 12,
      "BodyPartExamined": "BRAIN",
      "Columns": 864,
      "EchoNumbers": 1,
      "EchoTime": 30.0,
      "EchoTrainLength": 58,
      "FlipAngle": 62.0,
      "HighBit": 11,
      "ImageOrientationPatient": [0.99947072121689, 0.01173795837567, 0.03033970605254, -0.0099433746797, 0.99822977481715, -0.0586382636892],
      "ImagePositionPatient": [-851.46791378131, -908.66721715121, -37.013650175351],
      "ImageType": [
        "ORIGINAL",
        "PRIMARY",
        "M",
        "ND",
        "MOSAIC"
],
      "ImagedNucleus": "1H",
      "ImagingFrequency": 123.259486,
      "InPlanePhaseEncodingDirection": "COL",
      "MRAcquisitionType": "2D",
      "MagneticFieldStrength": 3.0,
      "Manufacturer": "SIEMENS",
      "ManufacturerModelName": "Prisma",
      "Modality": "MR",
      "NumberOfAverages": 1.0,
      "NumberOfPhaseEncodingSteps": 58,
      "PercentPhaseFieldOfView": 100.0,
      "PercentSampling": 75.0,
      "PerformedProcedureStepStartTime": "162933.940000",
      "PhotometricInterpretation": "MONOCHROME2",
      "PixelBandwidth": 2265.0,
      "PixelRepresentation": 0,
      "PixelSpacing": [2.0, 2.0],
      "ProtocolName": "func_vwfate_run4",
      "RepetitionTime": 1500.0,
      "Rows": 864,
      "SAR": 0.0442008218925,
      "SamplesPerPixel": 1,
      "ScanOptions": [
        "PFP",
        "FS"
],
      "ScanningSequence": "EP",
      "SequenceName": "*epfid2d1_72",
      "SequenceVariant": [
        "SK",
        "OSP"
],
      "SeriesDescription": "func_vwfate_run4",
      "SeriesNumber": 12,
      "SeriesTime": "172834.090000",
      "SliceLocation": -63.539617175126,
      "SliceThickness": 2.0,
      "SmallestImagePixelValue": 0,
      "SoftwareVersions": "syngo MR E11",
      "SpacingBetweenSlices": 1.9999999842651,
      "SpecificCharacterSet": "ISO_IR 100",
      "StudyID": "1",
      "StudyTime": "162933.872000",
      "TransmitCoilName": "Body",
      "VariableFlipAngleFlag": "N",
      "WindowCenterWidthExplanation": "Algo1",
      "dBdt": 0.0},
    "slices": {}
  },
  "time": {
    "samples": {
      "AcquisitionNumber": [1, 2, 3, 4, 5, 6, 7, 8, 9, 10, 11, 12, 13, 14, 15, 16, 17, 18, 19, 20, 21, 22, 23, 24, 25, 26, 27, 28, 29, 30, 31, 32, 33, 34, 35, 36, 37, 38, 39, 40, 41, 42, 43, 44, 45, 46, 47, 48, 49, 50, 51, 52, 53, 54, 55, 56, 57, 58, 59, 60, 61, 62, 63, 64, 65, 66, 67, 68, 69, 70, 71, 72, 73, 74, 75, 76, 77, 78, 79, 80, 81, 82, 83, 84, 85, 86, 87, 88, 89, 90, 91, 92, 93, 94, 95, 96, 97, 98, 99, 100, 101, 102, 103, 104, 105, 106, 107, 108, 109, 110, 111, 112, 113, 114, 115, 116, 117, 118, 119, 120, 121, 122, 123, 124, 125, 126, 127, 128, 129, 130, 131, 132, 133, 134, 135, 136, 137, 138, 139, 140, 141, 142, 143, 144, 145, 146, 147, 148, 149, 150, 151, 152, 153, 154, 155, 156, 157, 158, 159, 160, 161, 162, 163, 164],
      "AcquisitionTime": ["172818.420000", "172819.920000", "172821.420000", "172822.920000", "172824.420000", "172825.920000", "172827.420000", "172828.920000", "172830.420000", "172831.920000", "172833.420000", "172834.920000", "172836.420000", "172837.920000", "172839.420000", "172840.920000", "172842.420000", "172843.920000", "172845.420000", "172846.920000", "172848.420000", "172849.920000", "172851.420000", "172852.920000", "172854.420000", "172855.920000", "172857.420000", "172858.920000", "172900.420000", "172901.920000", "172903.420000", "172904.920000", "172906.420000", "172907.920000", "172909.420000", "172910.920000", "172912.420000", "172913.920000", "172915.420000", "172916.920000", "172918.420000", "172919.920000", "172921.420000", "172922.920000", "172924.420000", "172925.920000", "172927.420000", "172928.920000", "172930.420000", "172931.920000", "172933.420000", "172934.920000", "172936.420000", "172937.920000", "172939.420000", "172940.920000", "172942.420000", "172943.920000", "172945.420000", "172946.920000", "172948.420000", "172949.920000", "172951.420000", "172952.920000", "172954.420000", "172955.920000", "172957.420000", "172958.920000", "173000.420000", "173001.920000", "173003.420000", "173004.920000", "173006.420000", "173007.920000", "173009.420000", "173010.920000", "173012.420000", "173013.920000", "173015.420000", "173016.920000", "173018.420000", "173019.920000", "173021.420000", "173022.920000", "173024.420000", "173025.920000", "173027.420000", "173028.920000", "173030.420000", "173031.920000", "173033.420000", "173034.920000", "173036.420000", "173037.920000", "173039.420000", "173040.920000", "173042.420000", "173043.920000", "173045.420000", "173046.920000", "173048.420000", "173049.920000", "173051.420000", "173052.920000", "173054.420000", "173055.920000", "173057.420000", "173058.920000", "173100.420000", "173101.920000", "173103.420000", "173104.920000", "173106.420000", "173107.920000", "173109.420000", "173110.920000", "173112.420000", "173113.920000", "173115.420000", "173116.920000", "173118.420000", "173119.920000", "173121.420000", "173122.920000", "173124.420000", "173125.920000", "173127.420000", "173128.920000", "173130.420000", "173131.920000", "173133.420000", "173134.920000", "173136.420000", "173137.920000", "173139.420000", "173140.920000", "173142.420000", "173143.920000", "173145.420000", "173146.920000", "173148.420000", "173149.920000", "173151.420000", "173152.920000", "173154.420000", "173155.920000", "173157.420000", "173158.920000", "173200.420000", "173201.920000", "173203.420000", "173204.920000", "173206.420000", "173207.920000", "173209.420000", "173210.920000", "173212.420000", "173213.920000", "173215.420000", "173216.920000", "173218.420000", "173219.920000", "173221.420000", "173222.920000"],
      "ContentTime": ["172834.094000", "172834.098000", "172834.101000", "172834.104000", "172834.107000", "172834.118000", "172834.121000", "172834.133000", "172834.136000", "172834.139000", "172914.078000", "172914.081000", "172914.084000", "172914.087000", "172914.090000", "172914.093000", "172914.096000", "172914.099000", "172914.103000", "172914.106000", "172914.109000", "172914.119000", "172914.122000", "172914.125000", "172914.129000", "172914.132000", "172914.134000", "172914.137000", "172914.141000", "172914.144000", "172914.147000", "172914.150000", "172914.153000", "172914.156000", "172914.159000", "172914.162000", "172914.165000", "172954.077000", "172954.080000", "172954.083000", "172954.086000", "172954.089000", "172954.092000", "172954.095000", "172954.098000", "172954.101000", "172954.104000", "172954.107000", "172954.110000", "172954.113000", "172954.116000", "172954.119000", "172954.122000", "172954.125000", "172954.128000", "172954.131000", "172954.134000", "172954.144000", "172954.147000", "172954.150000", "172954.153000", "172954.156000", "172954.159000", "172954.162000", "173034.077000", "173034.080000", "173034.083000", "173034.086000", "173034.089000", "173034.092000", "173034.095000", "173034.098000", "173034.101000", "173034.104000", "173034.107000", "173034.110000", "173034.113000", "173034.116000", "173034.119000", "173034.122000", "173034.125000", "173034.128000", "173034.131000", "173034.134000", "173034.137000", "173034.140000", "173034.143000", "173034.146000", "173034.149000", "173034.152000", "173114.078000", "173114.081000", "173114.084000", "173114.087000", "173114.090000", "173114.093000", "173114.096000", "173114.100000", "173114.103000", "173114.106000", "173114.109000", "173114.112000", "173114.115000", "173114.118000", "173114.121000", "173114.124000", "173114.127000", "173114.130000", "173114.133000", "173114.136000", "173114.139000", "173114.142000", "173114.145000", "173114.148000", "173114.151000", "173114.160000", "173114.163000", "173154.077000", "173154.080000", "173154.083000", "173154.086000", "173154.089000", "173154.092000", "173154.095000", "173154.098000", "173154.101000", "173154.104000", "173154.108000", "173154.111000", "173154.114000", "173154.117000", "173154.120000", "173154.123000", "173154.126000", "173154.129000", "173154.132000", "173154.135000", "173154.151000", "173154.154000", "173154.157000", "173154.160000", "173154.163000", "173154.166000", "173154.169000", "173223.962000", "173223.965000", "173223.969000", "173223.972000", "173223.975000", "173223.978000", "173223.982000", "173223.985000", "173223.989000", "173223.992000", "173223.996000", "173224.001000", "173224.005000", "173224.008000", "173224.012000", "173224.015000", "173224.018000", "173224.021000", "173224.024000", "173224.027000"],
      "InstanceCreationTime": ["172834.094000", "172834.098000", "172834.101000", "172834.104000", "172834.107000", "172834.118000", "172834.121000", "172834.133000", "172834.136000", "172834.139000", "172914.078000", "172914.081000", "172914.084000", "172914.087000", "172914.090000", "172914.093000", "172914.096000", "172914.099000", "172914.103000", "172914.106000", "172914.109000", "172914.119000", "172914.122000", "172914.125000", "172914.129000", "172914.132000", "172914.134000", "172914.137000", "172914.141000", "172914.144000", "172914.147000", "172914.150000", "172914.153000", "172914.156000", "172914.159000", "172914.162000", "172914.165000", "172954.077000", "172954.080000", "172954.083000", "172954.086000", "172954.089000", "172954.092000", "172954.095000", "172954.098000", "172954.101000", "172954.104000", "172954.107000", "172954.110000", "172954.113000", "172954.116000", "172954.119000", "172954.122000", "172954.125000", "172954.128000", "172954.131000", "172954.134000", "172954.144000", "172954.147000", "172954.150000", "172954.153000", "172954.156000", "172954.159000", "172954.162000", "173034.077000", "173034.080000", "173034.083000", "173034.086000", "173034.089000", "173034.092000", "173034.095000", "173034.098000", "173034.101000", "173034.104000", "173034.107000", "173034.110000", "173034.113000", "173034.116000", "173034.119000", "173034.122000", "173034.125000", "173034.128000", "173034.131000", "173034.134000", "173034.137000", "173034.140000", "173034.143000", "173034.146000", "173034.149000", "173034.152000", "173114.078000", "173114.081000", "173114.084000", "173114.087000", "173114.090000", "173114.093000", "173114.096000", "173114.100000", "173114.103000", "173114.106000", "173114.109000", "173114.112000", "173114.115000", "173114.118000", "173114.121000", "173114.124000", "173114.127000", "173114.130000", "173114.133000", "173114.136000", "173114.139000", "173114.142000", "173114.145000", "173114.148000", "173114.151000", "173114.160000", "173114.163000", "173154.077000", "173154.080000", "173154.083000", "173154.086000", "173154.089000", "173154.092000", "173154.095000", "173154.098000", "173154.101000", "173154.104000", "173154.108000", "173154.111000", "173154.114000", "173154.117000", "173154.120000", "173154.123000", "173154.126000", "173154.129000", "173154.132000", "173154.135000", "173154.151000", "173154.154000", "173154.157000", "173154.160000", "173154.163000", "173154.166000", "173154.169000", "173223.962000", "173223.965000", "173223.969000", "173223.972000", "173223.975000", "173223.978000", "173223.982000", "173223.985000", "173223.989000", "173223.992000", "173223.996000", "173224.001000", "173224.005000", "173224.008000", "173224.012000", "173224.015000", "173224.018000", "173224.021000", "173224.024000", "173224.027000"],
      "InstanceNumber": [1, 2, 3, 4, 5, 6, 7, 8, 9, 10, 11, 12, 13, 14, 15, 16, 17, 18, 19, 20, 21, 22, 23, 24, 25, 26, 27, 28, 29, 30, 31, 32, 33, 34, 35, 36, 37, 38, 39, 40, 41, 42, 43, 44, 45, 46, 47, 48, 49, 50, 51, 52, 53, 54, 55, 56, 57, 58, 59, 60, 61, 62, 63, 64, 65, 66, 67, 68, 69, 70, 71, 72, 73, 74, 75, 76, 77, 78, 79, 80, 81, 82, 83, 84, 85, 86, 87, 88, 89, 90, 91, 92, 93, 94, 95, 96, 97, 98, 99, 100, 101, 102, 103, 104, 105, 106, 107, 108, 109, 110, 111, 112, 113, 114, 115, 116, 117, 118, 119, 120, 121, 122, 123, 124, 125, 126, 127, 128, 129, 130, 131, 132, 133, 134, 135, 136, 137, 138, 139, 140, 141, 142, 143, 144, 145, 146, 147, 148, 149, 150, 151, 152, 153, 154, 155, 156, 157, 158, 159, 160, 161, 162, 163, 164],
      "LargestImagePixelValue": [2440, 2425, 2303, 2279, 2321, 2297, 2362, 2333, 2341, 2304, 2364, 2357, 2359, 2329, 2312, 2292, 2316, 2311, 2272, 2194, 2387, 2302, 2255, 2272, 2255, 2278, 2213, 2227, 2237, 2223, 2254, 2266, 2035, 2107, 2218, 2212, 2204, 2136, 2262, 2187, 2120, 2397, 2359, 2467, 2861, 2770, 2580, 2600, 2637, 2706, 2628, 2658, 2558, 2518, 2507, 2495, 2505, 2559, 2505, 2576, 2710, 2611, 2723, 2599, 2486, 2467, 2470, 2465, 2504, 2466, 2505, 2499, 2463, 2465, 2466, 2441, 2453, 2400, 2400, 2399, 2732, 2762, 2546, 2463, 2417, 2421, 2427, 2432, 2466, 2386, 2483, 2172, 2191, 2268, 2210, 2240, 2217, 2269, 2243, 2356, 2296, 2294, 2349, 2322, 2171, 2280, 2357, 2424, 2262, 2293, 2170, 2273, 2502, 2281, 2211, 2219, 2251, 2273, 2266, 2557, 2686, 2330, 2155, 2117, 2170, 2140, 2184, 2142, 2180, 2199, 2410, 2247, 2208, 2136, 2188, 2129, 2159, 2321, 2273, 2255, 2264, 2277, 2254, 2200, 2104, 2370, 2211, 2132, 2089, 2095, 2255, 2459, 2368, 2471, 2417, 2509, 2335, 2241, 2214, 2210, 2244, 2263, 2291, 2249],
      "WindowCenter": [687.0, 686.0, 683.0, 685.0, 684.0, 684.0, 685.0, 686.0, 686.0, 686.0, 687.0, 687.0, 687.0, 686.0, 687.0, 686.0, 686.0, 686.0, 686.0, 672.0, 676.0, 683.0, 681.0, 682.0, 676.0, 673.0, 668.0, 679.0, 678.0, 676.0, 674.0, 671.0, 654.0, 654.0, 655.0, 674.0, 677.0, 675.0, 680.0, 680.0, 678.0, 682.0, 677.0, 673.0, 685.0, 688.0, 686.0, 686.0, 687.0, 679.0, 688.0, 687.0, 687.0, 688.0, 689.0, 689.0, 688.0, 688.0, 687.0, 685.0, 686.0, 686.0, 687.0, 686.0, 686.0, 686.0, 686.0, 686.0, 687.0, 686.0, 686.0, 686.0, 686.0, 685.0, 685.0, 685.0, 685.0, 686.0, 684.0, 681.0, 676.0, 682.0, 685.0, 684.0, 683.0, 682.0, 683.0, 682.0, 683.0, 682.0, 683.0, 654.0, 662.0, 676.0, 676.0, 676.0, 675.0, 675.0, 674.0, 662.0, 682.0, 679.0, 679.0, 677.0, 676.0, 660.0, 669.0, 680.0, 678.0, 677.0, 671.0, 674.0, 685.0, 686.0, 685.0, 686.0, 686.0, 686.0, 687.0, 672.0, 688.0, 678.0, 681.0, 679.0, 679.0, 678.0, 678.0, 681.0, 679.0, 683.0, 677.0, 685.0, 683.0, 672.0, 680.0, 665.0, 666.0, 667.0, 678.0, 677.0, 678.0, 677.0, 677.0, 661.0, 655.0, 680.0, 676.0, 675.0, 675.0, 676.0, 674.0, 672.0, 685.0, 688.0, 682.0, 653.0, 674.0, 674.0, 674.0, 676.0, 676.0, 677.0, 678.0, 678.0],
      "WindowWidth": [1467.0, 1463.0, 1457.0, 1461.0, 1457.0, 1458.0, 1461.0, 1464.0, 1464.0, 1464.0, 1465.0, 1466.0, 1466.0, 1464.0, 1465.0, 1464.0, 1464.0, 1464.0, 1463.0, 1429.0, 1441.0, 1457.0, 1451.0, 1454.0, 1438.0, 1432.0, 1419.0, 1445.0, 1443.0, 1437.0, 1431.0, 1424.0, 1385.0, 1382.0, 1386.0, 1434.0, 1440.0, 1437.0, 1449.0, 1449.0, 1444.0, 1453.0, 1441.0, 1432.0, 1466.0, 1472.0, 1464.0, 1464.0, 1467.0, 1448.0, 1470.0, 1468.0, 1466.0, 1468.0, 1471.0, 1471.0, 1471.0, 1469.0, 1467.0, 1462.0, 1463.0, 1464.0, 1465.0, 1464.0, 1464.0, 1463.0, 1464.0, 1464.0, 1466.0, 1463.0, 1464.0, 1462.0, 1463.0, 1461.0, 1461.0, 1461.0, 1462.0, 1462.0, 1459.0, 1450.0, 1444.0, 1456.0, 1463.0, 1458.0, 1455.0, 1453.0, 1454.0, 1453.0, 1456.0, 1454.0, 1456.0, 1386.0, 1404.0, 1438.0, 1436.0, 1437.0, 1435.0, 1434.0, 1432.0, 1404.0, 1454.0, 1446.0, 1445.0, 1441.0, 1438.0, 1400.0, 1420.0, 1447.0, 1441.0, 1441.0, 1426.0, 1434.0, 1464.0, 1464.0, 1462.0, 1463.0, 1464.0, 1464.0, 1465.0, 1430.0, 1466.0, 1442.0, 1451.0, 1446.0, 1446.0, 1445.0, 1443.0, 1450.0, 1446.0, 1456.0, 1442.0, 1460.0, 1455.0, 1430.0, 1447.0, 1411.0, 1411.0, 1416.0, 1441.0, 1440.0, 1441.0, 1440.0, 1441.0, 1403.0, 1388.0, 1446.0, 1437.0, 1435.0, 1435.0, 1438.0, 1432.0, 1432.0, 1463.0, 1471.0, 1456.0, 1386.0, 1432.0, 1432.0, 1433.0, 1436.0, 1438.0, 1441.0, 1442.0, 1442.0]
    },
    "slices": {}
  }
}