{
  "AcquisitionMatrixPE": 72,
  "AcquisitionNumber": 1,
  "AcquisitionTime": "17:41:50.395000",
  "BandwidthPerPixelPhaseEncode": 17.943,
  "BaseResolution": 96,
  "BodyPartExamined": "BRAIN",
  "CoilCombinationMethod": "Sum of Squares",
  "ConsistencyInfo": "N4_VE11C_LATEST_20160120",
  "ConversionSoftware": "dcm2niix",
  "ConversionSoftwareVersion": "v1.0.20211006",
  "DerivedVendorReportedEchoSpacing": 0.000552897,
  "DeviceSerialNumber": "166011",
  "EchoTime": 0.03,
  "EchoTrainLength": 58,
  "EffectiveEchoSpacing": 0.000580542,
  "FlipAngle": 62,
  "ImageOrientationPatientDICOM": [0.999471, 0.011738, 0.0303397, -0.00994337, 0.99823, -0.0586383],
  "ImageType": [
    "ORIGINAL",
    "PRIMARY",
    "M",
    "ND",
    "MOSAIC"
],
  "ImagingFrequency": 123.259,
  "InPlanePhaseEncodingDirectionDICOM": "COL",
  "InstitutionAddress": "West 130th Street 610,NY,NYC,US,10025",
  "InstitutionName": "MBBI",
  "MRAcquisitionType": "2D",
  "MagneticFieldStrength": 3,
  "Manufacturer": "Siemens",
  "ManufacturersModelName": "Prisma",
  "Modality": "MR",
  "MultibandAccelerationFactor": 3,
  "PartialFourier": 0.75,
  "PatientPosition": "HFS",
  "PercentPhaseFOV": 100,
  "PercentSampling": 75,
  "PhaseEncodingDirection": "j-",
  "PhaseEncodingSteps": 58,
  "PhaseOversampling": 0.05,
  "PhaseResolution": 0.75,
  "PixelBandwidth": 2265,
  "ProcedureStepDescription": "White^Word_recognition",
  "ProtocolName": "func_vwfate_run5",
  "PulseSequenceDetails": "%SiemensSeq%\\ep2d_bold",
  "ReceiveCoilActiveElements": "HC1-7",
  "ReceiveCoilName": "HeadNeck_64",
  "ReconMatrixPE": 96,
  "RefLinesPE": 40,
  "RepetitionTime": 1.5,
  "SAR": 0.0442008,
  "ScanOptions": "PFP\\FS",
  "ScanningSequence": "EP",
  "SequenceName": "*epfid2d1_72",
  "SequenceVariant": "SK\\OSP",
  "SeriesDescription": "func_vwfate_run5",
  "SeriesNumber": 14,
  "ShimSetting": [-1130, -1438, 695, 682, 11, -111, -28, -33],
  "SliceThickness": 2,
  "SliceTiming": [1.0775, 0, 0.74, 0.0675, 0.8075, 0.135, 0.875, 0.2025, 0.9425, 0.27, 1.01, 0.405, 1.145, 0.4725, 1.2125, 0.54, 1.28, 0.605, 1.345, 0.6725, 1.4125, 0.3375, 1.0775, 0, 0.74, 0.0675, 0.8075, 0.135, 0.875, 0.2025, 0.9425, 0.27, 1.01, 0.405, 1.145, 0.4725, 1.2125, 0.54, 1.28, 0.605, 1.345, 0.6725, 1.4125, 0.3375, 1.0775, 0, 0.74, 0.0675, 0.8075, 0.135, 0.875, 0.2025, 0.9425, 0.27, 1.01, 0.405, 1.145, 0.4725, 1.2125, 0.54, 1.28, 0.605, 1.345, 0.6725, 1.4125, 0.3375],
  "SoftwareVersions": "syngo MR E11",
  "SpacingBetweenSlices": 2,
  "StationName": "AWP166011",
  "TaskName": "vwfate",
  "TotalReadoutTime": 0.0551515,
  "TxRefAmp": 217.873,
  "dcmmeta_affine": [
    [-1.998941421508789, -0.019886748865246773, 0.06194858253002167, 93.40015411376953],
    [-0.02347591705620289, 1.9964596033096313, -0.11661109328269958, -56.65166091918945],
    [0.06067941337823868, 0.11727652698755264, 1.995636224746704, -69.88821411132812],
    [0.0, 0.0, 0.0, 1.0]
],
  "dcmmeta_reorient_transform": [
    [0.0, -1.0, 0.0, 95.0],
    [1.0, 0.0, 0.0, 0.0],
    [0.0, 0.0, 1.0, 0.0],
    [0.0, 0.0, 0.0, 1.0]
],
  "dcmmeta_shape": [96, 96, 66, 164],
  "dcmmeta_slice_dim": 2,
  "dcmmeta_version": 0.6,
  "global": {
    "const": {
      "AcquisitionMatrix": [96, 0, 0, 72],
      "AngioFlag": "N",
      "BitsAllocated": 16,
      "BitsStored": 12,
      "BodyPartExamined": "BRAIN",
      "Columns": 864,
      "EchoNumbers": 1,
      "EchoTime": 30.0,
      "EchoTrainLength": 58,
      "FlipAngle": 62.0,
      "HighBit": 11,
      "ImageOrientationPatient": [0.99947072121689, 0.01173795837567, 0.03033970605254, -0.0099433746797, 0.99822977481715, -0.0586382636892],
      "ImagePositionPatient": [-851.46791378131, -908.66721715121, -37.013650175351],
      "ImageType": [
        "ORIGINAL",
        "PRIMARY",
        "M",
        "ND",
        "MOSAIC"
],
      "ImagedNucleus": "1H",
      "ImagingFrequency": 123.259486,
      "InPlanePhaseEncodingDirection": "COL",
      "MRAcquisitionType": "2D",
      "MagneticFieldStrength": 3.0,
      "Manufacturer": "SIEMENS",
      "ManufacturerModelName": "Prisma",
      "Modality": "MR",
      "NumberOfAverages": 1.0,
      "NumberOfPhaseEncodingSteps": 58,
      "PercentPhaseFieldOfView": 100.0,
      "PercentSampling": 75.0,
      "PerformedProcedureStepStartTime": "162933.940000",
      "PhotometricInterpretation": "MONOCHROME2",
      "PixelBandwidth": 2265.0,
      "PixelRepresentation": 0,
      "PixelSpacing": [2.0, 2.0],
      "ProtocolName": "func_vwfate_run5",
      "RepetitionTime": 1500.0,
      "Rows": 864,
      "SAR": 0.0442008218925,
      "SamplesPerPixel": 1,
      "ScanOptions": [
        "PFP",
        "FS"
],
      "ScanningSequence": "EP",
      "SequenceName": "*epfid2d1_72",
      "SequenceVariant": [
        "SK",
        "OSP"
],
      "SeriesDescription": "func_vwfate_run5",
      "SeriesNumber": 14,
      "SeriesTime": "174225.162000",
      "SliceLocation": -63.539617175126,
      "SliceThickness": 2.0,
      "SmallestImagePixelValue": 0,
      "SoftwareVersions": "syngo MR E11",
      "SpacingBetweenSlices": 1.9999999842651,
      "SpecificCharacterSet": "ISO_IR 100",
      "StudyID": "1",
      "StudyTime": "162933.872000",
      "TransmitCoilName": "Body",
      "VariableFlipAngleFlag": "N",
      "WindowCenterWidthExplanation": "Algo1",
      "dBdt": 0.0},
    "slices": {}
  },
  "time": {
    "samples": {
      "AcquisitionNumber": [1, 2, 3, 4, 5, 6, 7, 8, 9, 10, 11, 12, 13, 14, 15, 16, 17, 18, 19, 20, 21, 22, 23, 24, 25, 26, 27, 28, 29, 30, 31, 32, 33, 34, 35, 36, 37, 38, 39, 40, 41, 42, 43, 44, 45, 46, 47, 48, 49, 50, 51, 52, 53, 54, 55, 56, 57, 58, 59, 60, 61, 62, 63, 64, 65, 66, 67, 68, 69, 70, 71, 72, 73, 74, 75, 76, 77, 78, 79, 80, 81, 82, 83, 84, 85, 86, 87, 88, 89, 90, 91, 92, 93, 94, 95, 96, 97, 98, 99, 100, 101, 102, 103, 104, 105, 106, 107, 108, 109, 110, 111, 112, 113, 114, 115, 116, 117, 118, 119, 120, 121, 122, 123, 124, 125, 126, 127, 128, 129, 130, 131, 132, 133, 134, 135, 136, 137, 138, 139, 140, 141, 142, 143, 144, 145, 146, 147, 148, 149, 150, 151, 152, 153, 154, 155, 156, 157, 158, 159, 160, 161, 162, 163, 164],
      "AcquisitionTime": ["174150.395000", "174151.895000", "174153.395000", "174154.895000", "174156.395000", "174157.895000", "174159.395000", "174200.895000", "174202.395000", "174203.895000", "174205.395000", "174206.895000", "174208.395000", "174209.895000", "174211.395000", "174212.895000", "174214.395000", "174215.895000", "174217.395000", "174218.895000", "174220.395000", "174221.895000", "174223.395000", "174224.895000", "174226.395000", "174227.895000", "174229.395000", "174230.895000", "174232.395000", "174233.895000", "174235.395000", "174236.895000", "174238.395000", "174239.895000", "174241.395000", "174242.895000", "174244.395000", "174245.895000", "174247.395000", "174248.895000", "174250.395000", "174251.895000", "174253.395000", "174254.895000", "174256.395000", "174257.895000", "174259.395000", "174300.895000", "174302.395000", "174303.895000", "174305.395000", "174306.895000", "174308.395000", "174309.895000", "174311.395000", "174312.895000", "174314.395000", "174315.895000", "174317.395000", "174318.895000", "174320.395000", "174321.895000", "174323.395000", "174324.895000", "174326.395000", "174327.895000", "174329.395000", "174330.895000", "174332.395000", "174333.895000", "174335.395000", "174336.895000", "174338.395000", "174339.895000", "174341.395000", "174342.895000", "174344.395000", "174345.895000", "174347.395000", "174348.895000", "174350.395000", "174351.895000", "174353.395000", "174354.895000", "174356.395000", "174357.895000", "174359.395000", "174400.895000", "174402.395000", "174403.895000", "174405.395000", "174406.895000", "174408.395000", "174409.895000", "174411.395000", "174412.895000", "174414.395000", "174415.895000", "174417.395000", "174418.895000", "174420.395000", "174421.895000", "174423.395000", "174424.895000", "174426.395000", "174427.895000", "174429.395000", "174430.895000", "174432.395000", "174433.895000", "174435.395000", "174436.895000", "174438.395000", "174439.895000", "174441.395000", "174442.895000", "174444.395000", "174445.895000", "174447.395000", "174448.895000", "174450.395000", "174451.895000", "174453.395000", "174454.895000", "174456.395000", "174457.895000", "174459.395000", "174500.895000", "174502.395000", "174503.895000", "174505.395000", "174506.895000", "174508.395000", "174509.895000", "174511.395000", "174512.895000", "174514.395000", "174515.895000", "174517.395000", "174518.895000", "174520.395000", "174521.895000", "174523.395000", "174524.895000", "174526.395000", "174527.895000", "174529.395000", "174530.895000", "174532.395000", "174533.895000", "174535.395000", "174536.895000", "174538.395000", "174539.895000", "174541.395000", "174542.895000", "174544.395000", "174545.895000", "174547.395000", "174548.895000", "174550.395000", "174551.895000", "174553.395000", "174554.895000"],
      "ContentTime": ["174225.166000", "174225.170000", "174225.173000", "174225.176000", "174225.179000", "174225.182000", "174225.185000", "174225.188000", "174225.192000", "174225.195000", "174225.200000", "174225.207000", "174225.210000", "174225.213000", "174225.222000", "174225.225000", "174225.228000", "174225.231000", "174225.234000", "174225.237000", "174225.241000", "174225.244000", "174225.246000", "174305.160000", "174305.163000", "174305.166000", "174305.169000", "174305.172000", "174305.175000", "174305.178000", "174305.181000", "174305.184000", "174305.187000", "174305.190000", "174305.193000", "174305.196000", "174305.199000", "174305.202000", "174305.205000", "174305.208000", "174305.211000", "174305.214000", "174305.217000", "174305.220000", "174305.224000", "174305.227000", "174305.229000", "174305.232000", "174305.235000", "174305.238000", "174345.161000", "174345.164000", "174345.167000", "174345.170000", "174345.173000", "174345.176000", "174345.179000", "174345.182000", "174345.185000", "174345.188000", "174345.191000", "174345.194000", "174345.197000", "174345.200000", "174345.203000", "174345.206000", "174345.209000", "174345.212000", "174345.215000", "174345.227000", "174345.230000", "174345.233000", "174345.236000", "174345.239000", "174345.242000", "174345.245000", "174425.161000", "174425.164000", "174425.167000", "174425.170000", "174425.173000", "174425.176000", "174425.179000", "174425.182000", "174425.185000", "174425.188000", "174425.191000", "174425.194000", "174425.197000", "174425.200000", "174425.203000", "174425.206000", "174425.209000", "174425.212000", "174425.215000", "174425.218000", "174425.221000", "174425.224000", "174425.227000", "174425.230000", "174425.233000", "174425.236000", "174425.239000", "174505.161000", "174505.164000", "174505.167000", "174505.170000", "174505.173000", "174505.176000", "174505.179000", "174505.182000", "174505.185000", "174505.188000", "174505.191000", "174505.194000", "174505.197000", "174505.200000", "174505.203000", "174505.206000", "174505.209000", "174505.212000", "174505.215000", "174505.218000", "174505.221000", "174505.224000", "174505.227000", "174505.230000", "174505.242000", "174505.245000", "174505.248000", "174545.160000", "174545.163000", "174545.166000", "174545.169000", "174545.172000", "174545.175000", "174545.178000", "174545.181000", "174545.184000", "174545.187000", "174545.190000", "174545.193000", "174545.196000", "174545.199000", "174545.202000", "174545.205000", "174545.208000", "174545.211000", "174545.214000", "174545.229000", "174545.233000", "174545.236000", "174545.239000", "174545.241000", "174545.244000", "174545.247000", "174556.090000", "174556.094000", "174556.097000", "174556.100000", "174556.104000", "174556.107000", "174556.110000", "174556.113000"],
      "InstanceCreationTime": ["174225.166000", "174225.170000", "174225.173000", "174225.176000", "174225.179000", "174225.182000", "174225.185000", "174225.188000", "174225.192000", "174225.195000", "174225.200000", "174225.207000", "174225.210000", "174225.213000", "174225.222000", "174225.225000", "174225.228000", "174225.231000", "174225.234000", "174225.237000", "174225.241000", "174225.244000", "174225.246000", "174305.160000", "174305.163000", "174305.166000", "174305.169000", "174305.172000", "174305.175000", "174305.178000", "174305.181000", "174305.184000", "174305.187000", "174305.190000", "174305.193000", "174305.196000", "174305.199000", "174305.202000", "174305.205000", "174305.208000", "174305.211000", "174305.214000", "174305.217000", "174305.220000", "174305.224000", "174305.227000", "174305.229000", "174305.232000", "174305.235000", "174305.238000", "174345.161000", "174345.164000", "174345.167000", "174345.170000", "174345.173000", "174345.176000", "174345.179000", "174345.182000", "174345.185000", "174345.188000", "174345.191000", "174345.194000", "174345.197000", "174345.200000", "174345.203000", "174345.206000", "174345.209000", "174345.212000", "174345.215000", "174345.227000", "174345.230000", "174345.233000", "174345.236000", "174345.239000", "174345.242000", "174345.245000", "174425.161000", "174425.164000", "174425.167000", "174425.170000", "174425.173000", "174425.176000", "174425.179000", "174425.182000", "174425.185000", "174425.188000", "174425.191000", "174425.194000", "174425.197000", "174425.200000", "174425.203000", "174425.206000", "174425.209000", "174425.212000", "174425.215000", "174425.218000", "174425.221000", "174425.224000", "174425.227000", "174425.230000", "174425.233000", "174425.236000", "174425.239000", "174505.161000", "174505.164000", "174505.167000", "174505.170000", "174505.173000", "174505.176000", "174505.179000", "174505.182000", "174505.185000", "174505.188000", "174505.191000", "174505.194000", "174505.197000", "174505.200000", "174505.203000", "174505.206000", "174505.209000", "174505.212000", "174505.215000", "174505.218000", "174505.221000", "174505.224000", "174505.227000", "174505.230000", "174505.242000", "174505.245000", "174505.248000", "174545.160000", "174545.163000", "174545.166000", "174545.169000", "174545.172000", "174545.175000", "174545.178000", "174545.181000", "174545.184000", "174545.187000", "174545.190000", "174545.193000", "174545.196000", "174545.199000", "174545.202000", "174545.205000", "174545.208000", "174545.211000", "174545.214000", "174545.229000", "174545.233000", "174545.236000", "174545.239000", "174545.241000", "174545.244000", "174545.247000", "174556.090000", "174556.094000", "174556.097000", "174556.100000", "174556.104000", "174556.107000", "174556.110000", "174556.113000"],
      "InstanceNumber": [1, 2, 3, 4, 5, 6, 7, 8, 9, 10, 11, 12, 13, 14, 15, 16, 17, 18, 19, 20, 21, 22, 23, 24, 25, 26, 27, 28, 29, 30, 31, 32, 33, 34, 35, 36, 37, 38, 39, 40, 41, 42, 43, 44, 45, 46, 47, 48, 49, 50, 51, 52, 53, 54, 55, 56, 57, 58, 59, 60, 61, 62, 63, 64, 65, 66, 67, 68, 69, 70, 71, 72, 73, 74, 75, 76, 77, 78, 79, 80, 81, 82, 83, 84, 85, 86, 87, 88, 89, 90, 91, 92, 93, 94, 95, 96, 97, 98, 99, 100, 101, 102, 103, 104, 105, 106, 107, 108, 109, 110, 111, 112, 113, 114, 115, 116, 117, 118, 119, 120, 121, 122, 123, 124, 125, 126, 127, 128, 129, 130, 131, 132, 133, 134, 135, 136, 137, 138, 139, 140, 141, 142, 143, 144, 145, 146, 147, 148, 149, 150, 151, 152, 153, 154, 155, 156, 157, 158, 159, 160, 161, 162, 163, 164],
      "LargestImagePixelValue": [2165, 2122, 2769, 2767, 2541, 2441, 2502, 2353, 2377, 2405, 2361, 2377, 2405, 2407, 2285, 2329, 2304, 2313, 2268, 2182, 2221, 1974, 2600, 2317, 2240, 2234, 2246, 2264, 2229, 2245, 2246, 2251, 2242, 2257, 2261, 2289, 2235, 2172, 2295, 2448, 2619, 2446, 2442, 2347, 2358, 2425, 2365, 2455, 2319, 2398, 2387, 2406, 2372, 2403, 2381, 2196, 2370, 2326, 2317, 2327, 2331, 2320, 2336, 2351, 2349, 2377, 2361, 2420, 2357, 2202, 2203, 2149, 2162, 1999, 2348, 2331, 2193, 2349, 2297, 2369, 2308, 2266, 2077, 2392, 2283, 2157, 2637, 2442, 2306, 2166, 2396, 2159, 2303, 2244, 2174, 2152, 2182, 2161, 2164, 2177, 2176, 2197, 2215, 2206, 2169, 2177, 2061, 2303, 2191, 2176, 2193, 2171, 2254, 2166, 2138, 2113, 2121, 2193, 2103, 2089, 2127, 2074, 2228, 2360, 2477, 2348, 2407, 2499, 2516, 2222, 2423, 2076, 2570, 2482, 2338, 2269, 2207, 2227, 2238, 2262, 2237, 2081, 2143, 2027, 2335, 2210, 2170, 2159, 2156, 2158, 2147, 2175, 2177, 2190, 2162, 2163, 2183, 2205, 2018, 1910, 2151, 2198, 2107, 2081],
      "WindowCenter": [673.0, 665.0, 690.0, 686.0, 688.0, 686.0, 690.0, 687.0, 686.0, 684.0, 683.0, 681.0, 680.0, 679.0, 679.0, 678.0, 678.0, 674.0, 678.0, 676.0, 676.0, 658.0, 677.0, 677.0, 677.0, 679.0, 678.0, 678.0, 677.0, 678.0, 679.0, 679.0, 681.0, 681.0, 681.0, 682.0, 682.0, 667.0, 668.0, 679.0, 687.0, 685.0, 684.0, 684.0, 684.0, 685.0, 684.0, 683.0, 683.0, 685.0, 684.0, 686.0, 685.0, 686.0, 685.0, 684.0, 685.0, 685.0, 685.0, 685.0, 685.0, 686.0, 686.0, 686.0, 686.0, 687.0, 686.0, 685.0, 686.0, 664.0, 683.0, 681.0, 680.0, 661.0, 665.0, 681.0, 676.0, 683.0, 683.0, 683.0, 683.0, 682.0, 669.0, 683.0, 682.0, 662.0, 683.0, 682.0, 682.0, 674.0, 674.0, 673.0, 683.0, 683.0, 683.0, 682.0, 682.0, 681.0, 682.0, 682.0, 682.0, 683.0, 683.0, 683.0, 682.0, 681.0, 677.0, 679.0, 682.0, 681.0, 673.0, 681.0, 681.0, 680.0, 680.0, 679.0, 680.0, 681.0, 680.0, 675.0, 681.0, 678.0, 661.0, 682.0, 690.0, 692.0, 689.0, 688.0, 690.0, 681.0, 670.0, 667.0, 678.0, 681.0, 679.0, 679.0, 678.0, 680.0, 680.0, 679.0, 679.0, 673.0, 668.0, 673.0, 679.0, 678.0, 679.0, 678.0, 678.0, 679.0, 679.0, 678.0, 677.0, 676.0, 675.0, 676.0, 676.0, 677.0, 665.0, 659.0, 673.0, 678.0, 676.0, 676.0],
      "WindowWidth": [1428.0, 1411.0, 1476.0, 1469.0, 1470.0, 1465.0, 1474.0, 1467.0, 1464.0, 1459.0, 1456.0, 1450.0, 1447.0, 1444.0, 1444.0, 1443.0, 1444.0, 1433.0, 1442.0, 1438.0, 1438.0, 1396.0, 1439.0, 1439.0, 1439.0, 1444.0, 1442.0, 1441.0, 1441.0, 1442.0, 1444.0, 1446.0, 1450.0, 1449.0, 1450.0, 1453.0, 1452.0, 1416.0, 1418.0, 1447.0, 1466.0, 1461.0, 1459.0, 1459.0, 1459.0, 1459.0, 1458.0, 1455.0, 1456.0, 1460.0, 1458.0, 1461.0, 1460.0, 1461.0, 1460.0, 1458.0, 1460.0, 1459.0, 1459.0, 1460.0, 1461.0, 1462.0, 1463.0, 1463.0, 1463.0, 1464.0, 1462.0, 1461.0, 1462.0, 1409.0, 1455.0, 1450.0, 1448.0, 1400.0, 1411.0, 1449.0, 1439.0, 1455.0, 1454.0, 1455.0, 1455.0, 1451.0, 1419.0, 1454.0, 1451.0, 1405.0, 1454.0, 1451.0, 1451.0, 1433.0, 1435.0, 1431.0, 1455.0, 1455.0, 1453.0, 1451.0, 1451.0, 1450.0, 1452.0, 1453.0, 1453.0, 1454.0, 1455.0, 1454.0, 1452.0, 1449.0, 1440.0, 1444.0, 1451.0, 1450.0, 1429.0, 1448.0, 1449.0, 1447.0, 1446.0, 1445.0, 1446.0, 1448.0, 1446.0, 1434.0, 1448.0, 1442.0, 1401.0, 1454.0, 1473.0, 1478.0, 1471.0, 1470.0, 1473.0, 1450.0, 1424.0, 1416.0, 1442.0, 1449.0, 1445.0, 1443.0, 1441.0, 1445.0, 1446.0, 1444.0, 1443.0, 1430.0, 1419.0, 1429.0, 1445.0, 1443.0, 1444.0, 1441.0, 1441.0, 1444.0, 1443.0, 1441.0, 1438.0, 1436.0, 1435.0, 1436.0, 1437.0, 1439.0, 1410.0, 1396.0, 1429.0, 1440.0, 1436.0, 1436.0]
    },
    "slices": {}
  }
}