{
  "AcquisitionMatrixPE": 72,
  "AcquisitionNumber": 1,
  "AcquisitionTime": "17:11:44.170000",
  "BandwidthPerPixelPhaseEncode": 17.943,
  "BaseResolution": 96,
  "BodyPartExamined": "BRAIN",
  "CoilCombinationMethod": "Sum of Squares",
  "ConsistencyInfo": "N4_VE11C_LATEST_20160120",
  "ConversionSoftware": "dcm2niix",
  "ConversionSoftwareVersion": "v1.0.20211006",
  "DerivedVendorReportedEchoSpacing": 0.000552897,
  "DeviceSerialNumber": "166011",
  "EchoTime": 0.03,
  "EchoTrainLength": 58,
  "EffectiveEchoSpacing": 0.000580542,
  "FlipAngle": 62,
  "ImageOrientationPatientDICOM": [0.997987, 0.0613091, 0.0162327, -0.0599905, 0.995596, -0.0720356],
  "ImageType": [
    "ORIGINAL",
    "PRIMARY",
    "M",
    "ND",
    "MOSAIC"
],
  "ImagingFrequency": 123.259,
  "InPlanePhaseEncodingDirectionDICOM": "COL",
  "InstitutionAddress": "West 130th Street 610,NY,NYC,US,10025",
  "InstitutionName": "MBBI",
  "MRAcquisitionType": "2D",
  "MagneticFieldStrength": 3,
  "Manufacturer": "Siemens",
  "ManufacturersModelName": "Prisma",
  "Modality": "MR",
  "MultibandAccelerationFactor": 3,
  "PartialFourier": 0.75,
  "PatientPosition": "HFS",
  "PercentPhaseFOV": 100,
  "PercentSampling": 75,
  "PhaseEncodingDirection": "j-",
  "PhaseEncodingSteps": 58,
  "PhaseOversampling": 0.05,
  "PhaseResolution": 0.75,
  "PixelBandwidth": 2265,
  "ProcedureStepDescription": "White^Word_recognition",
  "ProtocolName": "func_vwfate_run13",
  "PulseSequenceDetails": "%SiemensSeq%\\ep2d_bold",
  "ReceiveCoilActiveElements": "HC1-7",
  "ReceiveCoilName": "HeadNeck_64",
  "ReconMatrixPE": 96,
  "RefLinesPE": 40,
  "RepetitionTime": 1.5,
  "SAR": 0.0418364,
  "ScanOptions": "PFP\\FS",
  "ScanningSequence": "EP",
  "SequenceName": "*epfid2d1_72",
  "SequenceVariant": "SK\\OSP",
  "SeriesDescription": "func_vwfate_run13",
  "SeriesNumber": 8,
  "ShimSetting": [-1131, -1356, 701, 709, -53, -48, -13, 4],
  "SliceThickness": 2,
  "SliceTiming": [1.0775, 0, 0.74, 0.0675, 0.8075, 0.135, 0.875, 0.2025, 0.9425, 0.27, 1.01, 0.405, 1.145, 0.4725, 1.2125, 0.54, 1.28, 0.6075, 1.3475, 0.675, 1.4125, 0.3375, 1.0775, 0, 0.74, 0.0675, 0.8075, 0.135, 0.875, 0.2025, 0.9425, 0.27, 1.01, 0.405, 1.145, 0.4725, 1.2125, 0.54, 1.28, 0.6075, 1.3475, 0.675, 1.4125, 0.3375, 1.0775, 0, 0.74, 0.0675, 0.8075, 0.135, 0.875, 0.2025, 0.9425, 0.27, 1.01, 0.405, 1.145, 0.4725, 1.2125, 0.54, 1.28, 0.6075, 1.3475, 0.675, 1.4125, 0.3375],
  "SoftwareVersions": "syngo MR E11",
  "SpacingBetweenSlices": 2,
  "StationName": "AWP166011",
  "TaskName": "vwfate",
  "TotalReadoutTime": 0.0551515,
  "TxRefAmp": 214.028,
  "dcmmeta_affine": [
    [-1.9959735870361328, -0.11998108774423599, 0.04115527868270874, 100.94961547851562],
    [-0.1226181834936142, 1.9911925792694092, -0.14183363318443298, -60.2267951965332],
    [0.0324653685092926, 0.1440712809562683, 1.9945399761199951, -55.23643493652344],
    [0.0, 0.0, 0.0, 1.0]
],
  "dcmmeta_reorient_transform": [
    [0.0, -1.0, 0.0, 95.0],
    [1.0, 0.0, 0.0, 0.0],
    [0.0, 0.0, 1.0, 0.0],
    [0.0, 0.0, 0.0, 1.0]
],
  "dcmmeta_shape": [96, 96, 66, 164],
  "dcmmeta_slice_dim": 2,
  "dcmmeta_version": 0.6,
  "global": {
    "const": {
      "AcquisitionMatrix": [96, 0, 0, 72],
      "AngioFlag": "N",
      "BitsAllocated": 16,
      "BitsStored": 12,
      "BodyPartExamined": "BRAIN",
      "Columns": 864,
      "EchoNumbers": 1,
      "EchoTime": 30.0,
      "EchoTrainLength": 58,
      "FlipAngle": 62.0,
      "HighBit": 11,
      "ImageOrientationPatient": [0.99798682127951, 0.06130909007303, 0.01623268390715, -0.0599905433265, 0.99559630407282, -0.0720356441488],
      "ImagePositionPatient": [-809.93255146296, -940.63984376345, 1.3070117381782],
      "ImageType": [
        "ORIGINAL",
        "PRIMARY",
        "M",
        "ND",
        "MOSAIC"
],
      "ImagedNucleus": "1H",
      "ImagingFrequency": 123.25941,
      "InPlanePhaseEncodingDirection": "COL",
      "MRAcquisitionType": "2D",
      "MagneticFieldStrength": 3.0,
      "Manufacturer": "SIEMENS",
      "ManufacturerModelName": "Prisma",
      "Modality": "MR",
      "NumberOfAverages": 1.0,
      "NumberOfPhaseEncodingSteps": 58,
      "PercentPhaseFieldOfView": 100.0,
      "PercentSampling": 75.0,
      "PerformedProcedureStepStartTime": "165018.272000",
      "PhotometricInterpretation": "MONOCHROME2",
      "PixelBandwidth": 2265.0,
      "PixelRepresentation": 0,
      "PixelSpacing": [2.0, 2.0],
      "ProtocolName": "func_vwfate_run13",
      "RepetitionTime": 1500.0,
      "Rows": 864,
      "SAR": 0.04183638934379,
      "SamplesPerPixel": 1,
      "ScanOptions": [
        "PFP",
        "FS"
],
      "ScanningSequence": "EP",
      "SequenceName": "*epfid2d1_72",
      "SequenceVariant": [
        "SK",
        "OSP"
],
      "SeriesDescription": "func_vwfate_run13",
      "SeriesNumber": 8,
      "SeriesTime": "171229.578000",
      "SliceLocation": -48.737238792968,
      "SliceThickness": 2.0,
      "SmallestImagePixelValue": 0,
      "SoftwareVersions": "syngo MR E11",
      "SpacingBetweenSlices": 2.0000000214904,
      "SpecificCharacterSet": "ISO_IR 100",
      "StudyID": "3",
      "StudyTime": "165018.224000",
      "TransmitCoilName": "Body",
      "VariableFlipAngleFlag": "N",
      "WindowCenterWidthExplanation": "Algo1",
      "dBdt": 0.0},
    "slices": {}
  },
  "time": {
    "samples": {
      "AcquisitionNumber": [1, 2, 3, 4, 5, 6, 7, 8, 9, 10, 11, 12, 13, 14, 15, 16, 17, 18, 19, 20, 21, 22, 23, 24, 25, 26, 27, 28, 29, 30, 31, 32, 33, 34, 35, 36, 37, 38, 39, 40, 41, 42, 43, 44, 45, 46, 47, 48, 49, 50, 51, 52, 53, 54, 55, 56, 57, 58, 59, 60, 61, 62, 63, 64, 65, 66, 67, 68, 69, 70, 71, 72, 73, 74, 75, 76, 77, 78, 79, 80, 81, 82, 83, 84, 85, 86, 87, 88, 89, 90, 91, 92, 93, 94, 95, 96, 97, 98, 99, 100, 101, 102, 103, 104, 105, 106, 107, 108, 109, 110, 111, 112, 113, 114, 115, 116, 117, 118, 119, 120, 121, 122, 123, 124, 125, 126, 127, 128, 129, 130, 131, 132, 133, 134, 135, 136, 137, 138, 139, 140, 141, 142, 143, 144, 145, 146, 147, 148, 149, 150, 151, 152, 153, 154, 155, 156, 157, 158, 159, 160, 161, 162, 163, 164],
      "AcquisitionTime": ["171144.170000", "171145.670000", "171147.170000", "171148.670000", "171150.170000", "171151.670000", "171153.170000", "171154.670000", "171156.170000", "171157.670000", "171159.170000", "171200.670000", "171202.170000", "171203.670000", "171205.170000", "171206.670000", "171208.170000", "171209.670000", "171211.170000", "171212.670000", "171214.170000", "171215.670000", "171217.170000", "171218.670000", "171220.170000", "171221.670000", "171223.170000", "171224.670000", "171226.170000", "171227.670000", "171229.170000", "171230.670000", "171232.170000", "171233.670000", "171235.170000", "171236.670000", "171238.170000", "171239.670000", "171241.170000", "171242.670000", "171244.170000", "171245.670000", "171247.170000", "171248.670000", "171250.170000", "171251.670000", "171253.170000", "171254.670000", "171256.170000", "171257.670000", "171259.170000", "171300.670000", "171302.170000", "171303.670000", "171305.170000", "171306.670000", "171308.170000", "171309.670000", "171311.170000", "171312.670000", "171314.170000", "171315.670000", "171317.170000", "171318.670000", "171320.170000", "171321.670000", "171323.170000", "171324.670000", "171326.170000", "171327.670000", "171329.170000", "171330.670000", "171332.170000", "171333.670000", "171335.170000", "171336.670000", "171338.170000", "171339.670000", "171341.170000", "171342.670000", "171344.170000", "171345.670000", "171347.170000", "171348.670000", "171350.170000", "171351.670000", "171353.170000", "171354.670000", "171356.170000", "171357.670000", "171359.170000", "171400.670000", "171402.170000", "171403.670000", "171405.170000", "171406.670000", "171408.170000", "171409.670000", "171411.170000", "171412.670000", "171414.170000", "171415.670000", "171417.170000", "171418.670000", "171420.170000", "171421.670000", "171423.170000", "171424.670000", "171426.170000", "171427.670000", "171429.170000", "171430.670000", "171432.170000", "171433.670000", "171435.170000", "171436.670000", "171438.170000", "171439.670000", "171441.170000", "171442.670000", "171444.170000", "171445.670000", "171447.170000", "171448.670000", "171450.170000", "171451.670000", "171453.170000", "171454.670000", "171456.170000", "171457.670000", "171459.170000", "171500.670000", "171502.170000", "171503.670000", "171505.170000", "171506.670000", "171508.170000", "171509.670000", "171511.170000", "171512.670000", "171514.170000", "171515.670000", "171517.170000", "171518.670000", "171520.170000", "171521.670000", "171523.170000", "171524.670000", "171526.170000", "171527.670000", "171529.170000", "171530.670000", "171532.170000", "171533.670000", "171535.170000", "171536.670000", "171538.170000", "171539.670000", "171541.170000", "171542.670000", "171544.170000", "171545.670000", "171547.170000", "171548.670000"],
      "ContentTime": ["171229.582000", "171229.586000", "171229.589000", "171229.592000", "171229.595000", "171229.598000", "171229.601000", "171229.606000", "171229.609000", "171229.612000", "171229.615000", "171229.618000", "171229.621000", "171229.624000", "171229.627000", "171229.630000", "171229.633000", "171229.636000", "171229.639000", "171229.642000", "171229.647000", "171229.650000", "171229.653000", "171229.656000", "171229.659000", "171229.662000", "171229.665000", "171229.668000", "171229.671000", "171229.674000", "171309.577000", "171309.580000", "171309.584000", "171309.587000", "171309.590000", "171309.593000", "171309.596000", "171309.599000", "171309.602000", "171309.605000", "171309.608000", "171309.611000", "171309.614000", "171309.617000", "171309.620000", "171309.630000", "171309.633000", "171309.636000", "171309.639000", "171309.642000", "171309.645000", "171309.648000", "171309.651000", "171309.654000", "171309.657000", "171309.660000", "171349.577000", "171349.580000", "171349.584000", "171349.587000", "171349.590000", "171349.593000", "171349.596000", "171349.599000", "171349.602000", "171349.605000", "171349.608000", "171349.611000", "171349.614000", "171349.617000", "171349.620000", "171349.623000", "171349.626000", "171349.643000", "171349.646000", "171349.649000", "171349.652000", "171349.655000", "171349.658000", "171349.661000", "171349.664000", "171349.667000", "171349.670000", "171429.577000", "171429.580000", "171429.583000", "171429.587000", "171429.590000", "171429.593000", "171429.596000", "171429.599000", "171429.602000", "171429.605000", "171429.608000", "171429.611000", "171429.614000", "171429.617000", "171429.620000", "171429.623000", "171429.626000", "171429.629000", "171429.632000", "171429.635000", "171429.638000", "171429.641000", "171429.644000", "171429.647000", "171429.650000", "171429.653000", "171429.656000", "171509.577000", "171509.581000", "171509.585000", "171509.588000", "171509.591000", "171509.594000", "171509.597000", "171509.600000", "171509.603000", "171509.606000", "171509.609000", "171509.612000", "171509.615000", "171509.618000", "171509.621000", "171509.624000", "171509.627000", "171509.630000", "171509.633000", "171509.636000", "171509.639000", "171509.653000", "171509.656000", "171509.659000", "171509.662000", "171509.665000", "171549.577000", "171549.580000", "171549.584000", "171549.587000", "171549.590000", "171549.593000", "171549.596000", "171549.599000", "171549.602000", "171549.605000", "171549.609000", "171549.612000", "171549.615000", "171549.617000", "171549.621000", "171549.624000", "171549.627000", "171549.630000", "171549.633000", "171549.636000", "171549.639000", "171549.642000", "171549.645000", "171549.648000", "171549.651000", "171549.654000", "171549.657000", "171550.292000"],
      "InstanceCreationTime": ["171229.582000", "171229.586000", "171229.589000", "171229.592000", "171229.595000", "171229.598000", "171229.601000", "171229.606000", "171229.609000", "171229.612000", "171229.615000", "171229.618000", "171229.621000", "171229.624000", "171229.627000", "171229.630000", "171229.633000", "171229.636000", "171229.639000", "171229.642000", "171229.647000", "171229.650000", "171229.653000", "171229.656000", "171229.659000", "171229.662000", "171229.665000", "171229.668000", "171229.671000", "171229.674000", "171309.577000", "171309.580000", "171309.584000", "171309.587000", "171309.590000", "171309.593000", "171309.596000", "171309.599000", "171309.602000", "171309.605000", "171309.608000", "171309.611000", "171309.614000", "171309.617000", "171309.620000", "171309.630000", "171309.633000", "171309.636000", "171309.639000", "171309.642000", "171309.645000", "171309.648000", "171309.651000", "171309.654000", "171309.657000", "171309.660000", "171349.577000", "171349.580000", "171349.584000", "171349.587000", "171349.590000", "171349.593000", "171349.596000", "171349.599000", "171349.602000", "171349.605000", "171349.608000", "171349.611000", "171349.614000", "171349.617000", "171349.620000", "171349.623000", "171349.626000", "171349.643000", "171349.646000", "171349.649000", "171349.652000", "171349.655000", "171349.658000", "171349.661000", "171349.664000", "171349.667000", "171349.670000", "171429.577000", "171429.580000", "171429.583000", "171429.587000", "171429.590000", "171429.593000", "171429.596000", "171429.599000", "171429.602000", "171429.605000", "171429.608000", "171429.611000", "171429.614000", "171429.617000", "171429.620000", "171429.623000", "171429.626000", "171429.629000", "171429.632000", "171429.635000", "171429.638000", "171429.641000", "171429.644000", "171429.647000", "171429.650000", "171429.653000", "171429.656000", "171509.577000", "171509.581000", "171509.585000", "171509.588000", "171509.591000", "171509.594000", "171509.597000", "171509.600000", "171509.603000", "171509.606000", "171509.609000", "171509.612000", "171509.615000", "171509.618000", "171509.621000", "171509.624000", "171509.627000", "171509.630000", "171509.633000", "171509.636000", "171509.639000", "171509.653000", "171509.656000", "171509.659000", "171509.662000", "171509.665000", "171549.577000", "171549.580000", "171549.584000", "171549.587000", "171549.590000", "171549.593000", "171549.596000", "171549.599000", "171549.602000", "171549.605000", "171549.609000", "171549.612000", "171549.615000", "171549.617000", "171549.621000", "171549.624000", "171549.627000", "171549.630000", "171549.633000", "171549.636000", "171549.639000", "171549.642000", "171549.645000", "171549.648000", "171549.651000", "171549.654000", "171549.657000", "171550.292000"],
      "InstanceNumber": [1, 2, 3, 4, 5, 6, 7, 8, 9, 10, 11, 12, 13, 14, 15, 16, 17, 18, 19, 20, 21, 22, 23, 24, 25, 26, 27, 28, 29, 30, 31, 32, 33, 34, 35, 36, 37, 38, 39, 40, 41, 42, 43, 44, 45, 46, 47, 48, 49, 50, 51, 52, 53, 54, 55, 56, 57, 58, 59, 60, 61, 62, 63, 64, 65, 66, 67, 68, 69, 70, 71, 72, 73, 74, 75, 76, 77, 78, 79, 80, 81, 82, 83, 84, 85, 86, 87, 88, 89, 90, 91, 92, 93, 94, 95, 96, 97, 98, 99, 100, 101, 102, 103, 104, 105, 106, 107, 108, 109, 110, 111, 112, 113, 114, 115, 116, 117, 118, 119, 120, 121, 122, 123, 124, 125, 126, 127, 128, 129, 130, 131, 132, 133, 134, 135, 136, 137, 138, 139, 140, 141, 142, 143, 144, 145, 146, 147, 148, 149, 150, 151, 152, 153, 154, 155, 156, 157, 158, 159, 160, 161, 162, 163, 164],
      "LargestImagePixelValue": [2991, 2967, 2857, 2828, 2757, 2801, 2763, 2804, 3071, 2682, 2955, 2990, 2987, 2975, 2998, 3049, 2976, 2998, 2997, 2989, 3021, 3001, 3046, 2985, 2798, 2934, 2918, 2908, 2798, 2804, 2798, 2750, 2758, 3178, 2958, 2765, 2827, 2834, 2867, 2889, 2891, 2964, 2895, 2891, 2898, 2907, 2861, 2885, 2770, 2888, 2896, 2892, 2846, 2819, 2795, 2814, 2918, 3047, 2947, 2917, 2874, 2799, 2918, 2900, 2854, 2844, 2799, 2890, 2789, 2626, 3116, 2800, 2990, 2808, 2824, 2782, 2753, 2854, 2819, 2696, 2766, 2765, 2763, 2821, 2747, 2746, 3106, 2927, 2739, 2883, 2913, 2986, 2822, 2804, 2806, 2844, 2836, 2753, 2838, 2826, 2794, 2833, 2708, 2803, 2859, 2769, 2799, 2862, 2746, 2636, 2643, 2861, 3183, 2916, 2823, 2788, 2745, 2772, 2764, 2805, 2810, 2812, 2825, 2793, 2777, 2773, 2685, 2747, 2511, 2578, 2507, 2772, 2663, 2944, 2839, 2738, 2710, 2796, 2880, 2882, 2800, 2852, 2850, 2864, 2866, 2845, 2842, 2876, 2855, 2857, 2836, 2792, 2838, 2827, 2812, 2572, 2663, 2674, 2590, 2550, 2410, 2920, 2613, 2772],
      "WindowCenter": [729.0, 726.0, 724.0, 723.0, 722.0, 723.0, 723.0, 724.0, 721.0, 719.0, 717.0, 722.0, 723.0, 722.0, 720.0, 720.0, 718.0, 718.0, 718.0, 717.0, 717.0, 718.0, 718.0, 718.0, 718.0, 719.0, 719.0, 719.0, 717.0, 717.0, 717.0, 716.0, 716.0, 718.0, 717.0, 712.0, 715.0, 716.0, 716.0, 716.0, 716.0, 718.0, 713.0, 719.0, 720.0, 721.0, 721.0, 720.0, 720.0, 720.0, 719.0, 719.0, 719.0, 718.0, 718.0, 720.0, 721.0, 721.0, 721.0, 721.0, 723.0, 719.0, 720.0, 719.0, 717.0, 715.0, 714.0, 713.0, 712.0, 699.0, 697.0, 692.0, 707.0, 710.0, 708.0, 708.0, 708.0, 711.0, 712.0, 711.0, 711.0, 711.0, 710.0, 711.0, 711.0, 702.0, 689.0, 707.0, 708.0, 709.0, 712.0, 714.0, 711.0, 709.0, 708.0, 709.0, 709.0, 709.0, 709.0, 710.0, 711.0, 712.0, 711.0, 711.0, 712.0, 713.0, 712.0, 711.0, 691.0, 698.0, 692.0, 705.0, 716.0, 714.0, 712.0, 711.0, 711.0, 712.0, 713.0, 714.0, 712.0, 716.0, 718.0, 719.0, 719.0, 717.0, 712.0, 686.0, 686.0, 699.0, 696.0, 693.0, 685.0, 717.0, 718.0, 715.0, 715.0, 715.0, 715.0, 715.0, 714.0, 715.0, 716.0, 717.0, 717.0, 717.0, 717.0, 718.0, 718.0, 718.0, 718.0, 718.0, 718.0, 718.0, 718.0, 713.0, 682.0, 694.0, 705.0, 689.0, 695.0, 709.0, 714.0, 713.0],
      "WindowWidth": [1591.0, 1582.0, 1576.0, 1573.0, 1571.0, 1573.0, 1573.0, 1576.0, 1567.0, 1562.0, 1556.0, 1568.0, 1573.0, 1570.0, 1565.0, 1564.0, 1559.0, 1559.0, 1557.0, 1556.0, 1557.0, 1558.0, 1560.0, 1559.0, 1559.0, 1561.0, 1562.0, 1562.0, 1557.0, 1557.0, 1556.0, 1554.0, 1554.0, 1559.0, 1556.0, 1543.0, 1551.0, 1553.0, 1553.0, 1553.0, 1552.0, 1559.0, 1547.0, 1562.0, 1565.0, 1568.0, 1568.0, 1566.0, 1563.0, 1563.0, 1562.0, 1561.0, 1560.0, 1559.0, 1560.0, 1564.0, 1567.0, 1567.0, 1568.0, 1568.0, 1574.0, 1560.0, 1565.0, 1561.0, 1555.0, 1549.0, 1548.0, 1545.0, 1544.0, 1509.0, 1502.0, 1488.0, 1530.0, 1537.0, 1531.0, 1530.0, 1530.0, 1539.0, 1541.0, 1539.0, 1539.0, 1538.0, 1538.0, 1539.0, 1538.0, 1514.0, 1483.0, 1531.0, 1531.0, 1534.0, 1542.0, 1547.0, 1538.0, 1534.0, 1531.0, 1532.0, 1533.0, 1533.0, 1534.0, 1537.0, 1540.0, 1541.0, 1539.0, 1540.0, 1542.0, 1543.0, 1541.0, 1540.0, 1486.0, 1503.0, 1491.0, 1523.0, 1554.0, 1548.0, 1541.0, 1539.0, 1539.0, 1542.0, 1545.0, 1548.0, 1543.0, 1554.0, 1558.0, 1561.0, 1562.0, 1557.0, 1542.0, 1478.0, 1473.0, 1505.0, 1497.0, 1488.0, 1471.0, 1557.0, 1559.0, 1548.0, 1549.0, 1550.0, 1550.0, 1548.0, 1546.0, 1549.0, 1552.0, 1555.0, 1554.0, 1554.0, 1555.0, 1557.0, 1557.0, 1558.0, 1559.0, 1560.0, 1559.0, 1559.0, 1558.0, 1545.0, 1462.0, 1492.0, 1523.0, 1481.0, 1497.0, 1532.0, 1547.0, 1545.0]
    },
    "slices": {}
  }
}