{
  "AcquisitionMatrixPE": 72,
  "AcquisitionNumber": 1,
  "AcquisitionTime": "17:45:35.255000",
  "BandwidthPerPixelPhaseEncode": 17.943,
  "BaseResolution": 96,
  "BodyPartExamined": "BRAIN",
  "CoilCombinationMethod": "Sum of Squares",
  "ConsistencyInfo": "N4_VE11C_LATEST_20160120",
  "ConversionSoftware": "dcm2niix",
  "ConversionSoftwareVersion": "v1.0.20211006",
  "DerivedVendorReportedEchoSpacing": 0.000552897,
  "DeviceSerialNumber": "166011",
  "EchoTime": 0.03,
  "EchoTrainLength": 58,
  "EffectiveEchoSpacing": 0.000580542,
  "FlipAngle": 62,
  "ImageOrientationPatientDICOM": [0.999053, -0.0417432, 0.0122578, 0.0416981, 0.999123, 0.00391491],
  "ImageType": [
    "ORIGINAL",
    "PRIMARY",
    "M",
    "ND",
    "MOSAIC"
],
  "ImagingFrequency": 123.259,
  "InPlanePhaseEncodingDirectionDICOM": "COL",
  "InstitutionAddress": "West 130th Street 610,NY,NYC,US,10025",
  "InstitutionName": "MBBI",
  "MRAcquisitionType": "2D",
  "MagneticFieldStrength": 3,
  "Manufacturer": "Siemens",
  "ManufacturersModelName": "Prisma",
  "Modality": "MR",
  "MultibandAccelerationFactor": 3,
  "PartialFourier": 0.75,
  "PatientPosition": "HFS",
  "PercentPhaseFOV": 100,
  "PercentSampling": 75,
  "PhaseEncodingDirection": "j-",
  "PhaseEncodingSteps": 58,
  "PhaseOversampling": 0.05,
  "PhaseResolution": 0.75,
  "PixelBandwidth": 2265,
  "ProcedureStepDescription": "White^Word_recognition",
  "ProtocolName": "func_vwfate_run10",
  "PulseSequenceDetails": "%SiemensSeq%\\ep2d_bold",
  "ReceiveCoilActiveElements": "HC1-7",
  "ReceiveCoilName": "HeadNeck_64",
  "ReconMatrixPE": 96,
  "RefLinesPE": 40,
  "RepetitionTime": 1.5,
  "SAR": 0.0454226,
  "ScanOptions": "PFP\\FS",
  "ScanningSequence": "EP",
  "SequenceName": "*epfid2d1_72",
  "SequenceVariant": "SK\\OSP",
  "SeriesDescription": "func_vwfate_run10",
  "SeriesNumber": 12,
  "ShimSetting": [-1156, -1365, 710, 650, -107, -46, 75, 63],
  "SliceThickness": 2,
  "SliceTiming": [1.075, 0, 0.74, 0.0675, 0.8075, 0.135, 0.875, 0.2, 0.94, 0.2675, 1.0075, 0.4025, 1.1425, 0.47, 1.21, 0.5375, 1.2775, 0.605, 1.345, 0.6725, 1.4125, 0.335, 1.075, 0, 0.74, 0.0675, 0.8075, 0.135, 0.875, 0.2, 0.94, 0.2675, 1.0075, 0.4025, 1.1425, 0.47, 1.21, 0.5375, 1.2775, 0.605, 1.345, 0.6725, 1.4125, 0.335, 1.075, 0, 0.74, 0.0675, 0.8075, 0.135, 0.875, 0.2, 0.94, 0.2675, 1.0075, 0.4025, 1.1425, 0.47, 1.21, 0.5375, 1.2775, 0.605, 1.345, 0.6725, 1.4125, 0.335],
  "SoftwareVersions": "syngo MR E11",
  "SpacingBetweenSlices": 2,
  "StationName": "AWP166011",
  "TaskName": "vwfate",
  "TotalReadoutTime": 0.0551515,
  "TxRefAmp": 217.308,
  "dcmmeta_affine": [
    [-1.9981063604354858, 0.08339618146419525, 0.02482086978852749, 95.5181884765625],
    [0.08348644524812698, 1.998245120048523, 0.006800159811973572, -80.54553985595703],
    [0.024515537545084953, -0.007829824462532997, 1.999834418296814, -35.26945495605469],
    [0.0, 0.0, 0.0, 1.0]
],
  "dcmmeta_reorient_transform": [
    [0.0, -1.0, 0.0, 95.0],
    [1.0, 0.0, 0.0, 0.0],
    [0.0, 0.0, 1.0, 0.0],
    [0.0, 0.0, 0.0, 1.0]
],
  "dcmmeta_shape": [96, 96, 66, 164],
  "dcmmeta_slice_dim": 2,
  "dcmmeta_version": 0.6,
  "global": {
    "const": {
      "AcquisitionMatrix": [96, 0, 0, 72],
      "AngioFlag": "N",
      "BitsAllocated": 16,
      "BitsStored": 12,
      "BodyPartExamined": "BRAIN",
      "Columns": 864,
      "EchoNumbers": 1,
      "EchoTime": 30.0,
      "EchoTrainLength": 58,
      "FlipAngle": 62.0,
      "HighBit": 11,
      "ImageOrientationPatient": [0.99905317694977, -0.0417432237723, 0.01225776878833, 0.04169809032711, 0.99912258643583, 0.00391491211396],
      "ImagePositionPatient": [-902.73779957047, -844.55510093003, -48.433908732436],
      "ImageType": [
        "ORIGINAL",
        "PRIMARY",
        "M",
        "ND",
        "MOSAIC"
],
      "ImagedNucleus": "1H",
      "ImagingFrequency": 123.259497,
      "InPlanePhaseEncodingDirection": "COL",
      "MRAcquisitionType": "2D",
      "MagneticFieldStrength": 3.0,
      "Manufacturer": "SIEMENS",
      "ManufacturerModelName": "Prisma",
      "Modality": "MR",
      "NumberOfAverages": 1.0,
      "NumberOfPhaseEncodingSteps": 58,
      "PercentPhaseFieldOfView": 100.0,
      "PercentSampling": 75.0,
      "PerformedProcedureStepStartTime": "165701.657000",
      "PhotometricInterpretation": "MONOCHROME2",
      "PixelBandwidth": 2265.0,
      "PixelRepresentation": 0,
      "PixelSpacing": [2.0, 2.0],
      "ProtocolName": "func_vwfate_run10",
      "RepetitionTime": 1500.0,
      "Rows": 864,
      "SAR": 0.0454225762315,
      "SamplesPerPixel": 1,
      "ScanOptions": [
        "PFP",
        "FS"
],
      "ScanningSequence": "EP",
      "SequenceName": "*epfid2d1_72",
      "SequenceVariant": [
        "SK",
        "OSP"
],
      "SeriesDescription": "func_vwfate_run10",
      "SeriesNumber": 12,
      "SeriesTime": "174619.003000",
      "SliceLocation": -34.354975448691,
      "SliceThickness": 2.0,
      "SmallestImagePixelValue": 0,
      "SoftwareVersions": "syngo MR E11",
      "SpacingBetweenSlices": 2.0000000284647,
      "SpecificCharacterSet": "ISO_IR 100",
      "StudyID": "2",
      "StudyTime": "165701.580000",
      "TransmitCoilName": "Body",
      "VariableFlipAngleFlag": "N",
      "WindowCenterWidthExplanation": "Algo1",
      "dBdt": 0.0},
    "slices": {}
  },
  "time": {
    "samples": {
      "AcquisitionNumber": [1, 2, 3, 4, 5, 6, 7, 8, 9, 10, 11, 12, 13, 14, 15, 16, 17, 18, 19, 20, 21, 22, 23, 24, 25, 26, 27, 28, 29, 30, 31, 32, 33, 34, 35, 36, 37, 38, 39, 40, 41, 42, 43, 44, 45, 46, 47, 48, 49, 50, 51, 52, 53, 54, 55, 56, 57, 58, 59, 60, 61, 62, 63, 64, 65, 66, 67, 68, 69, 70, 71, 72, 73, 74, 75, 76, 77, 78, 79, 80, 81, 82, 83, 84, 85, 86, 87, 88, 89, 90, 91, 92, 93, 94, 95, 96, 97, 98, 99, 100, 101, 102, 103, 104, 105, 106, 107, 108, 109, 110, 111, 112, 113, 114, 115, 116, 117, 118, 119, 120, 121, 122, 123, 124, 125, 126, 127, 128, 129, 130, 131, 132, 133, 134, 135, 136, 137, 138, 139, 140, 141, 142, 143, 144, 145, 146, 147, 148, 149, 150, 151, 152, 153, 154, 155, 156, 157, 158, 159, 160, 161, 162, 163, 164],
      "AcquisitionTime": ["174535.255000", "174536.755000", "174538.255000", "174539.755000", "174541.255000", "174542.755000", "174544.255000", "174545.755000", "174547.255000", "174548.755000", "174550.255000", "174551.755000", "174553.255000", "174554.755000", "174556.255000", "174557.755000", "174559.255000", "174600.755000", "174602.255000", "174603.755000", "174605.255000", "174606.755000", "174608.255000", "174609.755000", "174611.255000", "174612.755000", "174614.255000", "174615.755000", "174617.255000", "174618.755000", "174620.255000", "174621.755000", "174623.255000", "174624.755000", "174626.255000", "174627.755000", "174629.255000", "174630.755000", "174632.255000", "174633.755000", "174635.255000", "174636.755000", "174638.255000", "174639.755000", "174641.255000", "174642.755000", "174644.255000", "174645.755000", "174647.255000", "174648.755000", "174650.255000", "174651.755000", "174653.255000", "174654.755000", "174656.255000", "174657.755000", "174659.255000", "174700.755000", "174702.255000", "174703.755000", "174705.255000", "174706.755000", "174708.255000", "174709.755000", "174711.255000", "174712.755000", "174714.255000", "174715.755000", "174717.255000", "174718.755000", "174720.255000", "174721.755000", "174723.255000", "174724.755000", "174726.255000", "174727.755000", "174729.255000", "174730.755000", "174732.255000", "174733.755000", "174735.255000", "174736.755000", "174738.255000", "174739.755000", "174741.255000", "174742.755000", "174744.255000", "174745.755000", "174747.255000", "174748.755000", "174750.255000", "174751.755000", "174753.255000", "174754.755000", "174756.255000", "174757.755000", "174759.255000", "174800.755000", "174802.255000", "174803.755000", "174805.255000", "174806.755000", "174808.255000", "174809.755000", "174811.255000", "174812.755000", "174814.255000", "174815.755000", "174817.255000", "174818.755000", "174820.255000", "174821.755000", "174823.255000", "174824.755000", "174826.255000", "174827.755000", "174829.255000", "174830.755000", "174832.255000", "174833.755000", "174835.255000", "174836.755000", "174838.255000", "174839.755000", "174841.255000", "174842.755000", "174844.255000", "174845.755000", "174847.255000", "174848.755000", "174850.255000", "174851.755000", "174853.255000", "174854.755000", "174856.255000", "174857.755000", "174859.255000", "174900.755000", "174902.255000", "174903.755000", "174905.255000", "174906.755000", "174908.255000", "174909.755000", "174911.255000", "174912.755000", "174914.255000", "174915.755000", "174917.255000", "174918.755000", "174920.255000", "174921.755000", "174923.255000", "174924.755000", "174926.255000", "174927.755000", "174929.255000", "174930.755000", "174932.255000", "174933.755000", "174935.255000", "174936.755000", "174938.255000", "174939.755000"],
      "ContentTime": ["174619.007000", "174619.012000", "174619.024000", "174619.027000", "174619.030000", "174619.033000", "174619.043000", "174619.046000", "174619.049000", "174619.052000", "174619.055000", "174619.058000", "174619.061000", "174619.065000", "174619.068000", "174619.071000", "174619.074000", "174619.077000", "174619.080000", "174619.083000", "174619.089000", "174619.092000", "174619.095000", "174619.098000", "174619.101000", "174619.104000", "174619.107000", "174619.110000", "174619.113000", "174639.002000", "174639.005000", "174639.009000", "174639.012000", "174639.015000", "174639.018000", "174639.021000", "174639.024000", "174639.027000", "174639.030000", "174639.033000", "174639.036000", "174639.040000", "174719.002000", "174719.005000", "174719.015000", "174719.018000", "174719.021000", "174719.024000", "174719.027000", "174719.040000", "174719.043000", "174719.046000", "174719.050000", "174719.053000", "174719.056000", "174719.059000", "174719.062000", "174719.065000", "174719.068000", "174719.071000", "174719.074000", "174719.077000", "174719.080000", "174719.083000", "174719.086000", "174719.089000", "174719.092000", "174719.095000", "174719.098000", "174759.002000", "174759.005000", "174759.008000", "174759.011000", "174759.015000", "174759.018000", "174759.021000", "174759.024000", "174759.027000", "174759.030000", "174759.033000", "174759.036000", "174759.039000", "174759.042000", "174759.045000", "174759.048000", "174759.051000", "174759.055000", "174759.058000", "174759.061000", "174759.064000", "174759.067000", "174759.070000", "174759.073000", "174759.076000", "174759.079000", "174759.082000", "174839.002000", "174839.005000", "174839.009000", "174839.012000", "174839.015000", "174839.018000", "174839.021000", "174839.024000", "174839.037000", "174839.041000", "174839.044000", "174839.047000", "174839.050000", "174839.053000", "174839.056000", "174839.059000", "174839.062000", "174839.065000", "174839.068000", "174839.071000", "174839.075000", "174839.078000", "174839.081000", "174839.084000", "174839.087000", "174839.090000", "174919.002000", "174919.005000", "174919.009000", "174919.012000", "174919.015000", "174919.018000", "174919.021000", "174919.024000", "174919.027000", "174919.030000", "174919.033000", "174919.036000", "174919.039000", "174919.042000", "174919.046000", "174919.049000", "174919.052000", "174919.055000", "174919.058000", "174919.061000", "174919.064000", "174919.067000", "174919.070000", "174919.073000", "174919.076000", "174919.079000", "174919.082000", "174940.551000", "174940.555000", "174940.558000", "174940.562000", "174940.565000", "174940.568000", "174940.571000", "174940.575000", "174940.578000", "174940.583000", "174940.587000", "174940.591000", "174940.597000", "174940.602000", "174940.606000"],
      "InstanceCreationTime": ["174619.007000", "174619.012000", "174619.024000", "174619.027000", "174619.030000", "174619.033000", "174619.043000", "174619.046000", "174619.049000", "174619.052000", "174619.055000", "174619.058000", "174619.061000", "174619.065000", "174619.068000", "174619.071000", "174619.074000", "174619.077000", "174619.080000", "174619.083000", "174619.089000", "174619.092000", "174619.095000", "174619.098000", "174619.101000", "174619.104000", "174619.107000", "174619.110000", "174619.113000", "174639.002000", "174639.005000", "174639.009000", "174639.012000", "174639.015000", "174639.018000", "174639.021000", "174639.024000", "174639.027000", "174639.030000", "174639.033000", "174639.036000", "174639.040000", "174719.002000", "174719.005000", "174719.015000", "174719.018000", "174719.021000", "174719.024000", "174719.027000", "174719.040000", "174719.043000", "174719.046000", "174719.050000", "174719.053000", "174719.056000", "174719.059000", "174719.062000", "174719.065000", "174719.068000", "174719.071000", "174719.074000", "174719.077000", "174719.080000", "174719.083000", "174719.086000", "174719.089000", "174719.092000", "174719.095000", "174719.098000", "174759.002000", "174759.005000", "174759.008000", "174759.011000", "174759.015000", "174759.018000", "174759.021000", "174759.024000", "174759.027000", "174759.030000", "174759.033000", "174759.036000", "174759.039000", "174759.042000", "174759.045000", "174759.048000", "174759.051000", "174759.055000", "174759.058000", "174759.061000", "174759.064000", "174759.067000", "174759.070000", "174759.073000", "174759.076000", "174759.079000", "174759.082000", "174839.002000", "174839.005000", "174839.009000", "174839.012000", "174839.015000", "174839.018000", "174839.021000", "174839.024000", "174839.037000", "174839.041000", "174839.044000", "174839.047000", "174839.050000", "174839.053000", "174839.056000", "174839.059000", "174839.062000", "174839.065000", "174839.068000", "174839.071000", "174839.075000", "174839.078000", "174839.081000", "174839.084000", "174839.087000", "174839.090000", "174919.002000", "174919.005000", "174919.009000", "174919.012000", "174919.015000", "174919.018000", "174919.021000", "174919.024000", "174919.027000", "174919.030000", "174919.033000", "174919.036000", "174919.039000", "174919.042000", "174919.046000", "174919.049000", "174919.052000", "174919.055000", "174919.058000", "174919.061000", "174919.064000", "174919.067000", "174919.070000", "174919.073000", "174919.076000", "174919.079000", "174919.082000", "174940.551000", "174940.555000", "174940.558000", "174940.562000", "174940.565000", "174940.568000", "174940.571000", "174940.575000", "174940.578000", "174940.583000", "174940.587000", "174940.591000", "174940.597000", "174940.602000", "174940.606000"],
      "InstanceNumber": [1, 2, 3, 4, 5, 6, 7, 8, 9, 10, 11, 12, 13, 14, 15, 16, 17, 18, 19, 20, 21, 22, 23, 24, 25, 26, 27, 28, 29, 30, 31, 32, 33, 34, 35, 36, 37, 38, 39, 40, 41, 42, 43, 44, 45, 46, 47, 48, 49, 50, 51, 52, 53, 54, 55, 56, 57, 58, 59, 60, 61, 62, 63, 64, 65, 66, 67, 68, 69, 70, 71, 72, 73, 74, 75, 76, 77, 78, 79, 80, 81, 82, 83, 84, 85, 86, 87, 88, 89, 90, 91, 92, 93, 94, 95, 96, 97, 98, 99, 100, 101, 102, 103, 104, 105, 106, 107, 108, 109, 110, 111, 112, 113, 114, 115, 116, 117, 118, 119, 120, 121, 122, 123, 124, 125, 126, 127, 128, 129, 130, 131, 132, 133, 134, 135, 136, 137, 138, 139, 140, 141, 142, 143, 144, 145, 146, 147, 148, 149, 150, 151, 152, 153, 154, 155, 156, 157, 158, 159, 160, 161, 162, 163, 164],
      "LargestImagePixelValue": [3003, 2891, 2796, 2742, 2753, 2762, 2770, 2707, 2748, 2699, 2667, 2702, 2659, 2686, 2648, 2676, 2680, 2700, 2866, 2680, 2794, 2731, 2964, 2611, 2917, 2749, 2625, 2584, 2610, 2761, 2657, 2632, 2671, 2661, 2656, 2643, 2688, 2654, 2633, 2626, 2633, 2612, 2616, 2652, 2635, 2604, 2642, 2642, 2618, 2609, 2633, 2661, 2622, 2688, 2779, 2770, 2649, 2673, 2319, 2481, 2816, 2598, 2608, 2628, 2649, 2641, 2661, 2716, 2732, 2720, 2698, 2717, 2683, 2672, 2716, 2708, 2654, 2671, 2598, 2566, 2548, 2559, 2518, 2513, 2537, 2534, 2512, 2519, 2561, 2571, 2593, 2577, 2598, 2566, 2612, 2689, 2699, 2696, 2693, 2644, 2628, 2645, 2624, 2714, 2669, 2609, 2743, 2382, 3177, 2884, 2582, 3018, 2818, 2705, 2747, 2727, 2734, 2747, 2699, 2695, 2647, 2608, 2641, 2607, 2638, 2619, 2629, 2617, 2628, 2672, 2910, 2909, 2494, 2847, 3299, 2546, 3043, 2578, 2896, 2778, 2956, 2866, 2828, 2824, 2780, 2798, 2772, 2823, 2817, 2838, 2811, 2809, 2823, 2795, 2794, 2772, 2783, 2771, 2812, 2722, 2786, 2779, 2844, 2780],
      "WindowCenter": [720.0, 719.0, 720.0, 716.0, 723.0, 722.0, 721.0, 722.0, 721.0, 720.0, 719.0, 719.0, 719.0, 719.0, 719.0, 720.0, 720.0, 722.0, 717.0, 719.0, 715.0, 727.0, 721.0, 702.0, 724.0, 721.0, 721.0, 721.0, 711.0, 722.0, 720.0, 721.0, 721.0, 720.0, 719.0, 718.0, 716.0, 716.0, 716.0, 716.0, 716.0, 715.0, 715.0, 716.0, 716.0, 715.0, 716.0, 716.0, 717.0, 716.0, 716.0, 716.0, 717.0, 718.0, 719.0, 719.0, 716.0, 682.0, 678.0, 698.0, 719.0, 715.0, 713.0, 718.0, 717.0, 716.0, 715.0, 714.0, 713.0, 713.0, 713.0, 714.0, 714.0, 714.0, 714.0, 714.0, 714.0, 715.0, 714.0, 715.0, 717.0, 717.0, 716.0, 716.0, 716.0, 715.0, 715.0, 715.0, 715.0, 716.0, 716.0, 716.0, 717.0, 717.0, 718.0, 717.0, 717.0, 716.0, 716.0, 715.0, 715.0, 715.0, 715.0, 715.0, 714.0, 713.0, 717.0, 693.0, 717.0, 713.0, 711.0, 718.0, 716.0, 715.0, 715.0, 715.0, 715.0, 715.0, 714.0, 714.0, 714.0, 714.0, 715.0, 716.0, 716.0, 716.0, 717.0, 716.0, 708.0, 685.0, 699.0, 719.0, 705.0, 721.0, 711.0, 706.0, 711.0, 701.0, 708.0, 715.0, 718.0, 716.0, 715.0, 715.0, 715.0, 716.0, 716.0, 717.0, 718.0, 719.0, 720.0, 719.0, 719.0, 718.0, 718.0, 718.0, 718.0, 718.0, 719.0, 718.0, 717.0, 717.0, 716.0, 716.0],
      "WindowWidth": [1571.0, 1566.0, 1572.0, 1561.0, 1580.0, 1576.0, 1574.0, 1575.0, 1572.0, 1569.0, 1568.0, 1567.0, 1567.0, 1567.0, 1568.0, 1570.0, 1571.0, 1575.0, 1561.0, 1567.0, 1557.0, 1591.0, 1572.0, 1521.0, 1582.0, 1574.0, 1573.0, 1573.0, 1546.0, 1575.0, 1570.0, 1572.0, 1573.0, 1570.0, 1567.0, 1562.0, 1557.0, 1557.0, 1559.0, 1559.0, 1558.0, 1556.0, 1556.0, 1557.0, 1557.0, 1556.0, 1557.0, 1559.0, 1560.0, 1559.0, 1559.0, 1559.0, 1560.0, 1563.0, 1566.0, 1567.0, 1557.0, 1469.0, 1457.0, 1509.0, 1566.0, 1556.0, 1550.0, 1563.0, 1559.0, 1557.0, 1554.0, 1553.0, 1550.0, 1550.0, 1550.0, 1551.0, 1551.0, 1553.0, 1553.0, 1553.0, 1552.0, 1554.0, 1553.0, 1556.0, 1560.0, 1560.0, 1559.0, 1557.0, 1557.0, 1556.0, 1556.0, 1555.0, 1556.0, 1558.0, 1558.0, 1558.0, 1561.0, 1562.0, 1563.0, 1560.0, 1560.0, 1558.0, 1556.0, 1556.0, 1556.0, 1555.0, 1556.0, 1555.0, 1553.0, 1550.0, 1562.0, 1495.0, 1561.0, 1550.0, 1544.0, 1564.0, 1558.0, 1555.0, 1556.0, 1555.0, 1556.0, 1554.0, 1552.0, 1552.0, 1551.0, 1551.0, 1554.0, 1556.0, 1559.0, 1559.0, 1559.0, 1559.0, 1537.0, 1475.0, 1513.0, 1567.0, 1530.0, 1573.0, 1547.0, 1530.0, 1543.0, 1518.0, 1538.0, 1555.0, 1563.0, 1558.0, 1553.0, 1554.0, 1553.0, 1557.0, 1558.0, 1560.0, 1564.0, 1567.0, 1568.0, 1567.0, 1566.0, 1563.0, 1563.0, 1563.0, 1564.0, 1565.0, 1565.0, 1562.0, 1562.0, 1560.0, 1559.0, 1559.0]
    },
    "slices": {}
  }
}