{
  "AcquisitionMatrixPE": 72,
  "AcquisitionNumber": 1,
  "AcquisitionTime": "18:03:13.060000",
  "BandwidthPerPixelPhaseEncode": 17.943,
  "BaseResolution": 96,
  "BodyPartExamined": "BRAIN",
  "CoilCombinationMethod": "Sum of Squares",
  "ConsistencyInfo": "N4_VE11C_LATEST_20160120",
  "ConversionSoftware": "dcm2niix",
  "ConversionSoftwareVersion": "v1.0.20211006",
  "DerivedVendorReportedEchoSpacing": 0.000552897,
  "DeviceSerialNumber": "166011",
  "EchoTime": 0.03,
  "EchoTrainLength": 58,
  "EffectiveEchoSpacing": 0.000580542,
  "FlipAngle": 62,
  "ImageOrientationPatientDICOM": [0.999053, -0.0417432, 0.0122578, 0.0416981, 0.999123, 0.00391491],
  "ImageType": [
    "ORIGINAL",
    "PRIMARY",
    "M",
    "ND",
    "MOSAIC"
],
  "ImagingFrequency": 123.26,
  "InPlanePhaseEncodingDirectionDICOM": "COL",
  "InstitutionAddress": "West 130th Street 610,NY,NYC,US,10025",
  "InstitutionName": "MBBI",
  "MRAcquisitionType": "2D",
  "MagneticFieldStrength": 3,
  "Manufacturer": "Siemens",
  "ManufacturersModelName": "Prisma",
  "Modality": "MR",
  "MultibandAccelerationFactor": 3,
  "PartialFourier": 0.75,
  "PatientPosition": "HFS",
  "PercentPhaseFOV": 100,
  "PercentSampling": 75,
  "PhaseEncodingDirection": "j-",
  "PhaseEncodingSteps": 58,
  "PhaseOversampling": 0.05,
  "PhaseResolution": 0.75,
  "PixelBandwidth": 2265,
  "ProcedureStepDescription": "White^Word_recognition",
  "ProtocolName": "func_vwfate_run12",
  "PulseSequenceDetails": "%SiemensSeq%\\ep2d_bold",
  "ReceiveCoilActiveElements": "HC1-7",
  "ReceiveCoilName": "HeadNeck_64",
  "ReconMatrixPE": 96,
  "RefLinesPE": 40,
  "RepetitionTime": 1.5,
  "SAR": 0.0454226,
  "ScanOptions": "PFP\\FS",
  "ScanningSequence": "EP",
  "SequenceName": "*epfid2d1_72",
  "SequenceVariant": "SK\\OSP",
  "SeriesDescription": "func_vwfate_run12",
  "SeriesNumber": 15,
  "ShimSetting": [-1156, -1365, 710, 650, -107, -46, 75, 63],
  "SliceThickness": 2,
  "SliceTiming": [1.0775, 0, 0.74, 0.0675, 0.8075, 0.135, 0.875, 0.2025, 0.9425, 0.27, 1.01, 0.405, 1.145, 0.4725, 1.2125, 0.54, 1.28, 0.605, 1.345, 0.6725, 1.4125, 0.3375, 1.0775, 0, 0.74, 0.0675, 0.8075, 0.135, 0.875, 0.2025, 0.9425, 0.27, 1.01, 0.405, 1.145, 0.4725, 1.2125, 0.54, 1.28, 0.605, 1.345, 0.6725, 1.4125, 0.3375, 1.0775, 0, 0.74, 0.0675, 0.8075, 0.135, 0.875, 0.2025, 0.9425, 0.27, 1.01, 0.405, 1.145, 0.4725, 1.2125, 0.54, 1.28, 0.605, 1.345, 0.6725, 1.4125, 0.3375],
  "SoftwareVersions": "syngo MR E11",
  "SpacingBetweenSlices": 2,
  "StationName": "AWP166011",
  "TaskName": "vwfate",
  "TotalReadoutTime": 0.0551515,
  "TxRefAmp": 217.308,
  "dcmmeta_affine": [
    [-1.9981063604354858, 0.08339618146419525, 0.02482086978852749, 95.5181884765625],
    [0.08348644524812698, 1.998245120048523, 0.006800159811973572, -80.54553985595703],
    [0.024515537545084953, -0.007829824462532997, 1.999834418296814, -35.26945495605469],
    [0.0, 0.0, 0.0, 1.0]
],
  "dcmmeta_reorient_transform": [
    [0.0, -1.0, 0.0, 95.0],
    [1.0, 0.0, 0.0, 0.0],
    [0.0, 0.0, 1.0, 0.0],
    [0.0, 0.0, 0.0, 1.0]
],
  "dcmmeta_shape": [96, 96, 66, 164],
  "dcmmeta_slice_dim": 2,
  "dcmmeta_version": 0.6,
  "global": {
    "const": {
      "AcquisitionMatrix": [96, 0, 0, 72],
      "AngioFlag": "N",
      "BitsAllocated": 16,
      "BitsStored": 12,
      "BodyPartExamined": "BRAIN",
      "Columns": 864,
      "EchoNumbers": 1,
      "EchoTime": 30.0,
      "EchoTrainLength": 58,
      "FlipAngle": 62.0,
      "HighBit": 11,
      "ImageOrientationPatient": [0.99905317694977, -0.0417432237723, 0.01225776878833, 0.04169809032711, 0.99912258643583, 0.00391491211396],
      "ImagePositionPatient": [-902.73779957047, -844.55510093003, -48.433908732436],
      "ImageType": [
        "ORIGINAL",
        "PRIMARY",
        "M",
        "ND",
        "MOSAIC"
],
      "ImagedNucleus": "1H",
      "ImagingFrequency": 123.259503,
      "InPlanePhaseEncodingDirection": "COL",
      "MRAcquisitionType": "2D",
      "MagneticFieldStrength": 3.0,
      "Manufacturer": "SIEMENS",
      "ManufacturerModelName": "Prisma",
      "Modality": "MR",
      "NumberOfAverages": 1.0,
      "NumberOfPhaseEncodingSteps": 58,
      "PercentPhaseFieldOfView": 100.0,
      "PercentSampling": 75.0,
      "PerformedProcedureStepStartTime": "165701.657000",
      "PhotometricInterpretation": "MONOCHROME2",
      "PixelBandwidth": 2265.0,
      "PixelRepresentation": 0,
      "PixelSpacing": [2.0, 2.0],
      "ProtocolName": "func_vwfate_run12",
      "RepetitionTime": 1500.0,
      "Rows": 864,
      "SAR": 0.0454225762315,
      "SamplesPerPixel": 1,
      "ScanOptions": [
        "PFP",
        "FS"
],
      "ScanningSequence": "EP",
      "SequenceName": "*epfid2d1_72",
      "SequenceVariant": [
        "SK",
        "OSP"
],
      "SeriesDescription": "func_vwfate_run12",
      "SeriesNumber": 15,
      "SeriesTime": "180359.003000",
      "SliceLocation": -34.354975448691,
      "SliceThickness": 2.0,
      "SmallestImagePixelValue": 0,
      "SoftwareVersions": "syngo MR E11",
      "SpacingBetweenSlices": 2.0000000284647,
      "SpecificCharacterSet": "ISO_IR 100",
      "StudyID": "2",
      "StudyTime": "165701.580000",
      "TransmitCoilName": "Body",
      "VariableFlipAngleFlag": "N",
      "WindowCenterWidthExplanation": "Algo1",
      "dBdt": 0.0},
    "slices": {}
  },
  "time": {
    "samples": {
      "AcquisitionNumber": [1, 2, 3, 4, 5, 6, 7, 8, 9, 10, 11, 12, 13, 14, 15, 16, 17, 18, 19, 20, 21, 22, 23, 24, 25, 26, 27, 28, 29, 30, 31, 32, 33, 34, 35, 36, 37, 38, 39, 40, 41, 42, 43, 44, 45, 46, 47, 48, 49, 50, 51, 52, 53, 54, 55, 56, 57, 58, 59, 60, 61, 62, 63, 64, 65, 66, 67, 68, 69, 70, 71, 72, 73, 74, 75, 76, 77, 78, 79, 80, 81, 82, 83, 84, 85, 86, 87, 88, 89, 90, 91, 92, 93, 94, 95, 96, 97, 98, 99, 100, 101, 102, 103, 104, 105, 106, 107, 108, 109, 110, 111, 112, 113, 114, 115, 116, 117, 118, 119, 120, 121, 122, 123, 124, 125, 126, 127, 128, 129, 130, 131, 132, 133, 134, 135, 136, 137, 138, 139, 140, 141, 142, 143, 144, 145, 146, 147, 148, 149, 150, 151, 152, 153, 154, 155, 156, 157, 158, 159, 160, 161, 162, 163, 164],
      "AcquisitionTime": ["180313.060000", "180314.560000", "180316.060000", "180317.560000", "180319.060000", "180320.560000", "180322.060000", "180323.560000", "180325.060000", "180326.560000", "180328.060000", "180329.560000", "180331.060000", "180332.560000", "180334.060000", "180335.560000", "180337.060000", "180338.560000", "180340.060000", "180341.560000", "180343.060000", "180344.560000", "180346.060000", "180347.560000", "180349.060000", "180350.560000", "180352.060000", "180353.560000", "180355.060000", "180356.560000", "180358.060000", "180359.560000", "180401.060000", "180402.560000", "180404.060000", "180405.560000", "180407.060000", "180408.560000", "180410.060000", "180411.560000", "180413.060000", "180414.560000", "180416.060000", "180417.560000", "180419.060000", "180420.560000", "180422.060000", "180423.560000", "180425.060000", "180426.560000", "180428.060000", "180429.560000", "180431.060000", "180432.560000", "180434.060000", "180435.560000", "180437.060000", "180438.560000", "180440.060000", "180441.560000", "180443.060000", "180444.560000", "180446.060000", "180447.560000", "180449.060000", "180450.560000", "180452.060000", "180453.560000", "180455.060000", "180456.560000", "180458.060000", "180459.560000", "180501.060000", "180502.560000", "180504.060000", "180505.560000", "180507.060000", "180508.560000", "180510.060000", "180511.560000", "180513.060000", "180514.560000", "180516.060000", "180517.560000", "180519.060000", "180520.560000", "180522.060000", "180523.560000", "180525.060000", "180526.560000", "180528.060000", "180529.560000", "180531.060000", "180532.560000", "180534.060000", "180535.560000", "180537.060000", "180538.560000", "180540.060000", "180541.560000", "180543.060000", "180544.560000", "180546.060000", "180547.560000", "180549.060000", "180550.560000", "180552.060000", "180553.560000", "180555.060000", "180556.560000", "180558.060000", "180559.560000", "180601.060000", "180602.560000", "180604.060000", "180605.560000", "180607.060000", "180608.560000", "180610.060000", "180611.560000", "180613.060000", "180614.560000", "180616.060000", "180617.560000", "180619.060000", "180620.560000", "180622.060000", "180623.560000", "180625.060000", "180626.560000", "180628.060000", "180629.560000", "180631.060000", "180632.560000", "180634.060000", "180635.560000", "180637.060000", "180638.560000", "180640.060000", "180641.560000", "180643.060000", "180644.560000", "180646.060000", "180647.560000", "180649.060000", "180650.560000", "180652.060000", "180653.560000", "180655.060000", "180656.560000", "180658.060000", "180659.560000", "180701.060000", "180702.560000", "180704.060000", "180705.560000", "180707.060000", "180708.560000", "180710.060000", "180711.560000", "180713.060000", "180714.560000", "180716.060000", "180717.560000"],
      "ContentTime": ["180359.007000", "180359.011000", "180359.014000", "180359.017000", "180359.021000", "180359.024000", "180359.027000", "180359.030000", "180359.033000", "180359.036000", "180359.039000", "180359.042000", "180359.056000", "180359.059000", "180359.062000", "180359.065000", "180359.069000", "180359.072000", "180359.075000", "180359.079000", "180359.082000", "180359.085000", "180359.089000", "180359.092000", "180359.095000", "180359.098000", "180359.101000", "180359.104000", "180359.107000", "180359.110000", "180359.113000", "180439.003000", "180439.006000", "180439.009000", "180439.012000", "180439.016000", "180439.019000", "180439.022000", "180439.025000", "180439.028000", "180439.031000", "180439.034000", "180439.037000", "180439.040000", "180439.043000", "180439.046000", "180439.049000", "180439.052000", "180439.055000", "180439.058000", "180439.061000", "180439.065000", "180439.069000", "180439.072000", "180439.075000", "180439.078000", "180439.081000", "180519.002000", "180519.005000", "180519.018000", "180519.022000", "180519.025000", "180519.028000", "180519.031000", "180519.034000", "180519.037000", "180519.040000", "180519.043000", "180519.046000", "180519.049000", "180519.052000", "180519.055000", "180519.058000", "180519.061000", "180519.064000", "180519.067000", "180519.070000", "180519.073000", "180519.076000", "180519.079000", "180519.082000", "180519.085000", "180519.088000", "180519.091000", "180559.002000", "180559.005000", "180559.008000", "180559.012000", "180559.015000", "180559.018000", "180559.021000", "180559.024000", "180559.027000", "180559.030000", "180559.033000", "180559.036000", "180559.039000", "180559.042000", "180559.045000", "180559.060000", "180559.063000", "180559.066000", "180559.069000", "180559.072000", "180559.075000", "180559.078000", "180559.081000", "180559.084000", "180559.087000", "180559.090000", "180559.093000", "180639.002000", "180639.005000", "180639.009000", "180639.012000", "180639.015000", "180639.018000", "180639.021000", "180639.024000", "180639.027000", "180639.030000", "180639.033000", "180639.036000", "180639.039000", "180639.043000", "180639.046000", "180639.049000", "180639.052000", "180639.055000", "180639.058000", "180639.062000", "180639.065000", "180639.068000", "180639.071000", "180639.078000", "180639.082000", "180639.085000", "180718.343000", "180718.347000", "180718.350000", "180718.353000", "180718.356000", "180718.359000", "180718.362000", "180718.365000", "180718.369000", "180718.372000", "180718.375000", "180718.378000", "180718.381000", "180718.390000", "180718.393000", "180718.396000", "180718.399000", "180718.402000", "180718.406000", "180718.409000", "180718.412000", "180718.416000", "180718.419000", "180718.422000", "180718.425000", "180718.429000", "180718.432000"],
      "InstanceCreationTime": ["180359.007000", "180359.011000", "180359.014000", "180359.017000", "180359.021000", "180359.024000", "180359.027000", "180359.030000", "180359.033000", "180359.036000", "180359.039000", "180359.042000", "180359.056000", "180359.059000", "180359.062000", "180359.065000", "180359.069000", "180359.072000", "180359.075000", "180359.079000", "180359.082000", "180359.085000", "180359.089000", "180359.092000", "180359.095000", "180359.098000", "180359.101000", "180359.104000", "180359.107000", "180359.110000", "180359.113000", "180439.003000", "180439.006000", "180439.009000", "180439.012000", "180439.016000", "180439.019000", "180439.022000", "180439.025000", "180439.028000", "180439.031000", "180439.034000", "180439.037000", "180439.040000", "180439.043000", "180439.046000", "180439.049000", "180439.052000", "180439.055000", "180439.058000", "180439.061000", "180439.065000", "180439.069000", "180439.072000", "180439.075000", "180439.078000", "180439.081000", "180519.002000", "180519.005000", "180519.018000", "180519.022000", "180519.025000", "180519.028000", "180519.031000", "180519.034000", "180519.037000", "180519.040000", "180519.043000", "180519.046000", "180519.049000", "180519.052000", "180519.055000", "180519.058000", "180519.061000", "180519.064000", "180519.067000", "180519.070000", "180519.073000", "180519.076000", "180519.079000", "180519.082000", "180519.085000", "180519.088000", "180519.091000", "180559.002000", "180559.005000", "180559.008000", "180559.012000", "180559.015000", "180559.018000", "180559.021000", "180559.024000", "180559.027000", "180559.030000", "180559.033000", "180559.036000", "180559.039000", "180559.042000", "180559.045000", "180559.060000", "180559.063000", "180559.066000", "180559.069000", "180559.072000", "180559.075000", "180559.078000", "180559.081000", "180559.084000", "180559.087000", "180559.090000", "180559.093000", "180639.002000", "180639.005000", "180639.009000", "180639.012000", "180639.015000", "180639.018000", "180639.021000", "180639.024000", "180639.027000", "180639.030000", "180639.033000", "180639.036000", "180639.039000", "180639.043000", "180639.046000", "180639.049000", "180639.052000", "180639.055000", "180639.058000", "180639.062000", "180639.065000", "180639.068000", "180639.071000", "180639.078000", "180639.082000", "180639.085000", "180718.343000", "180718.347000", "180718.350000", "180718.353000", "180718.356000", "180718.359000", "180718.362000", "180718.365000", "180718.369000", "180718.372000", "180718.375000", "180718.378000", "180718.381000", "180718.390000", "180718.393000", "180718.396000", "180718.399000", "180718.402000", "180718.406000", "180718.409000", "180718.412000", "180718.416000", "180718.419000", "180718.422000", "180718.425000", "180718.429000", "180718.432000"],
      "InstanceNumber": [1, 2, 3, 4, 5, 6, 7, 8, 9, 10, 11, 12, 13, 14, 15, 16, 17, 18, 19, 20, 21, 22, 23, 24, 25, 26, 27, 28, 29, 30, 31, 32, 33, 34, 35, 36, 37, 38, 39, 40, 41, 42, 43, 44, 45, 46, 47, 48, 49, 50, 51, 52, 53, 54, 55, 56, 57, 58, 59, 60, 61, 62, 63, 64, 65, 66, 67, 68, 69, 70, 71, 72, 73, 74, 75, 76, 77, 78, 79, 80, 81, 82, 83, 84, 85, 86, 87, 88, 89, 90, 91, 92, 93, 94, 95, 96, 97, 98, 99, 100, 101, 102, 103, 104, 105, 106, 107, 108, 109, 110, 111, 112, 113, 114, 115, 116, 117, 118, 119, 120, 121, 122, 123, 124, 125, 126, 127, 128, 129, 130, 131, 132, 133, 134, 135, 136, 137, 138, 139, 140, 141, 142, 143, 144, 145, 146, 147, 148, 149, 150, 151, 152, 153, 154, 155, 156, 157, 158, 159, 160, 161, 162, 163, 164],
      "LargestImagePixelValue": [3149, 3110, 3055, 3020, 3025, 3048, 2986, 2883, 2787, 2791, 2943, 2899, 2789, 2718, 2980, 3071, 3027, 3067, 3012, 2977, 2863, 2843, 2767, 2789, 2823, 2740, 2768, 3016, 3149, 2829, 3145, 2890, 2840, 2802, 2610, 2470, 2471, 2551, 2587, 2545, 2474, 2488, 2505, 2501, 2486, 2598, 2744, 2889, 2771, 2716, 2747, 2743, 2699, 2555, 2502, 2998, 2591, 2513, 2462, 2563, 2476, 2524, 2551, 2608, 2589, 2598, 2522, 2570, 2542, 2572, 2576, 2603, 2634, 2619, 2629, 2588, 2564, 2479, 2526, 2558, 2379, 2436, 2456, 2442, 2493, 2505, 2444, 2459, 2463, 2442, 2475, 2482, 2482, 2518, 2510, 2516, 2470, 2527, 2521, 2497, 2467, 2472, 2377, 2443, 2422, 2449, 2427, 2493, 2461, 2520, 2451, 2498, 2497, 2584, 2543, 2494, 2424, 2451, 2461, 2412, 2389, 2480, 2433, 2336, 2405, 2426, 2464, 2465, 2461, 2455, 2447, 2504, 2356, 2859, 2668, 2802, 2767, 2748, 2780, 2817, 2827, 2871, 2839, 2897, 2800, 2880, 2842, 2829, 2832, 2766, 2770, 2779, 2732, 2769, 2774, 2743, 2837, 2789, 2765, 2860, 2278, 2659, 2604, 2595],
      "WindowCenter": [715.0, 714.0, 715.0, 718.0, 719.0, 718.0, 716.0, 715.0, 714.0, 713.0, 713.0, 715.0, 711.0, 705.0, 716.0, 715.0, 716.0, 715.0, 714.0, 714.0, 706.0, 716.0, 714.0, 714.0, 714.0, 713.0, 710.0, 709.0, 702.0, 695.0, 701.0, 692.0, 710.0, 705.0, 681.0, 682.0, 685.0, 686.0, 686.0, 687.0, 687.0, 691.0, 693.0, 694.0, 685.0, 676.0, 711.0, 708.0, 708.0, 708.0, 708.0, 707.0, 707.0, 702.0, 685.0, 699.0, 691.0, 702.0, 699.0, 697.0, 696.0, 697.0, 697.0, 697.0, 697.0, 696.0, 696.0, 696.0, 697.0, 698.0, 699.0, 699.0, 699.0, 698.0, 698.0, 698.0, 698.0, 698.0, 692.0, 695.0, 681.0, 665.0, 698.0, 687.0, 693.0, 692.0, 691.0, 691.0, 691.0, 692.0, 692.0, 691.0, 691.0, 691.0, 691.0, 692.0, 693.0, 693.0, 693.0, 693.0, 692.0, 692.0, 691.0, 692.0, 692.0, 692.0, 692.0, 692.0, 692.0, 692.0, 693.0, 693.0, 693.0, 690.0, 692.0, 692.0, 692.0, 688.0, 692.0, 690.0, 690.0, 689.0, 689.0, 689.0, 690.0, 690.0, 690.0, 690.0, 690.0, 690.0, 691.0, 692.0, 673.0, 694.0, 714.0, 714.0, 713.0, 713.0, 713.0, 713.0, 712.0, 711.0, 710.0, 710.0, 709.0, 711.0, 712.0, 713.0, 714.0, 714.0, 715.0, 714.0, 712.0, 713.0, 713.0, 713.0, 713.0, 712.0, 710.0, 697.0, 678.0, 690.0, 688.0, 688.0],
      "WindowWidth": [1557.0, 1554.0, 1557.0, 1564.0, 1567.0, 1565.0, 1558.0, 1556.0, 1554.0, 1552.0, 1551.0, 1557.0, 1546.0, 1529.0, 1559.0, 1558.0, 1558.0, 1556.0, 1554.0, 1552.0, 1533.0, 1560.0, 1555.0, 1555.0, 1555.0, 1552.0, 1541.0, 1538.0, 1521.0, 1501.0, 1518.0, 1496.0, 1543.0, 1528.0, 1463.0, 1466.0, 1473.0, 1474.0, 1476.0, 1479.0, 1479.0, 1489.0, 1494.0, 1496.0, 1472.0, 1454.0, 1543.0, 1537.0, 1536.0, 1537.0, 1536.0, 1533.0, 1532.0, 1521.0, 1476.0, 1515.0, 1492.0, 1520.0, 1511.0, 1504.0, 1502.0, 1505.0, 1505.0, 1505.0, 1505.0, 1503.0, 1503.0, 1504.0, 1507.0, 1509.0, 1511.0, 1511.0, 1510.0, 1509.0, 1508.0, 1509.0, 1509.0, 1509.0, 1494.0, 1501.0, 1463.0, 1425.0, 1509.0, 1478.0, 1496.0, 1491.0, 1490.0, 1489.0, 1488.0, 1491.0, 1491.0, 1490.0, 1489.0, 1489.0, 1491.0, 1493.0, 1494.0, 1495.0, 1494.0, 1494.0, 1493.0, 1492.0, 1490.0, 1492.0, 1492.0, 1492.0, 1492.0, 1493.0, 1492.0, 1493.0, 1494.0, 1496.0, 1496.0, 1486.0, 1493.0, 1492.0, 1491.0, 1482.0, 1491.0, 1486.0, 1485.0, 1485.0, 1484.0, 1483.0, 1487.0, 1487.0, 1487.0, 1486.0, 1486.0, 1486.0, 1488.0, 1492.0, 1445.0, 1503.0, 1554.0, 1554.0, 1549.0, 1550.0, 1552.0, 1551.0, 1548.0, 1546.0, 1542.0, 1542.0, 1540.0, 1544.0, 1547.0, 1550.0, 1553.0, 1553.0, 1556.0, 1553.0, 1548.0, 1551.0, 1550.0, 1549.0, 1550.0, 1547.0, 1541.0, 1508.0, 1456.0, 1485.0, 1481.0, 1481.0]
    },
    "slices": {}
  }
}