{
  "AcquisitionMatrixPE": 72,
  "AcquisitionNumber": 1,
  "AcquisitionTime": "17:57:51.500000",
  "BandwidthPerPixelPhaseEncode": 17.943,
  "BaseResolution": 96,
  "BodyPartExamined": "BRAIN",
  "CoilCombinationMethod": "Sum of Squares",
  "ConsistencyInfo": "N4_VE11C_LATEST_20160120",
  "ConversionSoftware": "dcm2niix",
  "ConversionSoftwareVersion": "v1.0.20211006",
  "DerivedVendorReportedEchoSpacing": 0.000552897,
  "DeviceSerialNumber": "166011",
  "EchoTime": 0.03,
  "EchoTrainLength": 58,
  "EffectiveEchoSpacing": 0.000580542,
  "FlipAngle": 62,
  "ImageOrientationPatientDICOM": [0.999053, -0.0417432, 0.0122578, 0.0416981, 0.999123, 0.00391491],
  "ImageType": [
    "ORIGINAL",
    "PRIMARY",
    "M",
    "ND",
    "MOSAIC"
],
  "ImagingFrequency": 123.259,
  "InPlanePhaseEncodingDirectionDICOM": "COL",
  "InstitutionAddress": "West 130th Street 610,NY,NYC,US,10025",
  "InstitutionName": "MBBI",
  "MRAcquisitionType": "2D",
  "MagneticFieldStrength": 3,
  "Manufacturer": "Siemens",
  "ManufacturersModelName": "Prisma",
  "Modality": "MR",
  "MultibandAccelerationFactor": 3,
  "PartialFourier": 0.75,
  "PatientPosition": "HFS",
  "PercentPhaseFOV": 100,
  "PercentSampling": 75,
  "PhaseEncodingDirection": "j-",
  "PhaseEncodingSteps": 58,
  "PhaseOversampling": 0.05,
  "PhaseResolution": 0.75,
  "PixelBandwidth": 2265,
  "ProcedureStepDescription": "White^Word_recognition",
  "ProtocolName": "func_vwfate_run11",
  "PulseSequenceDetails": "%SiemensSeq%\\ep2d_bold",
  "ReceiveCoilActiveElements": "HC1-7",
  "ReceiveCoilName": "HeadNeck_64",
  "ReconMatrixPE": 96,
  "RefLinesPE": 40,
  "RepetitionTime": 1.5,
  "SAR": 0.0454226,
  "ScanOptions": "PFP\\FS",
  "ScanningSequence": "EP",
  "SequenceName": "*epfid2d1_72",
  "SequenceVariant": "SK\\OSP",
  "SeriesDescription": "func_vwfate_run11",
  "SeriesNumber": 14,
  "ShimSetting": [-1156, -1365, 710, 650, -107, -46, 75, 63],
  "SliceThickness": 2,
  "SliceTiming": [1.075, 0, 0.74, 0.0675, 0.8075, 0.1325, 0.8725, 0.2, 0.94, 0.2675, 1.0075, 0.4025, 1.1425, 0.47, 1.21, 0.5375, 1.2775, 0.605, 1.345, 0.6725, 1.4125, 0.335, 1.075, 0, 0.74, 0.0675, 0.8075, 0.1325, 0.8725, 0.2, 0.94, 0.2675, 1.0075, 0.4025, 1.1425, 0.47, 1.21, 0.5375, 1.2775, 0.605, 1.345, 0.6725, 1.4125, 0.335, 1.075, 0, 0.74, 0.0675, 0.8075, 0.1325, 0.8725, 0.2, 0.94, 0.2675, 1.0075, 0.4025, 1.1425, 0.47, 1.21, 0.5375, 1.2775, 0.605, 1.345, 0.6725, 1.4125, 0.335],
  "SoftwareVersions": "syngo MR E11",
  "SpacingBetweenSlices": 2,
  "StationName": "AWP166011",
  "TaskName": "vwfate",
  "TotalReadoutTime": 0.0551515,
  "TxRefAmp": 217.308,
  "dcmmeta_affine": [
    [-1.9981063604354858, 0.08339618146419525, 0.02482086978852749, 95.5181884765625],
    [0.08348644524812698, 1.998245120048523, 0.006800159811973572, -80.54553985595703],
    [0.024515537545084953, -0.007829824462532997, 1.999834418296814, -35.26945495605469],
    [0.0, 0.0, 0.0, 1.0]
],
  "dcmmeta_reorient_transform": [
    [0.0, -1.0, 0.0, 95.0],
    [1.0, 0.0, 0.0, 0.0],
    [0.0, 0.0, 1.0, 0.0],
    [0.0, 0.0, 0.0, 1.0]
],
  "dcmmeta_shape": [96, 96, 66, 164],
  "dcmmeta_slice_dim": 2,
  "dcmmeta_version": 0.6,
  "global": {
    "const": {
      "AcquisitionMatrix": [96, 0, 0, 72],
      "AngioFlag": "N",
      "BitsAllocated": 16,
      "BitsStored": 12,
      "BodyPartExamined": "BRAIN",
      "Columns": 864,
      "EchoNumbers": 1,
      "EchoTime": 30.0,
      "EchoTrainLength": 58,
      "FlipAngle": 62.0,
      "HighBit": 11,
      "ImageOrientationPatient": [0.99905317694977, -0.0417432237723, 0.01225776878833, 0.04169809032711, 0.99912258643583, 0.00391491211396],
      "ImagePositionPatient": [-902.73779957047, -844.55510093003, -48.433908732436],
      "ImageType": [
        "ORIGINAL",
        "PRIMARY",
        "M",
        "ND",
        "MOSAIC"
],
      "ImagedNucleus": "1H",
      "ImagingFrequency": 123.259501,
      "InPlanePhaseEncodingDirection": "COL",
      "MRAcquisitionType": "2D",
      "MagneticFieldStrength": 3.0,
      "Manufacturer": "SIEMENS",
      "ManufacturerModelName": "Prisma",
      "Modality": "MR",
      "NumberOfAverages": 1.0,
      "NumberOfPhaseEncodingSteps": 58,
      "PercentPhaseFieldOfView": 100.0,
      "PercentSampling": 75.0,
      "PerformedProcedureStepStartTime": "165701.657000",
      "PhotometricInterpretation": "MONOCHROME2",
      "PixelBandwidth": 2265.0,
      "PixelRepresentation": 0,
      "PixelSpacing": [2.0, 2.0],
      "ProtocolName": "func_vwfate_run11",
      "RepetitionTime": 1500.0,
      "Rows": 864,
      "SAR": 0.0454225762315,
      "SamplesPerPixel": 1,
      "ScanOptions": [
        "PFP",
        "FS"
],
      "ScanningSequence": "EP",
      "SequenceName": "*epfid2d1_72",
      "SequenceVariant": [
        "SK",
        "OSP"
],
      "SeriesDescription": "func_vwfate_run11",
      "SeriesNumber": 14,
      "SeriesTime": "175838.907000",
      "SliceLocation": -34.354975448691,
      "SliceThickness": 2.0,
      "SmallestImagePixelValue": 0,
      "SoftwareVersions": "syngo MR E11",
      "SpacingBetweenSlices": 2.0000000284647,
      "SpecificCharacterSet": "ISO_IR 100",
      "StudyID": "2",
      "StudyTime": "165701.580000",
      "TransmitCoilName": "Body",
      "VariableFlipAngleFlag": "N",
      "WindowCenterWidthExplanation": "Algo1",
      "dBdt": 0.0},
    "slices": {}
  },
  "time": {
    "samples": {
      "AcquisitionNumber": [1, 2, 3, 4, 5, 6, 7, 8, 9, 10, 11, 12, 13, 14, 15, 16, 17, 18, 19, 20, 21, 22, 23, 24, 25, 26, 27, 28, 29, 30, 31, 32, 33, 34, 35, 36, 37, 38, 39, 40, 41, 42, 43, 44, 45, 46, 47, 48, 49, 50, 51, 52, 53, 54, 55, 56, 57, 58, 59, 60, 61, 62, 63, 64, 65, 66, 67, 68, 69, 70, 71, 72, 73, 74, 75, 76, 77, 78, 79, 80, 81, 82, 83, 84, 85, 86, 87, 88, 89, 90, 91, 92, 93, 94, 95, 96, 97, 98, 99, 100, 101, 102, 103, 104, 105, 106, 107, 108, 109, 110, 111, 112, 113, 114, 115, 116, 117, 118, 119, 120, 121, 122, 123, 124, 125, 126, 127, 128, 129, 130, 131, 132, 133, 134, 135, 136, 137, 138, 139, 140, 141, 142, 143, 144, 145, 146, 147, 148, 149, 150, 151, 152, 153, 154, 155, 156, 157, 158, 159, 160, 161, 162, 163, 164],
      "AcquisitionTime": ["175751.500000", "175753.000000", "175754.500000", "175756.000000", "175757.500000", "175759.000000", "175800.500000", "175802.000000", "175803.500000", "175805.000000", "175806.500000", "175808.000000", "175809.500000", "175811.000000", "175812.500000", "175814.000000", "175815.500000", "175817.000000", "175818.500000", "175820.000000", "175821.500000", "175823.000000", "175824.500000", "175826.000000", "175827.500000", "175829.000000", "175830.500000", "175832.000000", "175833.500000", "175835.000000", "175836.500000", "175838.000000", "175839.500000", "175841.000000", "175842.500000", "175844.000000", "175845.500000", "175847.000000", "175848.500000", "175850.000000", "175851.500000", "175853.000000", "175854.500000", "175856.000000", "175857.500000", "175859.000000", "175900.500000", "175902.000000", "175903.500000", "175905.000000", "175906.500000", "175908.000000", "175909.500000", "175911.000000", "175912.500000", "175914.000000", "175915.500000", "175917.000000", "175918.500000", "175920.000000", "175921.500000", "175923.000000", "175924.500000", "175926.000000", "175927.500000", "175929.000000", "175930.500000", "175932.000000", "175933.500000", "175935.000000", "175936.500000", "175938.000000", "175939.500000", "175941.000000", "175942.500000", "175944.000000", "175945.500000", "175947.000000", "175948.500000", "175950.000000", "175951.500000", "175953.000000", "175954.500000", "175956.000000", "175957.500000", "175959.000000", "180000.500000", "180002.000000", "180003.500000", "180005.000000", "180006.500000", "180008.000000", "180009.500000", "180011.000000", "180012.500000", "180014.000000", "180015.500000", "180017.000000", "180018.500000", "180020.000000", "180021.500000", "180023.000000", "180024.500000", "180026.000000", "180027.500000", "180029.000000", "180030.500000", "180032.000000", "180033.500000", "180035.000000", "180036.500000", "180038.000000", "180039.500000", "180041.000000", "180042.500000", "180044.000000", "180045.500000", "180047.000000", "180048.500000", "180050.000000", "180051.500000", "180053.000000", "180054.500000", "180056.000000", "180057.500000", "180059.000000", "180100.500000", "180102.000000", "180103.500000", "180105.000000", "180106.500000", "180108.000000", "180109.500000", "180111.000000", "180112.500000", "180114.000000", "180115.500000", "180117.000000", "180118.500000", "180120.000000", "180121.500000", "180123.000000", "180124.500000", "180126.000000", "180127.500000", "180129.000000", "180130.500000", "180132.000000", "180133.500000", "180135.000000", "180136.500000", "180138.000000", "180139.500000", "180141.000000", "180142.500000", "180144.000000", "180145.500000", "180147.000000", "180148.500000", "180150.000000", "180151.500000", "180153.000000", "180154.500000", "180156.000000"],
      "ContentTime": ["175838.911000", "175838.915000", "175838.918000", "175838.921000", "175838.924000", "175838.927000", "175838.936000", "175838.939000", "175838.942000", "175838.945000", "175838.948000", "175838.952000", "175838.955000", "175838.958000", "175838.961000", "175838.964000", "175838.967000", "175838.971000", "175838.974000", "175838.986000", "175838.989000", "175838.992000", "175838.995000", "175838.998000", "175839.003000", "175839.006000", "175839.008000", "175839.012000", "175839.015000", "175839.018000", "175839.021000", "175918.906000", "175918.909000", "175918.912000", "175918.915000", "175918.918000", "175918.922000", "175918.925000", "175918.928000", "175918.932000", "175918.935000", "175918.945000", "175918.948000", "175918.951000", "175918.955000", "175918.958000", "175918.961000", "175918.964000", "175918.967000", "175918.970000", "175918.973000", "175918.976000", "175918.979000", "175918.982000", "175918.985000", "175918.988000", "175918.992000", "175918.995000", "175958.907000", "175958.910000", "175958.913000", "175958.916000", "175958.934000", "175958.937000", "175958.940000", "175958.943000", "175958.946000", "175958.949000", "175958.952000", "175958.955000", "175958.959000", "175958.962000", "175958.965000", "175958.968000", "175958.971000", "175958.974000", "175958.977000", "175958.980000", "175958.983000", "175958.986000", "175958.989000", "175958.992000", "175958.995000", "175958.998000", "175959.002000", "180038.906000", "180038.909000", "180038.913000", "180038.916000", "180038.919000", "180038.922000", "180038.925000", "180038.928000", "180038.931000", "180038.934000", "180038.937000", "180038.940000", "180038.943000", "180038.946000", "180038.949000", "180038.952000", "180038.955000", "180038.958000", "180038.961000", "180038.964000", "180038.967000", "180038.971000", "180038.974000", "180038.977000", "180038.980000", "180038.983000", "180118.906000", "180118.910000", "180118.912000", "180118.916000", "180118.919000", "180118.922000", "180118.925000", "180118.928000", "180118.931000", "180118.934000", "180118.937000", "180118.940000", "180118.943000", "180118.947000", "180118.950000", "180118.953000", "180118.963000", "180118.966000", "180118.969000", "180118.972000", "180118.975000", "180118.979000", "180118.982000", "180118.985000", "180118.988000", "180118.991000", "180118.994000", "180157.314000", "180157.318000", "180157.322000", "180157.325000", "180157.328000", "180157.332000", "180157.335000", "180157.338000", "180157.341000", "180157.345000", "180157.348000", "180157.352000", "180157.355000", "180157.359000", "180157.362000", "180157.366000", "180157.370000", "180157.373000", "180157.377000", "180157.381000", "180157.384000", "180157.387000", "180157.390000", "180157.393000", "180157.396000", "180157.399000"],
      "InstanceCreationTime": ["175838.911000", "175838.915000", "175838.918000", "175838.921000", "175838.924000", "175838.927000", "175838.936000", "175838.939000", "175838.942000", "175838.945000", "175838.948000", "175838.952000", "175838.955000", "175838.958000", "175838.961000", "175838.964000", "175838.967000", "175838.971000", "175838.974000", "175838.986000", "175838.989000", "175838.992000", "175838.995000", "175838.998000", "175839.003000", "175839.006000", "175839.008000", "175839.012000", "175839.015000", "175839.018000", "175839.021000", "175918.906000", "175918.909000", "175918.912000", "175918.915000", "175918.918000", "175918.922000", "175918.925000", "175918.928000", "175918.932000", "175918.935000", "175918.945000", "175918.948000", "175918.951000", "175918.955000", "175918.958000", "175918.961000", "175918.964000", "175918.967000", "175918.970000", "175918.973000", "175918.976000", "175918.979000", "175918.982000", "175918.985000", "175918.988000", "175918.992000", "175918.995000", "175958.907000", "175958.910000", "175958.913000", "175958.916000", "175958.934000", "175958.937000", "175958.940000", "175958.943000", "175958.946000", "175958.949000", "175958.952000", "175958.955000", "175958.959000", "175958.962000", "175958.965000", "175958.968000", "175958.971000", "175958.974000", "175958.977000", "175958.980000", "175958.983000", "175958.986000", "175958.989000", "175958.992000", "175958.995000", "175958.998000", "175959.002000", "180038.906000", "180038.909000", "180038.913000", "180038.916000", "180038.919000", "180038.922000", "180038.925000", "180038.928000", "180038.931000", "180038.934000", "180038.937000", "180038.940000", "180038.943000", "180038.946000", "180038.949000", "180038.952000", "180038.955000", "180038.958000", "180038.961000", "180038.964000", "180038.967000", "180038.971000", "180038.974000", "180038.977000", "180038.980000", "180038.983000", "180118.906000", "180118.910000", "180118.912000", "180118.916000", "180118.919000", "180118.922000", "180118.925000", "180118.928000", "180118.931000", "180118.934000", "180118.937000", "180118.940000", "180118.943000", "180118.947000", "180118.950000", "180118.953000", "180118.963000", "180118.966000", "180118.969000", "180118.972000", "180118.975000", "180118.979000", "180118.982000", "180118.985000", "180118.988000", "180118.991000", "180118.994000", "180157.314000", "180157.318000", "180157.322000", "180157.325000", "180157.328000", "180157.332000", "180157.335000", "180157.338000", "180157.341000", "180157.345000", "180157.348000", "180157.352000", "180157.355000", "180157.359000", "180157.362000", "180157.366000", "180157.370000", "180157.373000", "180157.377000", "180157.381000", "180157.384000", "180157.387000", "180157.390000", "180157.393000", "180157.396000", "180157.399000"],
      "InstanceNumber": [1, 2, 3, 4, 5, 6, 7, 8, 9, 10, 11, 12, 13, 14, 15, 16, 17, 18, 19, 20, 21, 22, 23, 24, 25, 26, 27, 28, 29, 30, 31, 32, 33, 34, 35, 36, 37, 38, 39, 40, 41, 42, 43, 44, 45, 46, 47, 48, 49, 50, 51, 52, 53, 54, 55, 56, 57, 58, 59, 60, 61, 62, 63, 64, 65, 66, 67, 68, 69, 70, 71, 72, 73, 74, 75, 76, 77, 78, 79, 80, 81, 82, 83, 84, 85, 86, 87, 88, 89, 90, 91, 92, 93, 94, 95, 96, 97, 98, 99, 100, 101, 102, 103, 104, 105, 106, 107, 108, 109, 110, 111, 112, 113, 114, 115, 116, 117, 118, 119, 120, 121, 122, 123, 124, 125, 126, 127, 128, 129, 130, 131, 132, 133, 134, 135, 136, 137, 138, 139, 140, 141, 142, 143, 144, 145, 146, 147, 148, 149, 150, 151, 152, 153, 154, 155, 156, 157, 158, 159, 160, 161, 162, 163, 164],
      "LargestImagePixelValue": [2827, 2866, 2737, 2669, 2621, 2649, 2648, 2675, 2608, 2634, 2643, 2606, 2605, 2734, 2605, 2620, 2622, 2633, 2651, 2730, 2636, 2665, 2745, 2573, 2711, 2665, 2625, 2541, 2594, 2571, 2636, 2612, 2588, 2601, 2643, 2636, 2637, 2612, 2612, 2639, 2642, 2668, 2660, 2652, 2658, 2550, 2745, 2615, 2500, 2663, 2634, 2629, 2632, 2598, 2593, 2589, 2657, 2651, 2636, 2646, 2578, 2562, 2557, 2514, 2666, 2674, 2522, 2586, 2534, 2522, 2497, 2548, 2561, 2574, 2581, 2638, 2647, 2622, 2633, 2647, 2649, 2614, 2577, 2582, 2562, 2580, 2559, 2548, 2555, 2597, 2595, 2612, 2609, 2583, 2634, 2607, 2630, 2652, 2644, 2620, 2658, 2676, 2669, 2620, 2604, 2560, 2538, 2558, 2501, 2480, 2795, 2804, 2993, 2781, 2873, 2808, 2867, 2913, 2856, 2863, 2874, 2884, 2898, 2745, 2881, 2925, 3010, 2890, 2915, 2918, 2907, 2865, 2918, 2903, 2861, 2881, 2851, 2830, 2853, 2841, 2889, 2858, 2897, 2902, 2834, 2842, 2813, 2836, 2840, 2846, 2891, 2920, 2887, 2871, 2643, 2581, 2438, 2667, 2628, 2548, 2539, 2538, 2568, 2499],
      "WindowCenter": [709.0, 706.0, 704.0, 704.0, 703.0, 702.0, 702.0, 703.0, 704.0, 705.0, 705.0, 707.0, 706.0, 707.0, 708.0, 708.0, 709.0, 709.0, 709.0, 707.0, 707.0, 706.0, 705.0, 706.0, 704.0, 703.0, 702.0, 702.0, 702.0, 703.0, 703.0, 703.0, 704.0, 704.0, 705.0, 705.0, 705.0, 705.0, 705.0, 706.0, 706.0, 706.0, 706.0, 707.0, 707.0, 695.0, 682.0, 689.0, 687.0, 707.0, 707.0, 708.0, 707.0, 707.0, 706.0, 705.0, 705.0, 705.0, 705.0, 705.0, 706.0, 706.0, 706.0, 708.0, 706.0, 702.0, 704.0, 706.0, 705.0, 703.0, 702.0, 701.0, 701.0, 702.0, 702.0, 703.0, 704.0, 704.0, 706.0, 706.0, 706.0, 706.0, 706.0, 706.0, 705.0, 705.0, 704.0, 704.0, 705.0, 705.0, 704.0, 704.0, 704.0, 705.0, 705.0, 705.0, 705.0, 705.0, 705.0, 706.0, 706.0, 707.0, 706.0, 706.0, 706.0, 704.0, 703.0, 703.0, 702.0, 701.0, 695.0, 708.0, 712.0, 715.0, 713.0, 720.0, 718.0, 716.0, 716.0, 716.0, 715.0, 716.0, 716.0, 714.0, 716.0, 716.0, 718.0, 717.0, 717.0, 715.0, 713.0, 710.0, 710.0, 711.0, 712.0, 712.0, 720.0, 717.0, 717.0, 718.0, 719.0, 718.0, 719.0, 718.0, 718.0, 718.0, 718.0, 719.0, 720.0, 722.0, 722.0, 722.0, 721.0, 720.0, 689.0, 670.0, 694.0, 699.0, 696.0, 695.0, 694.0, 694.0, 694.0, 694.0],
      "WindowWidth": [1540.0, 1532.0, 1525.0, 1525.0, 1523.0, 1521.0, 1519.0, 1522.0, 1524.0, 1526.0, 1529.0, 1532.0, 1531.0, 1534.0, 1537.0, 1536.0, 1538.0, 1539.0, 1539.0, 1534.0, 1533.0, 1532.0, 1529.0, 1531.0, 1525.0, 1521.0, 1518.0, 1518.0, 1520.0, 1521.0, 1522.0, 1523.0, 1524.0, 1526.0, 1528.0, 1529.0, 1529.0, 1528.0, 1529.0, 1530.0, 1531.0, 1531.0, 1532.0, 1532.0, 1533.0, 1500.0, 1466.0, 1486.0, 1481.0, 1533.0, 1533.0, 1536.0, 1533.0, 1532.0, 1529.0, 1527.0, 1528.0, 1528.0, 1528.0, 1529.0, 1529.0, 1529.0, 1531.0, 1537.0, 1531.0, 1520.0, 1526.0, 1530.0, 1526.0, 1522.0, 1518.0, 1517.0, 1516.0, 1518.0, 1519.0, 1521.0, 1524.0, 1526.0, 1529.0, 1530.0, 1530.0, 1530.0, 1529.0, 1529.0, 1528.0, 1528.0, 1526.0, 1526.0, 1527.0, 1527.0, 1526.0, 1524.0, 1525.0, 1527.0, 1528.0, 1528.0, 1529.0, 1528.0, 1528.0, 1530.0, 1531.0, 1532.0, 1531.0, 1530.0, 1530.0, 1526.0, 1522.0, 1521.0, 1518.0, 1516.0, 1501.0, 1536.0, 1547.0, 1554.0, 1551.0, 1569.0, 1566.0, 1560.0, 1558.0, 1558.0, 1557.0, 1558.0, 1557.0, 1555.0, 1560.0, 1560.0, 1564.0, 1563.0, 1562.0, 1557.0, 1548.0, 1542.0, 1542.0, 1543.0, 1547.0, 1547.0, 1569.0, 1562.0, 1563.0, 1566.0, 1567.0, 1566.0, 1567.0, 1566.0, 1566.0, 1565.0, 1565.0, 1568.0, 1570.0, 1575.0, 1576.0, 1576.0, 1573.0, 1570.0, 1486.0, 1437.0, 1498.0, 1510.0, 1502.0, 1500.0, 1497.0, 1498.0, 1498.0, 1497.0]
    },
    "slices": {}
  }
}