{
  "AcquisitionMatrixPE": 72,
  "AcquisitionNumber": 1,
  "AcquisitionTime": "17:37:16.925000",
  "BandwidthPerPixelPhaseEncode": 17.943,
  "BaseResolution": 96,
  "BodyPartExamined": "BRAIN",
  "CoilCombinationMethod": "Sum of Squares",
  "ConsistencyInfo": "N4_VE11C_LATEST_20160120",
  "ConversionSoftware": "dcm2niix",
  "ConversionSoftwareVersion": "v1.0.20211006",
  "DerivedVendorReportedEchoSpacing": 0.000552897,
  "DeviceSerialNumber": "166011",
  "EchoTime": 0.03,
  "EchoTrainLength": 58,
  "EffectiveEchoSpacing": 0.000580542,
  "FlipAngle": 62,
  "ImageOrientationPatientDICOM": [0.999053, -0.0417432, 0.0122578, 0.0416981, 0.999123, 0.00391491],
  "ImageType": [
    "ORIGINAL",
    "PRIMARY",
    "M",
    "ND",
    "MOSAIC"
],
  "ImagingFrequency": 123.259,
  "InPlanePhaseEncodingDirectionDICOM": "COL",
  "InstitutionAddress": "West 130th Street 610,NY,NYC,US,10025",
  "InstitutionName": "MBBI",
  "MRAcquisitionType": "2D",
  "MagneticFieldStrength": 3,
  "Manufacturer": "Siemens",
  "ManufacturersModelName": "Prisma",
  "Modality": "MR",
  "MultibandAccelerationFactor": 3,
  "PartialFourier": 0.75,
  "PatientPosition": "HFS",
  "PercentPhaseFOV": 100,
  "PercentSampling": 75,
  "PhaseEncodingDirection": "j-",
  "PhaseEncodingSteps": 58,
  "PhaseOversampling": 0.05,
  "PhaseResolution": 0.75,
  "PixelBandwidth": 2265,
  "ProcedureStepDescription": "White^Word_recognition",
  "ProtocolName": "func_vwfate_run9",
  "PulseSequenceDetails": "%SiemensSeq%\\ep2d_bold",
  "ReceiveCoilActiveElements": "HC1-7",
  "ReceiveCoilName": "HeadNeck_64",
  "ReconMatrixPE": 96,
  "RefLinesPE": 40,
  "RepetitionTime": 1.5,
  "SAR": 0.0454226,
  "ScanOptions": "PFP\\FS",
  "ScanningSequence": "EP",
  "SequenceName": "*epfid2d1_72",
  "SequenceVariant": "SK\\OSP",
  "SeriesDescription": "func_vwfate_run9",
  "SeriesNumber": 11,
  "ShimSetting": [-1156, -1365, 710, 650, -107, -46, 75, 63],
  "SliceThickness": 2,
  "SliceTiming": [1.075, 0, 0.74, 0.0675, 0.8075, 0.1325, 0.8725, 0.2, 0.94, 0.2675, 1.0075, 0.4025, 1.1425, 0.47, 1.21, 0.5375, 1.2775, 0.605, 1.345, 0.6725, 1.4125, 0.335, 1.075, 0, 0.74, 0.0675, 0.8075, 0.1325, 0.8725, 0.2, 0.94, 0.2675, 1.0075, 0.4025, 1.1425, 0.47, 1.21, 0.5375, 1.2775, 0.605, 1.345, 0.6725, 1.4125, 0.335, 1.075, 0, 0.74, 0.0675, 0.8075, 0.1325, 0.8725, 0.2, 0.94, 0.2675, 1.0075, 0.4025, 1.1425, 0.47, 1.21, 0.5375, 1.2775, 0.605, 1.345, 0.6725, 1.4125, 0.335],
  "SoftwareVersions": "syngo MR E11",
  "SpacingBetweenSlices": 2,
  "StationName": "AWP166011",
  "TaskName": "vwfate",
  "TotalReadoutTime": 0.0551515,
  "TxRefAmp": 217.308,
  "dcmmeta_affine": [
    [-1.9981063604354858, 0.08339618146419525, 0.02482086978852749, 95.5181884765625],
    [0.08348644524812698, 1.998245120048523, 0.006800159811973572, -80.54553985595703],
    [0.024515537545084953, -0.007829824462532997, 1.999834418296814, -35.26945495605469],
    [0.0, 0.0, 0.0, 1.0]
],
  "dcmmeta_reorient_transform": [
    [0.0, -1.0, 0.0, 95.0],
    [1.0, 0.0, 0.0, 0.0],
    [0.0, 0.0, 1.0, 0.0],
    [0.0, 0.0, 0.0, 1.0]
],
  "dcmmeta_shape": [96, 96, 66, 164],
  "dcmmeta_slice_dim": 2,
  "dcmmeta_version": 0.6,
  "global": {
    "const": {
      "AcquisitionMatrix": [96, 0, 0, 72],
      "AngioFlag": "N",
      "BitsAllocated": 16,
      "BitsStored": 12,
      "BodyPartExamined": "BRAIN",
      "Columns": 864,
      "EchoNumbers": 1,
      "EchoTime": 30.0,
      "EchoTrainLength": 58,
      "FlipAngle": 62.0,
      "HighBit": 11,
      "ImageOrientationPatient": [0.99905317694977, -0.0417432237723, 0.01225776878833, 0.04169809032711, 0.99912258643583, 0.00391491211396],
      "ImagePositionPatient": [-902.73779957047, -844.55510093003, -48.433908732436],
      "ImageType": [
        "ORIGINAL",
        "PRIMARY",
        "M",
        "ND",
        "MOSAIC"
],
      "ImagedNucleus": "1H",
      "ImagingFrequency": 123.259486,
      "InPlanePhaseEncodingDirection": "COL",
      "MRAcquisitionType": "2D",
      "MagneticFieldStrength": 3.0,
      "Manufacturer": "SIEMENS",
      "ManufacturerModelName": "Prisma",
      "Modality": "MR",
      "NumberOfAverages": 1.0,
      "NumberOfPhaseEncodingSteps": 58,
      "PercentPhaseFieldOfView": 100.0,
      "PercentSampling": 75.0,
      "PerformedProcedureStepStartTime": "165701.657000",
      "PhotometricInterpretation": "MONOCHROME2",
      "PixelBandwidth": 2265.0,
      "PixelRepresentation": 0,
      "PixelSpacing": [2.0, 2.0],
      "ProtocolName": "func_vwfate_run9",
      "RepetitionTime": 1500.0,
      "Rows": 864,
      "SAR": 0.0454225762315,
      "SamplesPerPixel": 1,
      "ScanOptions": [
        "PFP",
        "FS"
],
      "ScanningSequence": "EP",
      "SequenceName": "*epfid2d1_72",
      "SequenceVariant": [
        "SK",
        "OSP"
],
      "SeriesDescription": "func_vwfate_run9",
      "SeriesNumber": 11,
      "SeriesTime": "173718.907000",
      "SliceLocation": -34.354975448691,
      "SliceThickness": 2.0,
      "SmallestImagePixelValue": 0,
      "SoftwareVersions": "syngo MR E11",
      "SpacingBetweenSlices": 2.0000000284647,
      "SpecificCharacterSet": "ISO_IR 100",
      "StudyID": "2",
      "StudyTime": "165701.580000",
      "TransmitCoilName": "Body",
      "VariableFlipAngleFlag": "N",
      "WindowCenterWidthExplanation": "Algo1",
      "dBdt": 0.0},
    "slices": {}
  },
  "time": {
    "samples": {
      "AcquisitionNumber": [1, 2, 3, 4, 5, 6, 7, 8, 9, 10, 11, 12, 13, 14, 15, 16, 17, 18, 19, 20, 21, 22, 23, 24, 25, 26, 27, 28, 29, 30, 31, 32, 33, 34, 35, 36, 37, 38, 39, 40, 41, 42, 43, 44, 45, 46, 47, 48, 49, 50, 51, 52, 53, 54, 55, 56, 57, 58, 59, 60, 61, 62, 63, 64, 65, 66, 67, 68, 69, 70, 71, 72, 73, 74, 75, 76, 77, 78, 79, 80, 81, 82, 83, 84, 85, 86, 87, 88, 89, 90, 91, 92, 93, 94, 95, 96, 97, 98, 99, 100, 101, 102, 103, 104, 105, 106, 107, 108, 109, 110, 111, 112, 113, 114, 115, 116, 117, 118, 119, 120, 121, 122, 123, 124, 125, 126, 127, 128, 129, 130, 131, 132, 133, 134, 135, 136, 137, 138, 139, 140, 141, 142, 143, 144, 145, 146, 147, 148, 149, 150, 151, 152, 153, 154, 155, 156, 157, 158, 159, 160, 161, 162, 163, 164],
      "AcquisitionTime": ["173716.925000", "173718.425000", "173719.925000", "173721.425000", "173722.925000", "173724.425000", "173725.925000", "173727.425000", "173728.925000", "173730.425000", "173731.925000", "173733.425000", "173734.925000", "173736.425000", "173737.925000", "173739.425000", "173740.925000", "173742.425000", "173743.925000", "173745.425000", "173746.925000", "173748.425000", "173749.925000", "173751.425000", "173752.925000", "173754.425000", "173755.925000", "173757.425000", "173758.925000", "173800.425000", "173801.925000", "173803.425000", "173804.925000", "173806.425000", "173807.925000", "173809.425000", "173810.925000", "173812.425000", "173813.925000", "173815.425000", "173816.925000", "173818.425000", "173819.925000", "173821.425000", "173822.925000", "173824.425000", "173825.925000", "173827.425000", "173828.925000", "173830.425000", "173831.925000", "173833.425000", "173834.925000", "173836.425000", "173837.925000", "173839.425000", "173840.925000", "173842.425000", "173843.925000", "173845.425000", "173846.925000", "173848.425000", "173849.925000", "173851.425000", "173852.925000", "173854.425000", "173855.925000", "173857.425000", "173858.925000", "173900.425000", "173901.925000", "173903.425000", "173904.925000", "173906.425000", "173907.925000", "173909.425000", "173910.925000", "173912.425000", "173913.925000", "173915.425000", "173916.925000", "173918.425000", "173919.925000", "173921.425000", "173922.925000", "173924.425000", "173925.925000", "173927.425000", "173928.925000", "173930.425000", "173931.925000", "173933.425000", "173934.925000", "173936.425000", "173937.925000", "173939.425000", "173940.925000", "173942.425000", "173943.925000", "173945.425000", "173946.925000", "173948.425000", "173949.925000", "173951.425000", "173952.925000", "173954.425000", "173955.925000", "173957.425000", "173958.925000", "174000.425000", "174001.925000", "174003.425000", "174004.925000", "174006.425000", "174007.925000", "174009.425000", "174010.925000", "174012.425000", "174013.925000", "174015.425000", "174016.925000", "174018.425000", "174019.925000", "174021.425000", "174022.925000", "174024.425000", "174025.925000", "174027.425000", "174028.925000", "174030.425000", "174031.925000", "174033.425000", "174034.925000", "174036.425000", "174037.925000", "174039.425000", "174040.925000", "174042.425000", "174043.925000", "174045.425000", "174046.925000", "174048.425000", "174049.925000", "174051.425000", "174052.925000", "174054.425000", "174055.925000", "174057.425000", "174058.925000", "174100.425000", "174101.925000", "174103.425000", "174104.925000", "174106.425000", "174107.925000", "174109.425000", "174110.925000", "174112.425000", "174113.925000", "174115.425000", "174116.925000", "174118.425000", "174119.925000", "174121.425000"],
      "ContentTime": ["173718.911000", "173758.906000", "173758.909000", "173758.912000", "173758.916000", "173758.919000", "173758.922000", "173758.925000", "173758.928000", "173758.931000", "173758.940000", "173758.943000", "173758.946000", "173758.949000", "173758.952000", "173758.956000", "173758.959000", "173758.968000", "173758.971000", "173758.974000", "173758.977000", "173758.980000", "173758.983000", "173758.991000", "173758.994000", "173758.997000", "173759.002000", "173759.005000", "173838.906000", "173838.909000", "173838.913000", "173838.916000", "173838.919000", "173838.922000", "173838.925000", "173838.928000", "173838.931000", "173838.934000", "173838.937000", "173838.940000", "173838.943000", "173838.953000", "173838.956000", "173838.959000", "173838.962000", "173838.965000", "173838.968000", "173838.971000", "173838.974000", "173838.977000", "173838.980000", "173838.983000", "173838.986000", "173838.989000", "173918.906000", "173918.909000", "173918.912000", "173918.915000", "173918.919000", "173918.922000", "173918.925000", "173918.928000", "173918.931000", "173918.934000", "173918.937000", "173918.940000", "173918.943000", "173918.946000", "173918.949000", "173918.952000", "173918.955000", "173918.958000", "173918.961000", "173918.964000", "173918.974000", "173918.977000", "173918.980000", "173918.983000", "173918.986000", "173918.989000", "173918.992000", "173958.906000", "173958.910000", "173958.913000", "173958.916000", "173958.919000", "173958.922000", "173958.926000", "173958.929000", "173958.932000", "173958.935000", "173958.938000", "173958.941000", "173958.944000", "173958.947000", "173958.950000", "173958.953000", "173958.956000", "173958.959000", "173958.971000", "173958.975000", "173958.978000", "173958.981000", "173958.984000", "173958.987000", "173958.990000", "173958.993000", "173958.996000", "174038.906000", "174038.909000", "174038.912000", "174038.915000", "174038.918000", "174038.921000", "174038.924000", "174038.927000", "174038.931000", "174038.934000", "174038.937000", "174038.940000", "174038.943000", "174038.946000", "174038.949000", "174038.952000", "174038.955000", "174038.958000", "174038.961000", "174038.964000", "174038.967000", "174038.970000", "174038.973000", "174038.976000", "174038.980000", "174038.983000", "174038.986000", "174118.907000", "174118.911000", "174118.914000", "174118.917000", "174118.920000", "174118.923000", "174118.926000", "174118.929000", "174118.932000", "174118.935000", "174118.938000", "174118.941000", "174118.944000", "174118.947000", "174118.950000", "174118.953000", "174118.956000", "174118.960000", "174118.963000", "174118.966000", "174118.969000", "174118.972000", "174118.975000", "174118.978000", "174118.981000", "174118.984000", "174122.368000", "174122.372000", "174122.376000"],
      "InstanceCreationTime": ["173718.911000", "173758.906000", "173758.909000", "173758.912000", "173758.916000", "173758.919000", "173758.922000", "173758.925000", "173758.928000", "173758.931000", "173758.940000", "173758.943000", "173758.946000", "173758.949000", "173758.952000", "173758.956000", "173758.959000", "173758.968000", "173758.971000", "173758.974000", "173758.977000", "173758.980000", "173758.983000", "173758.991000", "173758.994000", "173758.997000", "173759.002000", "173759.005000", "173838.906000", "173838.909000", "173838.913000", "173838.916000", "173838.919000", "173838.922000", "173838.925000", "173838.928000", "173838.931000", "173838.934000", "173838.937000", "173838.940000", "173838.943000", "173838.953000", "173838.956000", "173838.959000", "173838.962000", "173838.965000", "173838.968000", "173838.971000", "173838.974000", "173838.977000", "173838.980000", "173838.983000", "173838.986000", "173838.989000", "173918.906000", "173918.909000", "173918.912000", "173918.915000", "173918.919000", "173918.922000", "173918.925000", "173918.928000", "173918.931000", "173918.934000", "173918.937000", "173918.940000", "173918.943000", "173918.946000", "173918.949000", "173918.952000", "173918.955000", "173918.958000", "173918.961000", "173918.964000", "173918.974000", "173918.977000", "173918.980000", "173918.983000", "173918.986000", "173918.989000", "173918.992000", "173958.906000", "173958.910000", "173958.913000", "173958.916000", "173958.919000", "173958.922000", "173958.926000", "173958.929000", "173958.932000", "173958.935000", "173958.938000", "173958.941000", "173958.944000", "173958.947000", "173958.950000", "173958.953000", "173958.956000", "173958.959000", "173958.971000", "173958.975000", "173958.978000", "173958.981000", "173958.984000", "173958.987000", "173958.990000", "173958.993000", "173958.996000", "174038.906000", "174038.909000", "174038.912000", "174038.915000", "174038.918000", "174038.921000", "174038.924000", "174038.927000", "174038.931000", "174038.934000", "174038.937000", "174038.940000", "174038.943000", "174038.946000", "174038.949000", "174038.952000", "174038.955000", "174038.958000", "174038.961000", "174038.964000", "174038.967000", "174038.970000", "174038.973000", "174038.976000", "174038.980000", "174038.983000", "174038.986000", "174118.907000", "174118.911000", "174118.914000", "174118.917000", "174118.920000", "174118.923000", "174118.926000", "174118.929000", "174118.932000", "174118.935000", "174118.938000", "174118.941000", "174118.944000", "174118.947000", "174118.950000", "174118.953000", "174118.956000", "174118.960000", "174118.963000", "174118.966000", "174118.969000", "174118.972000", "174118.975000", "174118.978000", "174118.981000", "174118.984000", "174122.368000", "174122.372000", "174122.376000"],
      "InstanceNumber": [1, 2, 3, 4, 5, 6, 7, 8, 9, 10, 11, 12, 13, 14, 15, 16, 17, 18, 19, 20, 21, 22, 23, 24, 25, 26, 27, 28, 29, 30, 31, 32, 33, 34, 35, 36, 37, 38, 39, 40, 41, 42, 43, 44, 45, 46, 47, 48, 49, 50, 51, 52, 53, 54, 55, 56, 57, 58, 59, 60, 61, 62, 63, 64, 65, 66, 67, 68, 69, 70, 71, 72, 73, 74, 75, 76, 77, 78, 79, 80, 81, 82, 83, 84, 85, 86, 87, 88, 89, 90, 91, 92, 93, 94, 95, 96, 97, 98, 99, 100, 101, 102, 103, 104, 105, 106, 107, 108, 109, 110, 111, 112, 113, 114, 115, 116, 117, 118, 119, 120, 121, 122, 123, 124, 125, 126, 127, 128, 129, 130, 131, 132, 133, 134, 135, 136, 137, 138, 139, 140, 141, 142, 143, 144, 145, 146, 147, 148, 149, 150, 151, 152, 153, 154, 155, 156, 157, 158, 159, 160, 161, 162, 163, 164],
      "LargestImagePixelValue": [3452, 3332, 3258, 3178, 3178, 3175, 3195, 3177, 3170, 3277, 3204, 3188, 3207, 3177, 2882, 2715, 3058, 3102, 3073, 3102, 2993, 3250, 3205, 3200, 3206, 3077, 3007, 3016, 3042, 3035, 3033, 3016, 3014, 3084, 3065, 3228, 3056, 3444, 3284, 3168, 3130, 3128, 3164, 3135, 3170, 3138, 3082, 2730, 3143, 2893, 3032, 2887, 3148, 3057, 3072, 3077, 3084, 3049, 3074, 2990, 2685, 2595, 3024, 2883, 3119, 3068, 3028, 2983, 3126, 2913, 2940, 2886, 2919, 2946, 2956, 2934, 2890, 2901, 2883, 2886, 2966, 2882, 2895, 2912, 3366, 2898, 3430, 2979, 2850, 2844, 2792, 2851, 2772, 2730, 2807, 2784, 2795, 2881, 2772, 2722, 2692, 2770, 2719, 2661, 2573, 2732, 2983, 2870, 2846, 2901, 2851, 2868, 2777, 2732, 2784, 2917, 2710, 3033, 2946, 2850, 2840, 2838, 2873, 2838, 2924, 2616, 2573, 2638, 2722, 2630, 2598, 2895, 2817, 2774, 2712, 2707, 2797, 2825, 2811, 2856, 2747, 2629, 2612, 2604, 2622, 2643, 2632, 2655, 2624, 2624, 2578, 2634, 2663, 2683, 2760, 2751, 2812, 2752, 2742, 2644, 2695, 2630, 2985, 2809],
      "WindowCenter": [748.0, 743.0, 740.0, 739.0, 739.0, 740.0, 742.0, 742.0, 743.0, 744.0, 745.0, 746.0, 745.0, 743.0, 720.0, 697.0, 726.0, 737.0, 737.0, 739.0, 742.0, 744.0, 743.0, 741.0, 743.0, 742.0, 743.0, 743.0, 743.0, 743.0, 743.0, 744.0, 745.0, 745.0, 746.0, 730.0, 732.0, 752.0, 750.0, 748.0, 745.0, 742.0, 739.0, 739.0, 739.0, 739.0, 711.0, 701.0, 718.0, 717.0, 722.0, 723.0, 725.0, 730.0, 731.0, 731.0, 732.0, 730.0, 730.0, 727.0, 692.0, 701.0, 716.0, 722.0, 730.0, 728.0, 728.0, 729.0, 730.0, 730.0, 731.0, 730.0, 729.0, 729.0, 729.0, 730.0, 730.0, 730.0, 730.0, 730.0, 731.0, 732.0, 732.0, 733.0, 718.0, 722.0, 723.0, 724.0, 721.0, 719.0, 718.0, 717.0, 717.0, 717.0, 716.0, 715.0, 717.0, 717.0, 717.0, 716.0, 715.0, 716.0, 716.0, 693.0, 686.0, 708.0, 728.0, 726.0, 725.0, 726.0, 726.0, 726.0, 726.0, 726.0, 727.0, 728.0, 722.0, 722.0, 727.0, 726.0, 726.0, 726.0, 727.0, 727.0, 727.0, 699.0, 701.0, 706.0, 706.0, 707.0, 700.0, 725.0, 722.0, 722.0, 722.0, 722.0, 723.0, 723.0, 724.0, 724.0, 715.0, 703.0, 714.0, 714.0, 713.0, 712.0, 711.0, 710.0, 710.0, 710.0, 710.0, 711.0, 712.0, 713.0, 713.0, 715.0, 715.0, 714.0, 712.0, 713.0, 705.0, 682.0, 708.0, 707.0],
      "WindowWidth": [1656.0, 1641.0, 1632.0, 1627.0, 1627.0, 1630.0, 1636.0, 1639.0, 1640.0, 1642.0, 1648.0, 1648.0, 1647.0, 1641.0, 1572.0, 1507.0, 1591.0, 1621.0, 1621.0, 1629.0, 1636.0, 1644.0, 1641.0, 1633.0, 1640.0, 1638.0, 1638.0, 1638.0, 1639.0, 1639.0, 1640.0, 1642.0, 1644.0, 1647.0, 1649.0, 1603.0, 1609.0, 1667.0, 1663.0, 1655.0, 1647.0, 1636.0, 1628.0, 1627.0, 1629.0, 1627.0, 1550.0, 1520.0, 1565.0, 1562.0, 1577.0, 1579.0, 1587.0, 1600.0, 1604.0, 1604.0, 1606.0, 1602.0, 1600.0, 1592.0, 1495.0, 1517.0, 1560.0, 1576.0, 1598.0, 1594.0, 1594.0, 1597.0, 1599.0, 1599.0, 1602.0, 1601.0, 1598.0, 1595.0, 1596.0, 1600.0, 1601.0, 1600.0, 1599.0, 1600.0, 1603.0, 1606.0, 1605.0, 1607.0, 1568.0, 1578.0, 1583.0, 1582.0, 1573.0, 1566.0, 1564.0, 1562.0, 1561.0, 1561.0, 1558.0, 1557.0, 1560.0, 1561.0, 1560.0, 1558.0, 1555.0, 1558.0, 1559.0, 1497.0, 1477.0, 1537.0, 1594.0, 1586.0, 1584.0, 1587.0, 1586.0, 1586.0, 1587.0, 1586.0, 1589.0, 1591.0, 1577.0, 1576.0, 1591.0, 1587.0, 1587.0, 1587.0, 1588.0, 1590.0, 1590.0, 1514.0, 1519.0, 1529.0, 1530.0, 1531.0, 1513.0, 1583.0, 1576.0, 1575.0, 1575.0, 1576.0, 1579.0, 1579.0, 1580.0, 1582.0, 1557.0, 1524.0, 1553.0, 1553.0, 1550.0, 1546.0, 1543.0, 1542.0, 1539.0, 1540.0, 1541.0, 1545.0, 1547.0, 1548.0, 1549.0, 1554.0, 1554.0, 1551.0, 1545.0, 1548.0, 1526.0, 1467.0, 1536.0, 1532.0]
    },
    "slices": {}
  }
}