{
  "AcquisitionMatrixPE": 72,
  "AcquisitionNumber": 1,
  "AcquisitionTime": "17:23:25.427500",
  "BandwidthPerPixelPhaseEncode": 17.943,
  "BaseResolution": 96,
  "BodyPartExamined": "BRAIN",
  "CoilCombinationMethod": "Sum of Squares",
  "ConsistencyInfo": "N4_VE11C_LATEST_20160120",
  "ConversionSoftware": "dcm2niix",
  "ConversionSoftwareVersion": "v1.0.20211006",
  "DerivedVendorReportedEchoSpacing": 0.000552897,
  "DeviceSerialNumber": "166011",
  "EchoTime": 0.03,
  "EchoTrainLength": 58,
  "EffectiveEchoSpacing": 0.000580542,
  "FlipAngle": 62,
  "ImageOrientationPatientDICOM": [0.999053, -0.0417432, 0.0122578, 0.0416981, 0.999123, 0.00391491],
  "ImageType": [
    "ORIGINAL",
    "PRIMARY",
    "M",
    "ND",
    "MOSAIC"
],
  "ImagingFrequency": 123.259,
  "InPlanePhaseEncodingDirectionDICOM": "COL",
  "InstitutionAddress": "West 130th Street 610,NY,NYC,US,10025",
  "InstitutionName": "MBBI",
  "MRAcquisitionType": "2D",
  "MagneticFieldStrength": 3,
  "Manufacturer": "Siemens",
  "ManufacturersModelName": "Prisma",
  "Modality": "MR",
  "MultibandAccelerationFactor": 3,
  "PartialFourier": 0.75,
  "PatientPosition": "HFS",
  "PercentPhaseFOV": 100,
  "PercentSampling": 75,
  "PhaseEncodingDirection": "j-",
  "PhaseEncodingSteps": 58,
  "PhaseOversampling": 0.05,
  "PhaseResolution": 0.75,
  "PixelBandwidth": 2265,
  "ProcedureStepDescription": "White^Word_recognition",
  "ProtocolName": "func_vwfate_run8",
  "PulseSequenceDetails": "%SiemensSeq%\\ep2d_bold",
  "ReceiveCoilActiveElements": "HC1-7",
  "ReceiveCoilName": "HeadNeck_64",
  "ReconMatrixPE": 96,
  "RefLinesPE": 40,
  "RepetitionTime": 1.5,
  "SAR": 0.0454226,
  "ScanOptions": "PFP\\FS",
  "ScanningSequence": "EP",
  "SequenceName": "*epfid2d1_72",
  "SequenceVariant": "SK\\OSP",
  "SeriesDescription": "func_vwfate_run8",
  "SeriesNumber": 9,
  "ShimSetting": [-1156, -1365, 710, 650, -107, -46, 75, 63],
  "SliceThickness": 2,
  "SliceTiming": [1.075, 0, 0.74, 0.0675, 0.8075, 0.135, 0.875, 0.2025, 0.9425, 0.2675, 1.0075, 0.4025, 1.1425, 0.47, 1.21, 0.5375, 1.2775, 0.605, 1.345, 0.6725, 1.4125, 0.335, 1.075, 0, 0.74, 0.0675, 0.8075, 0.135, 0.875, 0.2025, 0.9425, 0.2675, 1.0075, 0.4025, 1.1425, 0.47, 1.21, 0.5375, 1.2775, 0.605, 1.345, 0.6725, 1.4125, 0.335, 1.075, 0, 0.74, 0.0675, 0.8075, 0.135, 0.875, 0.2025, 0.9425, 0.2675, 1.0075, 0.4025, 1.1425, 0.47, 1.21, 0.5375, 1.2775, 0.605, 1.345, 0.6725, 1.4125, 0.335],
  "SoftwareVersions": "syngo MR E11",
  "SpacingBetweenSlices": 2,
  "StationName": "AWP166011",
  "TaskName": "vwfate",
  "TotalReadoutTime": 0.0551515,
  "TxRefAmp": 217.308,
  "dcmmeta_affine": [
    [-1.9981063604354858, 0.08339618146419525, 0.02482086978852749, 95.5181884765625],
    [0.08348644524812698, 1.998245120048523, 0.006800159811973572, -80.54553985595703],
    [0.024515537545084953, -0.007829824462532997, 1.999834418296814, -35.26945495605469],
    [0.0, 0.0, 0.0, 1.0]
],
  "dcmmeta_reorient_transform": [
    [0.0, -1.0, 0.0, 95.0],
    [1.0, 0.0, 0.0, 0.0],
    [0.0, 0.0, 1.0, 0.0],
    [0.0, 0.0, 0.0, 1.0]
],
  "dcmmeta_shape": [96, 96, 66, 164],
  "dcmmeta_slice_dim": 2,
  "dcmmeta_version": 0.6,
  "global": {
    "const": {
      "AcquisitionMatrix": [96, 0, 0, 72],
      "AngioFlag": "N",
      "BitsAllocated": 16,
      "BitsStored": 12,
      "BodyPartExamined": "BRAIN",
      "Columns": 864,
      "EchoNumbers": 1,
      "EchoTime": 30.0,
      "EchoTrainLength": 58,
      "FlipAngle": 62.0,
      "HighBit": 11,
      "ImageOrientationPatient": [0.99905317694977, -0.0417432237723, 0.01225776878833, 0.04169809032711, 0.99912258643583, 0.00391491211396],
      "ImagePositionPatient": [-902.73779957047, -844.55510093003, -48.433908732436],
      "ImageType": [
        "ORIGINAL",
        "PRIMARY",
        "M",
        "ND",
        "MOSAIC"
],
      "ImagedNucleus": "1H",
      "ImagingFrequency": 123.259481,
      "InPlanePhaseEncodingDirection": "COL",
      "MRAcquisitionType": "2D",
      "MagneticFieldStrength": 3.0,
      "Manufacturer": "SIEMENS",
      "ManufacturerModelName": "Prisma",
      "Modality": "MR",
      "NumberOfAverages": 1.0,
      "NumberOfPhaseEncodingSteps": 58,
      "PercentPhaseFieldOfView": 100.0,
      "PercentSampling": 75.0,
      "PerformedProcedureStepStartTime": "165701.657000",
      "PhotometricInterpretation": "MONOCHROME2",
      "PixelBandwidth": 2265.0,
      "PixelRepresentation": 0,
      "PixelSpacing": [2.0, 2.0],
      "ProtocolName": "func_vwfate_run8",
      "RepetitionTime": 1500.0,
      "Rows": 864,
      "SAR": 0.0454225762315,
      "SamplesPerPixel": 1,
      "ScanOptions": [
        "PFP",
        "FS"
],
      "ScanningSequence": "EP",
      "SequenceName": "*epfid2d1_72",
      "SequenceVariant": [
        "SK",
        "OSP"
],
      "SeriesDescription": "func_vwfate_run8",
      "SeriesNumber": 9,
      "SeriesTime": "172359.003000",
      "SliceLocation": -34.354975448691,
      "SliceThickness": 2.0,
      "SmallestImagePixelValue": 0,
      "SoftwareVersions": "syngo MR E11",
      "SpacingBetweenSlices": 2.0000000284647,
      "SpecificCharacterSet": "ISO_IR 100",
      "StudyID": "2",
      "StudyTime": "165701.580000",
      "TransmitCoilName": "Body",
      "VariableFlipAngleFlag": "N",
      "WindowCenterWidthExplanation": "Algo1",
      "dBdt": 0.0},
    "slices": {}
  },
  "time": {
    "samples": {
      "AcquisitionNumber": [1, 2, 3, 4, 5, 6, 7, 8, 9, 10, 11, 12, 13, 14, 15, 16, 17, 18, 19, 20, 21, 22, 23, 24, 25, 26, 27, 28, 29, 30, 31, 32, 33, 34, 35, 36, 37, 38, 39, 40, 41, 42, 43, 44, 45, 46, 47, 48, 49, 50, 51, 52, 53, 54, 55, 56, 57, 58, 59, 60, 61, 62, 63, 64, 65, 66, 67, 68, 69, 70, 71, 72, 73, 74, 75, 76, 77, 78, 79, 80, 81, 82, 83, 84, 85, 86, 87, 88, 89, 90, 91, 92, 93, 94, 95, 96, 97, 98, 99, 100, 101, 102, 103, 104, 105, 106, 107, 108, 109, 110, 111, 112, 113, 114, 115, 116, 117, 118, 119, 120, 121, 122, 123, 124, 125, 126, 127, 128, 129, 130, 131, 132, 133, 134, 135, 136, 137, 138, 139, 140, 141, 142, 143, 144, 145, 146, 147, 148, 149, 150, 151, 152, 153, 154, 155, 156, 157, 158, 159, 160, 161, 162, 163, 164],
      "AcquisitionTime": ["172325.427500", "172326.927500", "172328.427500", "172329.927500", "172331.427500", "172332.927500", "172334.427500", "172335.927500", "172337.427500", "172338.927500", "172340.427500", "172341.927500", "172343.427500", "172344.927500", "172346.427500", "172347.927500", "172349.427500", "172350.927500", "172352.427500", "172353.927500", "172355.427500", "172356.927500", "172358.427500", "172359.927500", "172401.427500", "172402.927500", "172404.427500", "172405.927500", "172407.427500", "172408.927500", "172410.427500", "172411.927500", "172413.427500", "172414.927500", "172416.427500", "172417.927500", "172419.427500", "172420.927500", "172422.427500", "172423.927500", "172425.427500", "172426.927500", "172428.427500", "172429.927500", "172431.427500", "172432.927500", "172434.427500", "172435.927500", "172437.427500", "172438.927500", "172440.427500", "172441.927500", "172443.427500", "172444.927500", "172446.427500", "172447.927500", "172449.427500", "172450.927500", "172452.427500", "172453.927500", "172455.427500", "172456.927500", "172458.427500", "172459.927500", "172501.427500", "172502.927500", "172504.427500", "172505.927500", "172507.427500", "172508.927500", "172510.427500", "172511.927500", "172513.427500", "172514.927500", "172516.427500", "172517.927500", "172519.427500", "172520.927500", "172522.427500", "172523.927500", "172525.427500", "172526.927500", "172528.427500", "172529.927500", "172531.427500", "172532.927500", "172534.427500", "172535.927500", "172537.427500", "172538.927500", "172540.427500", "172541.927500", "172543.427500", "172544.927500", "172546.427500", "172547.927500", "172549.427500", "172550.927500", "172552.427500", "172553.927500", "172555.427500", "172556.927500", "172558.427500", "172559.927500", "172601.427500", "172602.927500", "172604.427500", "172605.927500", "172607.427500", "172608.927500", "172610.427500", "172611.927500", "172613.427500", "172614.927500", "172616.427500", "172617.927500", "172619.427500", "172620.927500", "172622.427500", "172623.927500", "172625.427500", "172626.927500", "172628.427500", "172629.927500", "172631.427500", "172632.927500", "172634.427500", "172635.927500", "172637.427500", "172638.927500", "172640.427500", "172641.927500", "172643.427500", "172644.927500", "172646.427500", "172647.927500", "172649.427500", "172650.927500", "172652.427500", "172653.927500", "172655.427500", "172656.927500", "172658.427500", "172659.927500", "172701.427500", "172702.927500", "172704.427500", "172705.927500", "172707.427500", "172708.927500", "172710.427500", "172711.927500", "172713.427500", "172714.927500", "172716.427500", "172717.927500", "172719.427500", "172720.927500", "172722.427500", "172723.927500", "172725.427500", "172726.927500", "172728.427500", "172729.927500"],
      "ContentTime": ["172359.007000", "172359.011000", "172359.014000", "172359.025000", "172359.028000", "172359.031000", "172359.034000", "172359.037000", "172359.040000", "172359.043000", "172359.046000", "172359.049000", "172359.053000", "172359.056000", "172359.059000", "172359.062000", "172359.070000", "172359.073000", "172359.076000", "172359.079000", "172359.082000", "172359.085000", "172439.002000", "172439.005000", "172439.009000", "172439.012000", "172439.015000", "172439.028000", "172439.031000", "172439.034000", "172439.037000", "172439.040000", "172439.043000", "172439.046000", "172439.049000", "172439.052000", "172439.055000", "172439.058000", "172439.062000", "172439.065000", "172439.068000", "172439.071000", "172439.074000", "172439.077000", "172439.086000", "172439.090000", "172439.093000", "172439.096000", "172439.099000", "172519.003000", "172519.007000", "172519.010000", "172519.015000", "172519.019000", "172519.023000", "172519.026000", "172519.030000", "172519.033000", "172519.036000", "172519.040000", "172519.043000", "172519.046000", "172519.049000", "172519.052000", "172519.055000", "172519.058000", "172519.061000", "172519.064000", "172519.067000", "172519.070000", "172519.073000", "172519.076000", "172519.079000", "172519.085000", "172519.088000", "172559.002000", "172559.006000", "172559.009000", "172559.012000", "172559.015000", "172559.018000", "172559.021000", "172559.024000", "172559.027000", "172559.030000", "172559.033000", "172559.036000", "172559.039000", "172559.042000", "172559.045000", "172559.048000", "172559.051000", "172559.054000", "172559.057000", "172559.060000", "172559.063000", "172559.067000", "172559.070000", "172559.072000", "172559.076000", "172559.079000", "172559.082000", "172639.002000", "172639.006000", "172639.009000", "172639.012000", "172639.015000", "172639.018000", "172639.021000", "172639.024000", "172639.027000", "172639.030000", "172639.033000", "172639.036000", "172639.040000", "172639.043000", "172639.046000", "172639.049000", "172639.052000", "172639.055000", "172639.058000", "172639.061000", "172639.064000", "172639.067000", "172639.070000", "172639.073000", "172639.077000", "172639.080000", "172639.083000", "172719.002000", "172719.006000", "172719.009000", "172719.012000", "172719.016000", "172719.019000", "172719.022000", "172719.026000", "172719.029000", "172719.032000", "172719.035000", "172719.038000", "172719.041000", "172719.044000", "172719.047000", "172719.050000", "172719.053000", "172719.056000", "172719.059000", "172719.063000", "172719.066000", "172719.069000", "172719.072000", "172719.075000", "172719.078000", "172719.081000", "172731.018000", "172731.022000", "172731.025000", "172731.028000", "172731.031000", "172731.035000", "172731.038000", "172731.041000", "172731.045000"],
      "InstanceCreationTime": ["172359.007000", "172359.011000", "172359.014000", "172359.025000", "172359.028000", "172359.031000", "172359.034000", "172359.037000", "172359.040000", "172359.043000", "172359.046000", "172359.049000", "172359.053000", "172359.056000", "172359.059000", "172359.062000", "172359.070000", "172359.073000", "172359.076000", "172359.079000", "172359.082000", "172359.085000", "172439.002000", "172439.005000", "172439.009000", "172439.012000", "172439.015000", "172439.028000", "172439.031000", "172439.034000", "172439.037000", "172439.040000", "172439.043000", "172439.046000", "172439.049000", "172439.052000", "172439.055000", "172439.058000", "172439.062000", "172439.065000", "172439.068000", "172439.071000", "172439.074000", "172439.077000", "172439.086000", "172439.090000", "172439.093000", "172439.096000", "172439.099000", "172519.003000", "172519.007000", "172519.010000", "172519.015000", "172519.019000", "172519.023000", "172519.026000", "172519.030000", "172519.033000", "172519.036000", "172519.040000", "172519.043000", "172519.046000", "172519.049000", "172519.052000", "172519.055000", "172519.058000", "172519.061000", "172519.064000", "172519.067000", "172519.070000", "172519.073000", "172519.076000", "172519.079000", "172519.085000", "172519.088000", "172559.002000", "172559.006000", "172559.009000", "172559.012000", "172559.015000", "172559.018000", "172559.021000", "172559.024000", "172559.027000", "172559.030000", "172559.033000", "172559.036000", "172559.039000", "172559.042000", "172559.045000", "172559.048000", "172559.051000", "172559.054000", "172559.057000", "172559.060000", "172559.063000", "172559.067000", "172559.070000", "172559.072000", "172559.076000", "172559.079000", "172559.082000", "172639.002000", "172639.006000", "172639.009000", "172639.012000", "172639.015000", "172639.018000", "172639.021000", "172639.024000", "172639.027000", "172639.030000", "172639.033000", "172639.036000", "172639.040000", "172639.043000", "172639.046000", "172639.049000", "172639.052000", "172639.055000", "172639.058000", "172639.061000", "172639.064000", "172639.067000", "172639.070000", "172639.073000", "172639.077000", "172639.080000", "172639.083000", "172719.002000", "172719.006000", "172719.009000", "172719.012000", "172719.016000", "172719.019000", "172719.022000", "172719.026000", "172719.029000", "172719.032000", "172719.035000", "172719.038000", "172719.041000", "172719.044000", "172719.047000", "172719.050000", "172719.053000", "172719.056000", "172719.059000", "172719.063000", "172719.066000", "172719.069000", "172719.072000", "172719.075000", "172719.078000", "172719.081000", "172731.018000", "172731.022000", "172731.025000", "172731.028000", "172731.031000", "172731.035000", "172731.038000", "172731.041000", "172731.045000"],
      "InstanceNumber": [1, 2, 3, 4, 5, 6, 7, 8, 9, 10, 11, 12, 13, 14, 15, 16, 17, 18, 19, 20, 21, 22, 23, 24, 25, 26, 27, 28, 29, 30, 31, 32, 33, 34, 35, 36, 37, 38, 39, 40, 41, 42, 43, 44, 45, 46, 47, 48, 49, 50, 51, 52, 53, 54, 55, 56, 57, 58, 59, 60, 61, 62, 63, 64, 65, 66, 67, 68, 69, 70, 71, 72, 73, 74, 75, 76, 77, 78, 79, 80, 81, 82, 83, 84, 85, 86, 87, 88, 89, 90, 91, 92, 93, 94, 95, 96, 97, 98, 99, 100, 101, 102, 103, 104, 105, 106, 107, 108, 109, 110, 111, 112, 113, 114, 115, 116, 117, 118, 119, 120, 121, 122, 123, 124, 125, 126, 127, 128, 129, 130, 131, 132, 133, 134, 135, 136, 137, 138, 139, 140, 141, 142, 143, 144, 145, 146, 147, 148, 149, 150, 151, 152, 153, 154, 155, 156, 157, 158, 159, 160, 161, 162, 163, 164],
      "LargestImagePixelValue": [3339, 3360, 2934, 3007, 2933, 2974, 2952, 2910, 2909, 2830, 2890, 2845, 2745, 2762, 2770, 2920, 2930, 2967, 2902, 2876, 2825, 2899, 3015, 2998, 3266, 3359, 3316, 3286, 3288, 3270, 3268, 3268, 3209, 3242, 3201, 3043, 3033, 3029, 3026, 3103, 3313, 3087, 2988, 3000, 2974, 3029, 2979, 2977, 2981, 3003, 2967, 2945, 2915, 2912, 2935, 2924, 3025, 2965, 2955, 2958, 2952, 2954, 2902, 2911, 2883, 2949, 2866, 2547, 3049, 2946, 2860, 2852, 2838, 2819, 2819, 2862, 2854, 2917, 2884, 2875, 2840, 2883, 2829, 2820, 2795, 2858, 2864, 2887, 2905, 2938, 2943, 2918, 2943, 2885, 2855, 2814, 2851, 2841, 2835, 2807, 2802, 2806, 2822, 2826, 2863, 2866, 2879, 2861, 2875, 2856, 2864, 2848, 2872, 2910, 2860, 2889, 2883, 2879, 2875, 2910, 2913, 2920, 2880, 2847, 2866, 2908, 2922, 2909, 2945, 2912, 2903, 2927, 2920, 2925, 2878, 2898, 2871, 2877, 2864, 2834, 2859, 2838, 2875, 2844, 2865, 2872, 2882, 2843, 2865, 2869, 2881, 2881, 2912, 2934, 2957, 2980, 2961, 2916, 2932, 2933, 2941, 2973, 2925, 2867],
      "WindowCenter": [707.0, 722.0, 722.0, 722.0, 723.0, 723.0, 722.0, 721.0, 721.0, 706.0, 719.0, 718.0, 717.0, 717.0, 716.0, 718.0, 718.0, 719.0, 716.0, 717.0, 718.0, 710.0, 717.0, 725.0, 728.0, 736.0, 733.0, 731.0, 729.0, 729.0, 728.0, 728.0, 728.0, 728.0, 728.0, 725.0, 727.0, 724.0, 728.0, 725.0, 720.0, 724.0, 723.0, 723.0, 723.0, 723.0, 724.0, 723.0, 724.0, 724.0, 725.0, 724.0, 724.0, 724.0, 724.0, 724.0, 725.0, 725.0, 726.0, 725.0, 726.0, 725.0, 724.0, 723.0, 722.0, 721.0, 719.0, 702.0, 721.0, 719.0, 718.0, 718.0, 718.0, 719.0, 719.0, 720.0, 720.0, 720.0, 721.0, 721.0, 721.0, 722.0, 721.0, 721.0, 721.0, 721.0, 722.0, 723.0, 723.0, 724.0, 723.0, 723.0, 722.0, 721.0, 721.0, 721.0, 720.0, 720.0, 721.0, 720.0, 719.0, 720.0, 721.0, 721.0, 720.0, 720.0, 721.0, 721.0, 721.0, 722.0, 722.0, 722.0, 721.0, 721.0, 721.0, 720.0, 721.0, 721.0, 721.0, 721.0, 722.0, 721.0, 720.0, 721.0, 721.0, 722.0, 723.0, 724.0, 724.0, 724.0, 722.0, 721.0, 719.0, 718.0, 717.0, 717.0, 717.0, 716.0, 716.0, 717.0, 718.0, 719.0, 719.0, 719.0, 719.0, 719.0, 718.0, 719.0, 719.0, 720.0, 720.0, 720.0, 721.0, 722.0, 723.0, 722.0, 721.0, 721.0, 722.0, 723.0, 724.0, 723.0, 721.0, 720.0],
      "WindowWidth": [1541.0, 1580.0, 1578.0, 1578.0, 1581.0, 1580.0, 1578.0, 1576.0, 1573.0, 1534.0, 1568.0, 1564.0, 1562.0, 1562.0, 1560.0, 1566.0, 1566.0, 1569.0, 1560.0, 1564.0, 1566.0, 1544.0, 1565.0, 1585.0, 1597.0, 1620.0, 1608.0, 1603.0, 1599.0, 1596.0, 1596.0, 1595.0, 1594.0, 1594.0, 1595.0, 1585.0, 1592.0, 1583.0, 1593.0, 1586.0, 1572.0, 1583.0, 1581.0, 1580.0, 1580.0, 1581.0, 1581.0, 1580.0, 1582.0, 1583.0, 1584.0, 1584.0, 1584.0, 1583.0, 1583.0, 1583.0, 1585.0, 1586.0, 1588.0, 1587.0, 1588.0, 1585.0, 1582.0, 1579.0, 1577.0, 1575.0, 1568.0, 1521.0, 1573.0, 1568.0, 1566.0, 1564.0, 1565.0, 1567.0, 1568.0, 1570.0, 1570.0, 1571.0, 1572.0, 1574.0, 1575.0, 1576.0, 1574.0, 1572.0, 1572.0, 1574.0, 1576.0, 1578.0, 1580.0, 1583.0, 1581.0, 1579.0, 1576.0, 1574.0, 1572.0, 1571.0, 1570.0, 1570.0, 1571.0, 1568.0, 1567.0, 1569.0, 1572.0, 1572.0, 1571.0, 1571.0, 1572.0, 1573.0, 1573.0, 1575.0, 1577.0, 1576.0, 1573.0, 1574.0, 1572.0, 1571.0, 1571.0, 1572.0, 1573.0, 1574.0, 1575.0, 1573.0, 1570.0, 1572.0, 1573.0, 1576.0, 1578.0, 1581.0, 1583.0, 1581.0, 1576.0, 1572.0, 1568.0, 1564.0, 1563.0, 1562.0, 1560.0, 1559.0, 1559.0, 1561.0, 1563.0, 1566.0, 1568.0, 1567.0, 1567.0, 1566.0, 1565.0, 1566.0, 1567.0, 1568.0, 1568.0, 1570.0, 1573.0, 1576.0, 1577.0, 1575.0, 1574.0, 1574.0, 1576.0, 1580.0, 1580.0, 1578.0, 1572.0, 1569.0]
    },
    "slices": {}
  }
}