{
  "AcquisitionMatrixPE": 72,
  "AcquisitionNumber": 1,
  "AcquisitionTime": "17:29:41.495000",
  "BandwidthPerPixelPhaseEncode": 17.943,
  "BaseResolution": 96,
  "BodyPartExamined": "BRAIN",
  "CoilCombinationMethod": "Sum of Squares",
  "ConsistencyInfo": "N4_VE11C_LATEST_20160120",
  "ConversionSoftware": "dcm2niix",
  "ConversionSoftwareVersion": "v1.0.20211006",
  "DerivedVendorReportedEchoSpacing": 0.000552897,
  "DeviceSerialNumber": "166011",
  "EchoTime": 0.03,
  "EchoTrainLength": 58,
  "EffectiveEchoSpacing": 0.000580542,
  "FlipAngle": 62,
  "ImageOrientationPatientDICOM": [0.999053, -0.0417432, 0.0122578, 0.0416981, 0.999123, 0.00391491],
  "ImageType": [
    "ORIGINAL",
    "PRIMARY",
    "M",
    "ND",
    "MOSAIC"
],
  "ImagingFrequency": 123.259,
  "InPlanePhaseEncodingDirectionDICOM": "COL",
  "InstitutionAddress": "West 130th Street 610,NY,NYC,US,10025",
  "InstitutionName": "MBBI",
  "MRAcquisitionType": "2D",
  "MagneticFieldStrength": 3,
  "Manufacturer": "Siemens",
  "ManufacturersModelName": "Prisma",
  "Modality": "MR",
  "MultibandAccelerationFactor": 3,
  "PartialFourier": 0.75,
  "PatientPosition": "HFS",
  "PercentPhaseFOV": 100,
  "PercentSampling": 75,
  "PhaseEncodingDirection": "j-",
  "PhaseEncodingSteps": 58,
  "PhaseOversampling": 0.05,
  "PhaseResolution": 0.75,
  "PixelBandwidth": 2265,
  "ProcedureStepDescription": "White^Word_recognition",
  "ProtocolName": "func_catLoc_run3",
  "PulseSequenceDetails": "%SiemensSeq%\\ep2d_bold",
  "ReceiveCoilActiveElements": "HC1-7",
  "ReceiveCoilName": "HeadNeck_64",
  "ReconMatrixPE": 96,
  "RefLinesPE": 40,
  "RepetitionTime": 1.5,
  "SAR": 0.0455647,
  "ScanOptions": "PFP\\FS",
  "ScanningSequence": "EP",
  "SequenceName": "*epfid2d1_72",
  "SequenceVariant": "SK\\OSP",
  "SeriesDescription": "func_catLoc_run3",
  "SeriesNumber": 10,
  "ShimSetting": [-1156, -1365, 710, 650, -107, -46, 75, 63],
  "SliceThickness": 2,
  "SliceTiming": [1.0775, 0, 0.74, 0.0675, 0.8075, 0.135, 0.875, 0.2025, 0.9425, 0.27, 1.01, 0.405, 1.145, 0.4725, 1.2125, 0.54, 1.28, 0.6075, 1.3475, 0.6725, 1.4125, 0.3375, 1.0775, 0, 0.74, 0.0675, 0.8075, 0.135, 0.875, 0.2025, 0.9425, 0.27, 1.01, 0.405, 1.145, 0.4725, 1.2125, 0.54, 1.28, 0.6075, 1.3475, 0.6725, 1.4125, 0.3375, 1.0775, 0, 0.74, 0.0675, 0.8075, 0.135, 0.875, 0.2025, 0.9425, 0.27, 1.01, 0.405, 1.145, 0.4725, 1.2125, 0.54, 1.28, 0.6075, 1.3475, 0.6725, 1.4125, 0.3375],
  "SoftwareVersions": "syngo MR E11",
  "SpacingBetweenSlices": 2,
  "StationName": "AWP166011",
  "TaskName": "catLoc",
  "TotalReadoutTime": 0.0551515,
  "TxRefAmp": 217.308,
  "dcmmeta_affine": [
    [-1.9981063604354858, 0.08339618146419525, 0.02482086978852749, 95.5181884765625],
    [0.08348644524812698, 1.998245120048523, 0.006800159811973572, -80.54553985595703],
    [0.024515537545084953, -0.007829824462532997, 1.999834418296814, -35.26945495605469],
    [0.0, 0.0, 0.0, 1.0]
],
  "dcmmeta_reorient_transform": [
    [0.0, -1.0, 0.0, 95.0],
    [1.0, 0.0, 0.0, 0.0],
    [0.0, 0.0, 1.0, 0.0],
    [0.0, 0.0, 0.0, 1.0]
],
  "dcmmeta_shape": [96, 96, 66, 214],
  "dcmmeta_slice_dim": 2,
  "dcmmeta_version": 0.6,
  "global": {
    "const": {
      "AcquisitionMatrix": [96, 0, 0, 72],
      "AngioFlag": "N",
      "BitsAllocated": 16,
      "BitsStored": 12,
      "BodyPartExamined": "BRAIN",
      "Columns": 864,
      "EchoNumbers": 1,
      "EchoTime": 30.0,
      "EchoTrainLength": 58,
      "FlipAngle": 62.0,
      "HighBit": 11,
      "ImageOrientationPatient": [0.99905317694977, -0.0417432237723, 0.01225776878833, 0.04169809032711, 0.99912258643583, 0.00391491211396],
      "ImagePositionPatient": [-902.73779957047, -844.55510093003, -48.433908732436],
      "ImageType": [
        "ORIGINAL",
        "PRIMARY",
        "M",
        "ND",
        "MOSAIC"
],
      "ImagedNucleus": "1H",
      "ImagingFrequency": 123.259487,
      "InPlanePhaseEncodingDirection": "COL",
      "MRAcquisitionType": "2D",
      "MagneticFieldStrength": 3.0,
      "Manufacturer": "SIEMENS",
      "ManufacturerModelName": "Prisma",
      "Modality": "MR",
      "NumberOfAverages": 1.0,
      "NumberOfPhaseEncodingSteps": 58,
      "PercentPhaseFieldOfView": 100.0,
      "PercentSampling": 75.0,
      "PerformedProcedureStepStartTime": "165701.657000",
      "PhotometricInterpretation": "MONOCHROME2",
      "PixelBandwidth": 2265.0,
      "PixelRepresentation": 0,
      "PixelSpacing": [2.0, 2.0],
      "ProtocolName": "func_catLoc_run3",
      "RepetitionTime": 1500.0,
      "Rows": 864,
      "SAR": 0.04556472179936,
      "SamplesPerPixel": 1,
      "ScanOptions": [
        "PFP",
        "FS"
],
      "ScanningSequence": "EP",
      "SequenceName": "*epfid2d1_72",
      "SequenceVariant": [
        "SK",
        "OSP"
],
      "SeriesDescription": "func_catLoc_run3",
      "SeriesNumber": 10,
      "SeriesTime": "173022.616000",
      "SliceLocation": -34.354975448691,
      "SliceThickness": 2.0,
      "SmallestImagePixelValue": 0,
      "SoftwareVersions": "syngo MR E11",
      "SpacingBetweenSlices": 2.0000000284647,
      "SpecificCharacterSet": "ISO_IR 100",
      "StudyID": "2",
      "StudyTime": "165701.580000",
      "TransmitCoilName": "Body",
      "VariableFlipAngleFlag": "N",
      "WindowCenterWidthExplanation": "Algo1",
      "dBdt": 0.0},
    "slices": {}
  },
  "time": {
    "samples": {
      "AcquisitionNumber": [1, 2, 3, 4, 5, 6, 7, 8, 9, 10, 11, 12, 13, 14, 15, 16, 17, 18, 19, 20, 21, 22, 23, 24, 25, 26, 27, 28, 29, 30, 31, 32, 33, 34, 35, 36, 37, 38, 39, 40, 41, 42, 43, 44, 45, 46, 47, 48, 49, 50, 51, 52, 53, 54, 55, 56, 57, 58, 59, 60, 61, 62, 63, 64, 65, 66, 67, 68, 69, 70, 71, 72, 73, 74, 75, 76, 77, 78, 79, 80, 81, 82, 83, 84, 85, 86, 87, 88, 89, 90, 91, 92, 93, 94, 95, 96, 97, 98, 99, 100, 101, 102, 103, 104, 105, 106, 107, 108, 109, 110, 111, 112, 113, 114, 115, 116, 117, 118, 119, 120, 121, 122, 123, 124, 125, 126, 127, 128, 129, 130, 131, 132, 133, 134, 135, 136, 137, 138, 139, 140, 141, 142, 143, 144, 145, 146, 147, 148, 149, 150, 151, 152, 153, 154, 155, 156, 157, 158, 159, 160, 161, 162, 163, 164, 165, 166, 167, 168, 169, 170, 171, 172, 173, 174, 175, 176, 177, 178, 179, 180, 181, 182, 183, 184, 185, 186, 187, 188, 189, 190, 191, 192, 193, 194, 195, 196, 197, 198, 199, 200, 201, 202, 203, 204, 205, 206, 207, 208, 209, 210, 211, 212, 213, 214],
      "AcquisitionTime": ["172941.495000", "172942.995000", "172944.495000", "172945.995000", "172947.495000", "172948.995000", "172950.495000", "172951.995000", "172953.495000", "172954.995000", "172956.495000", "172957.995000", "172959.495000", "173000.995000", "173002.495000", "173003.995000", "173005.495000", "173006.995000", "173008.495000", "173009.995000", "173011.495000", "173012.995000", "173014.495000", "173015.995000", "173017.495000", "173018.995000", "173020.495000", "173021.995000", "173023.495000", "173024.995000", "173026.495000", "173027.995000", "173029.495000", "173030.995000", "173032.495000", "173033.995000", "173035.495000", "173036.995000", "173038.495000", "173039.995000", "173041.495000", "173042.995000", "173044.495000", "173045.995000", "173047.495000", "173048.995000", "173050.495000", "173051.995000", "173053.495000", "173054.995000", "173056.495000", "173057.995000", "173059.495000", "173100.995000", "173102.495000", "173103.995000", "173105.495000", "173106.995000", "173108.495000", "173109.995000", "173111.495000", "173112.995000", "173114.495000", "173115.995000", "173117.495000", "173118.995000", "173120.495000", "173121.995000", "173123.495000", "173124.995000", "173126.495000", "173127.995000", "173129.495000", "173130.995000", "173132.495000", "173133.995000", "173135.495000", "173136.995000", "173138.495000", "173139.995000", "173141.495000", "173142.995000", "173144.495000", "173145.995000", "173147.495000", "173148.995000", "173150.495000", "173151.995000", "173153.495000", "173154.995000", "173156.495000", "173157.995000", "173159.495000", "173200.995000", "173202.495000", "173203.995000", "173205.495000", "173206.995000", "173208.495000", "173209.995000", "173211.495000", "173212.995000", "173214.495000", "173215.995000", "173217.495000", "173218.995000", "173220.495000", "173221.995000", "173223.495000", "173224.995000", "173226.495000", "173227.995000", "173229.495000", "173230.995000", "173232.495000", "173233.995000", "173235.495000", "173236.995000", "173238.495000", "173239.995000", "173241.495000", "173242.995000", "173244.495000", "173245.995000", "173247.495000", "173248.995000", "173250.495000", "173251.995000", "173253.495000", "173254.995000", "173256.495000", "173257.995000", "173259.495000", "173300.995000", "173302.495000", "173303.995000", "173305.495000", "173306.995000", "173308.495000", "173309.995000", "173311.495000", "173312.995000", "173314.495000", "173315.995000", "173317.495000", "173318.995000", "173320.495000", "173321.995000", "173323.495000", "173324.995000", "173326.495000", "173327.995000", "173329.495000", "173330.995000", "173332.495000", "173333.995000", "173335.495000", "173336.995000", "173338.495000", "173339.995000", "173341.495000", "173342.995000", "173344.495000", "173345.995000", "173347.495000", "173348.995000", "173350.495000", "173351.995000", "173353.495000", "173354.995000", "173356.495000", "173357.995000", "173359.495000", "173400.995000", "173402.495000", "173403.995000", "173405.495000", "173406.995000", "173408.495000", "173409.995000", "173411.495000", "173412.995000", "173414.495000", "173415.995000", "173417.495000", "173418.995000", "173420.495000", "173421.995000", "173423.495000", "173424.995000", "173426.495000", "173427.995000", "173429.495000", "173430.995000", "173432.495000", "173433.995000", "173435.495000", "173436.995000", "173438.495000", "173439.995000", "173441.495000", "173442.995000", "173444.495000", "173445.995000", "173447.495000", "173448.995000", "173450.495000", "173451.995000", "173453.495000", "173454.995000", "173456.495000", "173457.995000", "173459.495000", "173500.995000"],
      "ContentTime": ["173022.620000", "173022.633000", "173022.636000", "173022.640000", "173022.646000", "173022.649000", "173022.652000", "173022.661000", "173022.664000", "173022.667000", "173022.671000", "173022.674000", "173022.677000", "173022.680000", "173022.683000", "173022.687000", "173022.689000", "173022.692000", "173022.695000", "173022.699000", "173022.702000", "173022.705000", "173022.708000", "173022.711000", "173022.733000", "173022.736000", "173022.739000", "173102.615000", "173102.618000", "173102.621000", "173102.624000", "173102.627000", "173102.631000", "173102.634000", "173102.637000", "173102.639000", "173102.643000", "173102.646000", "173102.649000", "173102.652000", "173102.655000", "173102.658000", "173102.661000", "173102.664000", "173102.667000", "173102.676000", "173102.679000", "173102.682000", "173102.686000", "173102.689000", "173102.692000", "173102.695000", "173102.698000", "173102.701000", "173142.615000", "173142.618000", "173142.622000", "173142.625000", "173142.628000", "173142.631000", "173142.634000", "173142.637000", "173142.640000", "173142.643000", "173142.646000", "173142.649000", "173142.652000", "173142.655000", "173142.658000", "173142.662000", "173142.665000", "173142.668000", "173142.671000", "173142.674000", "173142.677000", "173142.680000", "173142.683000", "173142.686000", "173142.689000", "173142.692000", "173222.615000", "173222.618000", "173222.622000", "173222.625000", "173222.628000", "173222.631000", "173222.634000", "173222.637000", "173222.640000", "173222.643000", "173222.646000", "173222.649000", "173222.652000", "173222.655000", "173222.658000", "173222.661000", "173222.664000", "173222.667000", "173222.670000", "173222.674000", "173222.677000", "173222.680000", "173222.683000", "173222.686000", "173222.689000", "173222.692000", "173222.695000", "173302.615000", "173302.618000", "173302.621000", "173302.624000", "173302.627000", "173302.631000", "173302.634000", "173302.637000", "173302.640000", "173302.643000", "173302.646000", "173302.649000", "173302.658000", "173302.661000", "173302.664000", "173302.667000", "173302.670000", "173302.673000", "173302.676000", "173302.679000", "173302.682000", "173302.686000", "173302.689000", "173302.692000", "173302.695000", "173302.698000", "173302.701000", "173342.615000", "173342.618000", "173342.621000", "173342.624000", "173342.627000", "173342.630000", "173342.634000", "173342.637000", "173342.640000", "173342.643000", "173342.646000", "173342.649000", "173342.652000", "173342.655000", "173342.658000", "173342.661000", "173342.664000", "173342.667000", "173342.670000", "173342.673000", "173342.676000", "173342.679000", "173342.683000", "173342.686000", "173342.689000", "173342.692000", "173422.615000", "173422.618000", "173422.622000", "173422.625000", "173422.628000", "173422.631000", "173422.634000", "173422.637000", "173422.640000", "173422.643000", "173422.646000", "173422.649000", "173422.652000", "173422.655000", "173422.658000", "173422.661000", "173422.664000", "173422.667000", "173422.671000", "173422.674000", "173422.677000", "173422.680000", "173422.683000", "173422.686000", "173422.689000", "173422.692000", "173422.695000", "173502.504000", "173502.508000", "173502.511000", "173502.515000", "173502.518000", "173502.521000", "173502.525000", "173502.528000", "173502.531000", "173502.535000", "173502.538000", "173502.542000", "173502.546000", "173502.550000", "173502.553000", "173502.556000", "173502.559000", "173502.562000", "173502.565000", "173502.568000", "173502.571000", "173502.575000", "173502.578000", "173502.581000", "173502.592000", "173502.596000", "173502.599000"],
      "InstanceCreationTime": ["173022.620000", "173022.633000", "173022.636000", "173022.640000", "173022.646000", "173022.649000", "173022.652000", "173022.661000", "173022.664000", "173022.667000", "173022.671000", "173022.674000", "173022.677000", "173022.680000", "173022.683000", "173022.687000", "173022.689000", "173022.692000", "173022.695000", "173022.699000", "173022.702000", "173022.705000", "173022.708000", "173022.711000", "173022.733000", "173022.736000", "173022.739000", "173102.615000", "173102.618000", "173102.621000", "173102.624000", "173102.627000", "173102.631000", "173102.634000", "173102.637000", "173102.639000", "173102.643000", "173102.646000", "173102.649000", "173102.652000", "173102.655000", "173102.658000", "173102.661000", "173102.664000", "173102.667000", "173102.676000", "173102.679000", "173102.682000", "173102.686000", "173102.689000", "173102.692000", "173102.695000", "173102.698000", "173102.701000", "173142.615000", "173142.618000", "173142.622000", "173142.625000", "173142.628000", "173142.631000", "173142.634000", "173142.637000", "173142.640000", "173142.643000", "173142.646000", "173142.649000", "173142.652000", "173142.655000", "173142.658000", "173142.662000", "173142.665000", "173142.668000", "173142.671000", "173142.674000", "173142.677000", "173142.680000", "173142.683000", "173142.686000", "173142.689000", "173142.692000", "173222.615000", "173222.618000", "173222.622000", "173222.625000", "173222.628000", "173222.631000", "173222.634000", "173222.637000", "173222.640000", "173222.643000", "173222.646000", "173222.649000", "173222.652000", "173222.655000", "173222.658000", "173222.661000", "173222.664000", "173222.667000", "173222.670000", "173222.674000", "173222.677000", "173222.680000", "173222.683000", "173222.686000", "173222.689000", "173222.692000", "173222.695000", "173302.615000", "173302.618000", "173302.621000", "173302.624000", "173302.627000", "173302.631000", "173302.634000", "173302.637000", "173302.640000", "173302.643000", "173302.646000", "173302.649000", "173302.658000", "173302.661000", "173302.664000", "173302.667000", "173302.670000", "173302.673000", "173302.676000", "173302.679000", "173302.682000", "173302.686000", "173302.689000", "173302.692000", "173302.695000", "173302.698000", "173302.701000", "173342.615000", "173342.618000", "173342.621000", "173342.624000", "173342.627000", "173342.630000", "173342.634000", "173342.637000", "173342.640000", "173342.643000", "173342.646000", "173342.649000", "173342.652000", "173342.655000", "173342.658000", "173342.661000", "173342.664000", "173342.667000", "173342.670000", "173342.673000", "173342.676000", "173342.679000", "173342.683000", "173342.686000", "173342.689000", "173342.692000", "173422.615000", "173422.618000", "173422.622000", "173422.625000", "173422.628000", "173422.631000", "173422.634000", "173422.637000", "173422.640000", "173422.643000", "173422.646000", "173422.649000", "173422.652000", "173422.655000", "173422.658000", "173422.661000", "173422.664000", "173422.667000", "173422.671000", "173422.674000", "173422.677000", "173422.680000", "173422.683000", "173422.686000", "173422.689000", "173422.692000", "173422.695000", "173502.504000", "173502.508000", "173502.511000", "173502.515000", "173502.518000", "173502.521000", "173502.525000", "173502.528000", "173502.531000", "173502.535000", "173502.538000", "173502.542000", "173502.546000", "173502.550000", "173502.553000", "173502.556000", "173502.559000", "173502.562000", "173502.565000", "173502.568000", "173502.571000", "173502.575000", "173502.578000", "173502.581000", "173502.592000", "173502.596000", "173502.599000"],
      "InstanceNumber": [1, 2, 3, 4, 5, 6, 7, 8, 9, 10, 11, 12, 13, 14, 15, 16, 17, 18, 19, 20, 21, 22, 23, 24, 25, 26, 27, 28, 29, 30, 31, 32, 33, 34, 35, 36, 37, 38, 39, 40, 41, 42, 43, 44, 45, 46, 47, 48, 49, 50, 51, 52, 53, 54, 55, 56, 57, 58, 59, 60, 61, 62, 63, 64, 65, 66, 67, 68, 69, 70, 71, 72, 73, 74, 75, 76, 77, 78, 79, 80, 81, 82, 83, 84, 85, 86, 87, 88, 89, 90, 91, 92, 93, 94, 95, 96, 97, 98, 99, 100, 101, 102, 103, 104, 105, 106, 107, 108, 109, 110, 111, 112, 113, 114, 115, 116, 117, 118, 119, 120, 121, 122, 123, 124, 125, 126, 127, 128, 129, 130, 131, 132, 133, 134, 135, 136, 137, 138, 139, 140, 141, 142, 143, 144, 145, 146, 147, 148, 149, 150, 151, 152, 153, 154, 155, 156, 157, 158, 159, 160, 161, 162, 163, 164, 165, 166, 167, 168, 169, 170, 171, 172, 173, 174, 175, 176, 177, 178, 179, 180, 181, 182, 183, 184, 185, 186, 187, 188, 189, 190, 191, 192, 193, 194, 195, 196, 197, 198, 199, 200, 201, 202, 203, 204, 205, 206, 207, 208, 209, 210, 211, 212, 213, 214],
      "LargestImagePixelValue": [3185, 3082, 2962, 2847, 2819, 2833, 2815, 2852, 2906, 2907, 2882, 2999, 2885, 2905, 2891, 2944, 2911, 2870, 2943, 2991, 2919, 2969, 2926, 2922, 2942, 2941, 2961, 2935, 2960, 2909, 2966, 2959, 2959, 2965, 2958, 2901, 3305, 3033, 2953, 2945, 2953, 2926, 2945, 2935, 2968, 2951, 2966, 2932, 2969, 2970, 3034, 3087, 3003, 3008, 2964, 2952, 3013, 3247, 3124, 3048, 2986, 2967, 3032, 2911, 2948, 2870, 2932, 2934, 2917, 2861, 2899, 2886, 2898, 2871, 2898, 2953, 2956, 2978, 2932, 2867, 2902, 2880, 2884, 2897, 2929, 2956, 2925, 3095, 2899, 2887, 2964, 2945, 2856, 2907, 2894, 2970, 3006, 2998, 3011, 3017, 3027, 3029, 3023, 3004, 2955, 3029, 2905, 3136, 2991, 2977, 2971, 2916, 2959, 2944, 2936, 2959, 2964, 2967, 2942, 2972, 2971, 2945, 2936, 2887, 3512, 3035, 3317, 3609, 3357, 3209, 3180, 3142, 3074, 3095, 3134, 3534, 3287, 3108, 3284, 3242, 3257, 3314, 3229, 3205, 3178, 3241, 3209, 3187, 3154, 3188, 3223, 3160, 3157, 3136, 3065, 3365, 3251, 3067, 3139, 3179, 3167, 3130, 3184, 3196, 3160, 3157, 3189, 3210, 3179, 3112, 3199, 3120, 3180, 3100, 3077, 3132, 3140, 3111, 3100, 3269, 3160, 3548, 3199, 3044, 3186, 3071, 3038, 3137, 3098, 3093, 3081, 3132, 3104, 3098, 3068, 3045, 3062, 2981, 2608, 2549, 3275, 3490, 3066, 3071, 2962, 2990, 2946, 2951, 2990, 3023, 3036, 3020, 3083, 3087],
      "WindowCenter": [702.0, 732.0, 724.0, 720.0, 718.0, 717.0, 718.0, 719.0, 721.0, 723.0, 723.0, 727.0, 728.0, 728.0, 729.0, 729.0, 729.0, 729.0, 731.0, 730.0, 730.0, 730.0, 731.0, 732.0, 732.0, 732.0, 732.0, 732.0, 732.0, 731.0, 732.0, 731.0, 731.0, 731.0, 731.0, 730.0, 737.0, 734.0, 733.0, 732.0, 731.0, 730.0, 730.0, 729.0, 729.0, 729.0, 730.0, 731.0, 731.0, 732.0, 734.0, 736.0, 734.0, 733.0, 732.0, 730.0, 730.0, 725.0, 721.0, 725.0, 723.0, 723.0, 721.0, 723.0, 723.0, 722.0, 723.0, 723.0, 721.0, 720.0, 719.0, 718.0, 719.0, 720.0, 721.0, 722.0, 723.0, 725.0, 724.0, 724.0, 723.0, 723.0, 722.0, 722.0, 722.0, 723.0, 723.0, 724.0, 715.0, 725.0, 725.0, 723.0, 722.0, 721.0, 721.0, 723.0, 724.0, 725.0, 726.0, 726.0, 727.0, 727.0, 727.0, 727.0, 726.0, 726.0, 723.0, 724.0, 725.0, 724.0, 723.0, 721.0, 721.0, 721.0, 721.0, 722.0, 721.0, 721.0, 720.0, 721.0, 721.0, 723.0, 719.0, 715.0, 722.0, 721.0, 741.0, 753.0, 722.0, 746.0, 741.0, 740.0, 739.0, 737.0, 736.0, 737.0, 737.0, 738.0, 740.0, 741.0, 742.0, 743.0, 742.0, 741.0, 740.0, 740.0, 740.0, 741.0, 740.0, 740.0, 741.0, 741.0, 741.0, 741.0, 724.0, 746.0, 744.0, 738.0, 734.0, 737.0, 736.0, 736.0, 736.0, 736.0, 736.0, 737.0, 737.0, 738.0, 738.0, 739.0, 739.0, 738.0, 736.0, 735.0, 736.0, 736.0, 736.0, 737.0, 736.0, 737.0, 727.0, 710.0, 722.0, 718.0, 725.0, 727.0, 729.0, 724.0, 722.0, 722.0, 721.0, 722.0, 723.0, 724.0, 726.0, 727.0, 728.0, 722.0, 700.0, 687.0, 721.0, 744.0, 735.0, 734.0, 731.0, 730.0, 731.0, 732.0, 733.0, 735.0, 735.0, 735.0, 736.0, 738.0],
      "WindowWidth": [1525.0, 1606.0, 1583.0, 1571.0, 1565.0, 1562.0, 1565.0, 1568.0, 1574.0, 1578.0, 1581.0, 1590.0, 1594.0, 1595.0, 1596.0, 1598.0, 1598.0, 1596.0, 1602.0, 1601.0, 1599.0, 1601.0, 1604.0, 1608.0, 1608.0, 1608.0, 1608.0, 1607.0, 1607.0, 1603.0, 1606.0, 1604.0, 1603.0, 1603.0, 1603.0, 1602.0, 1623.0, 1611.0, 1608.0, 1606.0, 1604.0, 1601.0, 1599.0, 1597.0, 1597.0, 1599.0, 1601.0, 1604.0, 1604.0, 1607.0, 1611.0, 1617.0, 1612.0, 1609.0, 1605.0, 1600.0, 1599.0, 1591.0, 1577.0, 1586.0, 1580.0, 1580.0, 1575.0, 1579.0, 1578.0, 1577.0, 1578.0, 1579.0, 1575.0, 1569.0, 1567.0, 1566.0, 1567.0, 1571.0, 1573.0, 1577.0, 1581.0, 1584.0, 1582.0, 1583.0, 1581.0, 1579.0, 1578.0, 1577.0, 1577.0, 1579.0, 1579.0, 1582.0, 1559.0, 1585.0, 1584.0, 1579.0, 1576.0, 1572.0, 1573.0, 1578.0, 1581.0, 1585.0, 1587.0, 1587.0, 1590.0, 1590.0, 1591.0, 1590.0, 1586.0, 1587.0, 1580.0, 1582.0, 1584.0, 1582.0, 1579.0, 1574.0, 1574.0, 1573.0, 1573.0, 1575.0, 1574.0, 1573.0, 1572.0, 1572.0, 1575.0, 1578.0, 1568.0, 1557.0, 1577.0, 1576.0, 1635.0, 1673.0, 1583.0, 1650.0, 1635.0, 1630.0, 1626.0, 1622.0, 1619.0, 1623.0, 1622.0, 1624.0, 1630.0, 1633.0, 1638.0, 1640.0, 1637.0, 1633.0, 1630.0, 1630.0, 1631.0, 1632.0, 1630.0, 1630.0, 1634.0, 1634.0, 1634.0, 1634.0, 1589.0, 1650.0, 1644.0, 1624.0, 1613.0, 1620.0, 1618.0, 1617.0, 1617.0, 1617.0, 1617.0, 1620.0, 1620.0, 1623.0, 1625.0, 1627.0, 1626.0, 1623.0, 1618.0, 1616.0, 1619.0, 1618.0, 1618.0, 1619.0, 1618.0, 1621.0, 1594.0, 1550.0, 1580.0, 1570.0, 1588.0, 1592.0, 1597.0, 1583.0, 1577.0, 1576.0, 1575.0, 1576.0, 1579.0, 1584.0, 1588.0, 1590.0, 1593.0, 1578.0, 1514.0, 1481.0, 1580.0, 1644.0, 1616.0, 1611.0, 1602.0, 1600.0, 1602.0, 1605.0, 1608.0, 1613.0, 1614.0, 1615.0, 1618.0, 1623.0]
    },
    "slices": {}
  }
}