{
  "AcquisitionMatrixPE": 72,
  "AcquisitionNumber": 1,
  "AcquisitionTime": "09:46:7.585000",
  "BandwidthPerPixelPhaseEncode": 17.943,
  "BaseResolution": 96,
  "BodyPartExamined": "BRAIN",
  "CoilCombinationMethod": "Sum of Squares",
  "ConsistencyInfo": "N4_VE11C_LATEST_20160120",
  "ConversionSoftware": "dcm2niix",
  "ConversionSoftwareVersion": "v1.0.20211006",
  "DerivedVendorReportedEchoSpacing": 0.000552897,
  "DeviceSerialNumber": "166011",
  "EchoTime": 0.03,
  "EchoTrainLength": 58,
  "EffectiveEchoSpacing": 0.000580542,
  "FlipAngle": 62,
  "ImageOrientationPatientDICOM": [0.99906, 0.00746458, -0.0427011, -0.0142992, 0.986675, -0.162072],
  "ImageType": [
    "ORIGINAL",
    "PRIMARY",
    "M",
    "ND",
    "MOSAIC"
],
  "ImagingFrequency": 123.26,
  "InPlanePhaseEncodingDirectionDICOM": "COL",
  "InstitutionAddress": "West 130th Street 610,NY,NYC,US,10025",
  "InstitutionName": "MBBI",
  "MRAcquisitionType": "2D",
  "MagneticFieldStrength": 3,
  "Manufacturer": "Siemens",
  "ManufacturersModelName": "Prisma",
  "Modality": "MR",
  "MultibandAccelerationFactor": 3,
  "PartialFourier": 0.75,
  "PatientPosition": "HFS",
  "PercentPhaseFOV": 100,
  "PercentSampling": 75,
  "PhaseEncodingDirection": "j-",
  "PhaseEncodingSteps": 58,
  "PhaseOversampling": 0.05,
  "PhaseResolution": 0.75,
  "PixelBandwidth": 2265,
  "ProcedureStepDescription": "White^Word_recognition",
  "ProtocolName": "func_language_run3",
  "PulseSequenceDetails": "%SiemensSeq%\\ep2d_bold",
  "ReceiveCoilActiveElements": "HC1-7",
  "ReceiveCoilName": "HeadNeck_64",
  "ReconMatrixPE": 96,
  "RefLinesPE": 40,
  "RepetitionTime": 1.5,
  "SAR": 0.0507473,
  "ScanOptions": "PFP\\FS",
  "ScanningSequence": "EP",
  "SequenceName": "*epfid2d1_72",
  "SequenceVariant": "SK\\OSP",
  "SeriesDescription": "func_language_run3",
  "SeriesNumber": 18,
  "ShimSetting": [-1143, -1357, 642, 586, -34, 74, -154, -24],
  "SliceThickness": 2,
  "SliceTiming": [1.0775, 0, 0.74, 0.0675, 0.8075, 0.135, 0.875, 0.2025, 0.9425, 0.27, 1.01, 0.405, 1.145, 0.4725, 1.2125, 0.54, 1.2775, 0.605, 1.345, 0.6725, 1.4125, 0.3375, 1.0775, 0, 0.74, 0.0675, 0.8075, 0.135, 0.875, 0.2025, 0.9425, 0.27, 1.01, 0.405, 1.145, 0.4725, 1.2125, 0.54, 1.2775, 0.605, 1.345, 0.6725, 1.4125, 0.3375, 1.0775, 0, 0.74, 0.0675, 0.8075, 0.135, 0.875, 0.2025, 0.9425, 0.27, 1.01, 0.405, 1.145, 0.4725, 1.2125, 0.54, 1.2775, 0.605, 1.345, 0.6725, 1.4125, 0.3375],
  "SoftwareVersions": "syngo MR E11",
  "SpacingBetweenSlices": 2,
  "StationName": "AWP166011",
  "TaskName": "langLoc",
  "TotalReadoutTime": 0.0551515,
  "TxRefAmp": 214.135,
  "dcmmeta_affine": [
    [-1.9981200695037842, -0.02859845757484436, -0.08184467256069183, 99.83363342285156],
    [-0.014929153025150299, 1.9733505249023438, -0.3250613808631897, -63.88169479370117],
    [-0.0854022353887558, 0.3241448700428009, 1.971709132194519, -84.21875762939453],
    [0.0, 0.0, 0.0, 1.0]
],
  "dcmmeta_reorient_transform": [
    [0.0, -1.0, 0.0, 95.0],
    [1.0, 0.0, 0.0, 0.0],
    [0.0, 0.0, 1.0, 0.0],
    [0.0, 0.0, 0.0, 1.0]
],
  "dcmmeta_shape": [96, 96, 66, 239],
  "dcmmeta_slice_dim": 2,
  "dcmmeta_version": 0.6,
  "global": {
    "const": {
      "AcquisitionMatrix": [96, 0, 0, 72],
      "AngioFlag": "N",
      "BitsAllocated": 16,
      "BitsStored": 12,
      "BodyPartExamined": "BRAIN",
      "Columns": 864,
      "EchoNumbers": 1,
      "EchoTime": 30.0,
      "EchoTrainLength": 58,
      "FlipAngle": 62.0,
      "HighBit": 11,
      "ImageOrientationPatient": [0.99906000544785, 0.00746457672229, -0.0427011195275, -0.0142992288219, 0.98667525424211, -0.1620724366491],
      "ImagePositionPatient": [-853.41305510536, -887.08599531921, 103.84109295405],
      "ImageType": [
        "ORIGINAL",
        "PRIMARY",
        "M",
        "ND",
        "MOSAIC"
],
      "ImagedNucleus": "1H",
      "ImagingFrequency": 123.259564,
      "InPlanePhaseEncodingDirection": "COL",
      "MRAcquisitionType": "2D",
      "MagneticFieldStrength": 3.0,
      "Manufacturer": "SIEMENS",
      "ManufacturerModelName": "Prisma",
      "Modality": "MR",
      "NumberOfAverages": 1.0,
      "NumberOfPhaseEncodingSteps": 58,
      "PercentPhaseFieldOfView": 100.0,
      "PercentSampling": 75.0,
      "PerformedProcedureStepStartTime": "081455.466000",
      "PhotometricInterpretation": "MONOCHROME2",
      "PixelBandwidth": 2265.0,
      "PixelRepresentation": 0,
      "PixelSpacing": [2.0, 2.0],
      "ProtocolName": "func_language_run3",
      "RepetitionTime": 1500.0,
      "Rows": 864,
      "SAR": 0.05074728267956,
      "SamplesPerPixel": 1,
      "ScanOptions": [
        "PFP",
        "FS"
],
      "ScanningSequence": "EP",
      "SequenceName": "*epfid2d1_72",
      "SequenceVariant": [
        "SK",
        "OSP"
],
      "SeriesDescription": "func_language_run3",
      "SeriesNumber": 18,
      "SeriesTime": "094653.299000",
      "SliceLocation": -76.730136797753,
      "SliceThickness": 2.0,
      "SmallestImagePixelValue": 0,
      "SoftwareVersions": "syngo MR E11",
      "SpacingBetweenSlices": 2.0000000443993,
      "SpecificCharacterSet": "ISO_IR 100",
      "StudyID": "5",
      "StudyTime": "081454.914000",
      "TransmitCoilName": "Body",
      "VariableFlipAngleFlag": "N",
      "WindowCenterWidthExplanation": "Algo1",
      "dBdt": 0.0},
    "slices": {}
  },
  "time": {
    "samples": {
      "AcquisitionNumber": [1, 2, 3, 4, 5, 6, 7, 8, 9, 10, 11, 12, 13, 14, 15, 16, 17, 18, 19, 20, 21, 22, 23, 24, 25, 26, 27, 28, 29, 30, 31, 32, 33, 34, 35, 36, 37, 38, 39, 40, 41, 42, 43, 44, 45, 46, 47, 48, 49, 50, 51, 52, 53, 54, 55, 56, 57, 58, 59, 60, 61, 62, 63, 64, 65, 66, 67, 68, 69, 70, 71, 72, 73, 74, 75, 76, 77, 78, 79, 80, 81, 82, 83, 84, 85, 86, 87, 88, 89, 90, 91, 92, 93, 94, 95, 96, 97, 98, 99, 100, 101, 102, 103, 104, 105, 106, 107, 108, 109, 110, 111, 112, 113, 114, 115, 116, 117, 118, 119, 120, 121, 122, 123, 124, 125, 126, 127, 128, 129, 130, 131, 132, 133, 134, 135, 136, 137, 138, 139, 140, 141, 142, 143, 144, 145, 146, 147, 148, 149, 150, 151, 152, 153, 154, 155, 156, 157, 158, 159, 160, 161, 162, 163, 164, 165, 166, 167, 168, 169, 170, 171, 172, 173, 174, 175, 176, 177, 178, 179, 180, 181, 182, 183, 184, 185, 186, 187, 188, 189, 190, 191, 192, 193, 194, 195, 196, 197, 198, 199, 200, 201, 202, 203, 204, 205, 206, 207, 208, 209, 210, 211, 212, 213, 214, 215, 216, 217, 218, 219, 220, 221, 222, 223, 224, 225, 226, 227, 228, 229, 230, 231, 232, 233, 234, 235, 236, 237, 238, 239],
      "AcquisitionTime": ["094607.585000", "094609.085000", "094610.585000", "094612.085000", "094613.585000", "094615.085000", "094616.585000", "094618.085000", "094619.585000", "094621.085000", "094622.585000", "094624.085000", "094625.585000", "094627.085000", "094628.585000", "094630.085000", "094631.585000", "094633.085000", "094634.585000", "094636.085000", "094637.585000", "094639.085000", "094640.585000", "094642.085000", "094643.585000", "094645.085000", "094646.585000", "094648.085000", "094649.585000", "094651.085000", "094652.585000", "094654.085000", "094655.585000", "094657.085000", "094658.585000", "094700.085000", "094701.585000", "094703.085000", "094704.585000", "094706.085000", "094707.585000", "094709.085000", "094710.585000", "094712.085000", "094713.585000", "094715.085000", "094716.585000", "094718.085000", "094719.585000", "094721.085000", "094722.585000", "094724.085000", "094725.585000", "094727.085000", "094728.585000", "094730.085000", "094731.585000", "094733.085000", "094734.585000", "094736.085000", "094737.585000", "094739.085000", "094740.585000", "094742.085000", "094743.585000", "094745.085000", "094746.585000", "094748.085000", "094749.585000", "094751.085000", "094752.585000", "094754.085000", "094755.585000", "094757.085000", "094758.585000", "094800.085000", "094801.585000", "094803.085000", "094804.585000", "094806.085000", "094807.585000", "094809.085000", "094810.585000", "094812.085000", "094813.585000", "094815.085000", "094816.585000", "094818.085000", "094819.585000", "094821.085000", "094822.585000", "094824.085000", "094825.585000", "094827.085000", "094828.585000", "094830.085000", "094831.585000", "094833.085000", "094834.585000", "094836.085000", "094837.585000", "094839.085000", "094840.585000", "094842.085000", "094843.585000", "094845.085000", "094846.585000", "094848.085000", "094849.585000", "094851.085000", "094852.585000", "094854.085000", "094855.585000", "094857.085000", "094858.585000", "094900.085000", "094901.585000", "094903.085000", "094904.585000", "094906.085000", "094907.585000", "094909.085000", "094910.585000", "094912.085000", "094913.585000", "094915.085000", "094916.585000", "094918.085000", "094919.585000", "094921.085000", "094922.585000", "094924.085000", "094925.585000", "094927.085000", "094928.585000", "094930.085000", "094931.585000", "094933.085000", "094934.585000", "094936.085000", "094937.585000", "094939.085000", "094940.585000", "094942.085000", "094943.585000", "094945.085000", "094946.585000", "094948.085000", "094949.585000", "094951.085000", "094952.585000", "094954.085000", "094955.585000", "094957.085000", "094958.585000", "095000.085000", "095001.585000", "095003.085000", "095004.585000", "095006.085000", "095007.585000", "095009.085000", "095010.585000", "095012.085000", "095013.585000", "095015.085000", "095016.585000", "095018.085000", "095019.585000", "095021.085000", "095022.585000", "095024.085000", "095025.585000", "095027.085000", "095028.585000", "095030.085000", "095031.585000", "095033.085000", "095034.585000", "095036.085000", "095037.585000", "095039.085000", "095040.585000", "095042.085000", "095043.585000", "095045.085000", "095046.585000", "095048.085000", "095049.585000", "095051.085000", "095052.585000", "095054.085000", "095055.585000", "095057.085000", "095058.585000", "095100.085000", "095101.585000", "095103.085000", "095104.585000", "095106.085000", "095107.585000", "095109.085000", "095110.585000", "095112.085000", "095113.585000", "095115.085000", "095116.585000", "095118.085000", "095119.585000", "095121.085000", "095122.585000", "095124.085000", "095125.585000", "095127.085000", "095128.585000", "095130.085000", "095131.585000", "095133.085000", "095134.585000", "095136.085000", "095137.585000", "095139.085000", "095140.585000", "095142.085000", "095143.585000", "095145.085000", "095146.585000", "095148.085000", "095149.585000", "095151.085000", "095152.585000", "095154.085000", "095155.585000", "095157.085000", "095158.585000", "095200.085000", "095201.585000", "095203.085000", "095204.585000"],
      "ContentTime": ["094653.303000", "094653.307000", "094653.315000", "094653.318000", "094653.321000", "094653.331000", "094653.334000", "094653.337000", "094653.340000", "094653.343000", "094653.346000", "094653.349000", "094653.352000", "094653.355000", "094653.358000", "094653.361000", "094653.364000", "094653.367000", "094653.370000", "094653.373000", "094653.376000", "094653.380000", "094653.383000", "094653.389000", "094653.393000", "094653.396000", "094653.399000", "094653.402000", "094653.405000", "094653.408000", "094733.298000", "094733.301000", "094733.304000", "094733.307000", "094733.310000", "094733.313000", "094733.331000", "094733.334000", "094733.337000", "094733.341000", "094733.343000", "094733.346000", "094733.349000", "094733.357000", "094733.360000", "094733.363000", "094733.366000", "094733.369000", "094733.372000", "094733.375000", "094733.378000", "094733.381000", "094733.384000", "094733.387000", "094733.390000", "094733.393000", "094733.396000", "094813.298000", "094813.301000", "094813.304000", "094813.307000", "094813.310000", "094813.313000", "094813.316000", "094813.319000", "094813.322000", "094813.325000", "094813.328000", "094813.331000", "094813.334000", "094813.337000", "094813.340000", "094813.343000", "094813.346000", "094813.349000", "094813.352000", "094813.355000", "094813.358000", "094813.361000", "094813.364000", "094813.367000", "094813.370000", "094813.373000", "094813.376000", "094853.298000", "094853.301000", "094853.304000", "094853.307000", "094853.310000", "094853.313000", "094853.316000", "094853.319000", "094853.322000", "094853.325000", "094853.328000", "094853.331000", "094853.335000", "094853.338000", "094853.348000", "094853.351000", "094853.354000", "094853.357000", "094853.360000", "094853.363000", "094853.366000", "094853.369000", "094853.372000", "094853.375000", "094853.378000", "094853.381000", "094933.298000", "094933.301000", "094933.304000", "094933.307000", "094933.310000", "094933.313000", "094933.316000", "094933.319000", "094933.322000", "094933.325000", "094933.328000", "094933.331000", "094933.334000", "094933.338000", "094933.340000", "094933.343000", "094933.347000", "094933.350000", "094933.353000", "094933.356000", "094933.359000", "094933.362000", "094933.365000", "094933.368000", "094933.371000", "094933.374000", "094933.377000", "095013.298000", "095013.302000", "095013.305000", "095013.308000", "095013.311000", "095013.321000", "095013.324000", "095013.327000", "095013.330000", "095013.334000", "095013.336000", "095013.340000", "095013.343000", "095013.346000", "095013.349000", "095013.352000", "095013.355000", "095013.358000", "095013.361000", "095013.364000", "095013.367000", "095013.370000", "095013.373000", "095013.376000", "095013.379000", "095013.382000", "095033.298000", "095033.301000", "095033.304000", "095033.307000", "095033.310000", "095033.313000", "095033.316000", "095033.320000", "095033.323000", "095033.326000", "095033.329000", "095033.332000", "095033.335000", "095033.338000", "095113.298000", "095113.301000", "095113.304000", "095113.307000", "095113.310000", "095113.313000", "095113.316000", "095113.320000", "095113.322000", "095113.325000", "095113.328000", "095113.332000", "095113.335000", "095113.338000", "095113.341000", "095113.344000", "095113.347000", "095113.350000", "095113.353000", "095113.356000", "095113.359000", "095113.362000", "095113.365000", "095113.368000", "095113.371000", "095113.374000", "095113.377000", "095153.298000", "095153.301000", "095153.322000", "095153.325000", "095153.329000", "095153.332000", "095153.335000", "095153.338000", "095153.341000", "095153.344000", "095153.347000", "095153.350000", "095153.362000", "095153.365000", "095153.368000", "095153.371000", "095153.374000", "095153.377000", "095153.380000", "095153.383000", "095153.386000", "095153.389000", "095153.392000", "095153.395000", "095153.398000", "095153.401000", "095205.784000", "095205.787000", "095205.790000", "095205.793000", "095205.797000", "095205.800000", "095205.803000", "095205.806000", "095205.809000"],
      "InstanceCreationTime": ["094653.303000", "094653.307000", "094653.315000", "094653.318000", "094653.321000", "094653.331000", "094653.334000", "094653.337000", "094653.340000", "094653.343000", "094653.346000", "094653.349000", "094653.352000", "094653.355000", "094653.358000", "094653.361000", "094653.364000", "094653.367000", "094653.370000", "094653.373000", "094653.376000", "094653.380000", "094653.383000", "094653.389000", "094653.393000", "094653.396000", "094653.399000", "094653.402000", "094653.405000", "094653.408000", "094733.298000", "094733.301000", "094733.304000", "094733.307000", "094733.310000", "094733.313000", "094733.331000", "094733.334000", "094733.337000", "094733.341000", "094733.343000", "094733.346000", "094733.349000", "094733.357000", "094733.360000", "094733.363000", "094733.366000", "094733.369000", "094733.372000", "094733.375000", "094733.378000", "094733.381000", "094733.384000", "094733.387000", "094733.390000", "094733.393000", "094733.396000", "094813.298000", "094813.301000", "094813.304000", "094813.307000", "094813.310000", "094813.313000", "094813.316000", "094813.319000", "094813.322000", "094813.325000", "094813.328000", "094813.331000", "094813.334000", "094813.337000", "094813.340000", "094813.343000", "094813.346000", "094813.349000", "094813.352000", "094813.355000", "094813.358000", "094813.361000", "094813.364000", "094813.367000", "094813.370000", "094813.373000", "094813.376000", "094853.298000", "094853.301000", "094853.304000", "094853.307000", "094853.310000", "094853.313000", "094853.316000", "094853.319000", "094853.322000", "094853.325000", "094853.328000", "094853.331000", "094853.335000", "094853.338000", "094853.348000", "094853.351000", "094853.354000", "094853.357000", "094853.360000", "094853.363000", "094853.366000", "094853.369000", "094853.372000", "094853.375000", "094853.378000", "094853.381000", "094933.298000", "094933.301000", "094933.304000", "094933.307000", "094933.310000", "094933.313000", "094933.316000", "094933.319000", "094933.322000", "094933.325000", "094933.328000", "094933.331000", "094933.334000", "094933.338000", "094933.340000", "094933.343000", "094933.347000", "094933.350000", "094933.353000", "094933.356000", "094933.359000", "094933.362000", "094933.365000", "094933.368000", "094933.371000", "094933.374000", "094933.377000", "095013.298000", "095013.302000", "095013.305000", "095013.308000", "095013.311000", "095013.321000", "095013.324000", "095013.327000", "095013.330000", "095013.334000", "095013.336000", "095013.340000", "095013.343000", "095013.346000", "095013.349000", "095013.352000", "095013.355000", "095013.358000", "095013.361000", "095013.364000", "095013.367000", "095013.370000", "095013.373000", "095013.376000", "095013.379000", "095013.382000", "095033.298000", "095033.301000", "095033.304000", "095033.307000", "095033.310000", "095033.313000", "095033.316000", "095033.320000", "095033.323000", "095033.326000", "095033.329000", "095033.332000", "095033.335000", "095033.338000", "095113.298000", "095113.301000", "095113.304000", "095113.307000", "095113.310000", "095113.313000", "095113.316000", "095113.320000", "095113.322000", "095113.325000", "095113.328000", "095113.332000", "095113.335000", "095113.338000", "095113.341000", "095113.344000", "095113.347000", "095113.350000", "095113.353000", "095113.356000", "095113.359000", "095113.362000", "095113.365000", "095113.368000", "095113.371000", "095113.374000", "095113.377000", "095153.298000", "095153.301000", "095153.322000", "095153.325000", "095153.329000", "095153.332000", "095153.335000", "095153.338000", "095153.341000", "095153.344000", "095153.347000", "095153.350000", "095153.362000", "095153.365000", "095153.368000", "095153.371000", "095153.374000", "095153.377000", "095153.380000", "095153.383000", "095153.386000", "095153.389000", "095153.392000", "095153.395000", "095153.398000", "095153.401000", "095205.784000", "095205.787000", "095205.790000", "095205.793000", "095205.797000", "095205.800000", "095205.803000", "095205.806000", "095205.809000"],
      "InstanceNumber": [1, 2, 3, 4, 5, 6, 7, 8, 9, 10, 11, 12, 13, 14, 15, 16, 17, 18, 19, 20, 21, 22, 23, 24, 25, 26, 27, 28, 29, 30, 31, 32, 33, 34, 35, 36, 37, 38, 39, 40, 41, 42, 43, 44, 45, 46, 47, 48, 49, 50, 51, 52, 53, 54, 55, 56, 57, 58, 59, 60, 61, 62, 63, 64, 65, 66, 67, 68, 69, 70, 71, 72, 73, 74, 75, 76, 77, 78, 79, 80, 81, 82, 83, 84, 85, 86, 87, 88, 89, 90, 91, 92, 93, 94, 95, 96, 97, 98, 99, 100, 101, 102, 103, 104, 105, 106, 107, 108, 109, 110, 111, 112, 113, 114, 115, 116, 117, 118, 119, 120, 121, 122, 123, 124, 125, 126, 127, 128, 129, 130, 131, 132, 133, 134, 135, 136, 137, 138, 139, 140, 141, 142, 143, 144, 145, 146, 147, 148, 149, 150, 151, 152, 153, 154, 155, 156, 157, 158, 159, 160, 161, 162, 163, 164, 165, 166, 167, 168, 169, 170, 171, 172, 173, 174, 175, 176, 177, 178, 179, 180, 181, 182, 183, 184, 185, 186, 187, 188, 189, 190, 191, 192, 193, 194, 195, 196, 197, 198, 199, 200, 201, 202, 203, 204, 205, 206, 207, 208, 209, 210, 211, 212, 213, 214, 215, 216, 217, 218, 219, 220, 221, 222, 223, 224, 225, 226, 227, 228, 229, 230, 231, 232, 233, 234, 235, 236, 237, 238, 239],
      "LargestImagePixelValue": [2099, 2069, 2065, 2050, 2071, 2075, 2064, 2056, 2041, 2046, 2190, 2071, 2073, 2072, 2164, 2084, 2091, 2210, 2150, 2138, 2178, 2305, 2120, 2126, 2084, 2236, 2228, 2097, 2234, 2306, 2123, 2114, 2063, 2285, 2082, 2255, 2181, 2158, 2063, 2315, 2294, 2202, 2245, 2139, 2130, 2037, 2044, 1960, 1946, 2128, 1957, 1972, 1968, 2041, 1955, 2031, 2028, 2256, 2091, 2166, 2050, 2049, 1982, 2112, 2177, 2072, 2021, 1980, 1951, 1950, 2081, 1991, 2106, 2012, 1995, 2004, 2011, 1999, 1984, 1904, 2143, 2084, 1990, 1964, 1883, 1904, 1977, 1903, 2033, 1950, 1888, 2063, 2185, 2086, 2049, 2258, 2055, 1947, 2194, 2083, 2043, 2142, 2009, 2165, 2243, 1959, 2054, 2210, 2106, 2011, 1953, 2090, 2115, 1921, 2194, 1969, 2031, 2049, 2127, 2089, 2014, 1981, 1975, 2027, 1987, 1938, 1963, 1974, 2039, 1929, 2006, 2000, 2022, 2233, 2062, 2291, 2117, 2237, 2155, 2315, 2107, 2076, 2031, 2001, 2058, 1978, 2019, 2006, 2134, 2010, 2105, 2137, 2040, 2078, 2114, 2097, 2154, 2355, 2074, 2047, 2116, 2106, 2091, 2056, 2035, 2046, 2073, 2074, 2163, 2133, 2109, 2163, 2092, 2159, 2080, 2044, 2159, 2099, 2087, 2164, 1984, 2065, 2040, 2284, 2081, 2053, 2011, 2130, 2046, 2107, 2090, 2085, 2155, 2178, 2199, 2200, 2075, 2094, 2050, 2038, 2075, 2115, 1940, 1981, 2164, 2102, 2080, 2064, 2084, 2243, 2098, 2402, 2130, 2041, 2241, 2173, 2158, 2169, 2113, 2164, 2083, 2050, 2176, 2108, 2140, 2182, 2115, 2162, 2223, 2210, 2211, 2190, 2148, 2078, 2116, 2155, 2008, 1971, 1996],
      "WindowCenter": [707.0, 706.0, 707.0, 707.0, 708.0, 708.0, 708.0, 707.0, 707.0, 707.0, 708.0, 707.0, 707.0, 707.0, 708.0, 708.0, 708.0, 709.0, 708.0, 708.0, 707.0, 708.0, 706.0, 706.0, 706.0, 707.0, 707.0, 706.0, 707.0, 708.0, 707.0, 707.0, 706.0, 708.0, 706.0, 708.0, 708.0, 708.0, 707.0, 709.0, 697.0, 689.0, 702.0, 707.0, 708.0, 705.0, 701.0, 700.0, 699.0, 701.0, 700.0, 701.0, 702.0, 704.0, 704.0, 705.0, 705.0, 707.0, 706.0, 707.0, 706.0, 707.0, 707.0, 708.0, 709.0, 708.0, 706.0, 706.0, 706.0, 705.0, 706.0, 705.0, 706.0, 705.0, 705.0, 703.0, 703.0, 702.0, 702.0, 700.0, 703.0, 703.0, 702.0, 702.0, 702.0, 702.0, 704.0, 703.0, 704.0, 703.0, 701.0, 703.0, 705.0, 704.0, 705.0, 708.0, 705.0, 704.0, 706.0, 703.0, 702.0, 702.0, 701.0, 702.0, 704.0, 702.0, 704.0, 705.0, 704.0, 705.0, 704.0, 704.0, 703.0, 700.0, 703.0, 701.0, 701.0, 689.0, 710.0, 706.0, 705.0, 702.0, 702.0, 702.0, 702.0, 701.0, 701.0, 702.0, 703.0, 701.0, 702.0, 702.0, 697.0, 692.0, 697.0, 706.0, 704.0, 704.0, 702.0, 700.0, 697.0, 697.0, 697.0, 697.0, 698.0, 698.0, 699.0, 700.0, 703.0, 702.0, 704.0, 705.0, 704.0, 705.0, 706.0, 704.0, 705.0, 705.0, 706.0, 705.0, 705.0, 703.0, 702.0, 700.0, 699.0, 699.0, 700.0, 701.0, 702.0, 703.0, 703.0, 704.0, 703.0, 703.0, 703.0, 703.0, 704.0, 703.0, 704.0, 705.0, 703.0, 703.0, 703.0, 705.0, 704.0, 703.0, 703.0, 705.0, 704.0, 705.0, 705.0, 705.0, 706.0, 707.0, 707.0, 707.0, 705.0, 705.0, 705.0, 706.0, 703.0, 701.0, 698.0, 697.0, 700.0, 700.0, 700.0, 701.0, 703.0, 703.0, 698.0, 699.0, 707.0, 705.0, 705.0, 704.0, 704.0, 703.0, 703.0, 703.0, 703.0, 703.0, 705.0, 705.0, 706.0, 704.0, 704.0, 702.0, 704.0, 704.0, 704.0, 704.0, 701.0, 699.0, 696.0, 692.0, 697.0, 700.0, 700.0],
      "WindowWidth": [1521.0, 1519.0, 1519.0, 1520.0, 1522.0, 1522.0, 1522.0, 1521.0, 1520.0, 1520.0, 1522.0, 1520.0, 1521.0, 1521.0, 1522.0, 1523.0, 1523.0, 1526.0, 1523.0, 1522.0, 1520.0, 1521.0, 1517.0, 1518.0, 1518.0, 1521.0, 1520.0, 1519.0, 1520.0, 1523.0, 1519.0, 1519.0, 1518.0, 1523.0, 1519.0, 1524.0, 1522.0, 1522.0, 1520.0, 1525.0, 1494.0, 1475.0, 1509.0, 1521.0, 1524.0, 1514.0, 1505.0, 1502.0, 1500.0, 1504.0, 1502.0, 1505.0, 1506.0, 1512.0, 1512.0, 1515.0, 1516.0, 1521.0, 1519.0, 1521.0, 1518.0, 1519.0, 1520.0, 1524.0, 1524.0, 1523.0, 1519.0, 1517.0, 1517.0, 1516.0, 1518.0, 1516.0, 1516.0, 1515.0, 1515.0, 1510.0, 1510.0, 1509.0, 1506.0, 1503.0, 1510.0, 1509.0, 1508.0, 1508.0, 1508.0, 1508.0, 1512.0, 1510.0, 1513.0, 1511.0, 1506.0, 1510.0, 1514.0, 1511.0, 1514.0, 1522.0, 1516.0, 1513.0, 1518.0, 1511.0, 1506.0, 1507.0, 1504.0, 1508.0, 1511.0, 1507.0, 1512.0, 1515.0, 1512.0, 1516.0, 1512.0, 1512.0, 1510.0, 1502.0, 1509.0, 1504.0, 1504.0, 1477.0, 1527.0, 1518.0, 1514.0, 1508.0, 1508.0, 1508.0, 1507.0, 1504.0, 1505.0, 1507.0, 1510.0, 1506.0, 1506.0, 1506.0, 1493.0, 1482.0, 1494.0, 1519.0, 1512.0, 1512.0, 1506.0, 1501.0, 1495.0, 1496.0, 1495.0, 1494.0, 1497.0, 1497.0, 1501.0, 1503.0, 1510.0, 1509.0, 1513.0, 1515.0, 1512.0, 1515.0, 1517.0, 1512.0, 1516.0, 1515.0, 1519.0, 1514.0, 1513.0, 1509.0, 1507.0, 1502.0, 1501.0, 1500.0, 1502.0, 1504.0, 1508.0, 1510.0, 1510.0, 1511.0, 1510.0, 1511.0, 1510.0, 1510.0, 1513.0, 1511.0, 1511.0, 1514.0, 1509.0, 1511.0, 1510.0, 1516.0, 1513.0, 1511.0, 1511.0, 1515.0, 1513.0, 1515.0, 1516.0, 1516.0, 1519.0, 1521.0, 1520.0, 1519.0, 1516.0, 1516.0, 1516.0, 1518.0, 1510.0, 1505.0, 1497.0, 1496.0, 1502.0, 1501.0, 1502.0, 1505.0, 1510.0, 1511.0, 1498.0, 1498.0, 1521.0, 1515.0, 1516.0, 1513.0, 1511.0, 1511.0, 1509.0, 1510.0, 1510.0, 1510.0, 1514.0, 1514.0, 1517.0, 1511.0, 1513.0, 1507.0, 1511.0, 1512.0, 1513.0, 1511.0, 1505.0, 1500.0, 1491.0, 1482.0, 1494.0, 1501.0, 1501.0]
    },
    "slices": {}
  }
}