{
  "AcquisitionMatrixPE": 72,
  "AcquisitionNumber": 1,
  "AcquisitionTime": "09:25:47.547500",
  "BandwidthPerPixelPhaseEncode": 17.943,
  "BaseResolution": 96,
  "BodyPartExamined": "BRAIN",
  "CoilCombinationMethod": "Sum of Squares",
  "ConsistencyInfo": "N4_VE11C_LATEST_20160120",
  "ConversionSoftware": "dcm2niix",
  "ConversionSoftwareVersion": "v1.0.20211006",
  "DerivedVendorReportedEchoSpacing": 0.000552897,
  "DeviceSerialNumber": "166011",
  "EchoTime": 0.03,
  "EchoTrainLength": 58,
  "EffectiveEchoSpacing": 0.000580542,
  "FlipAngle": 62,
  "ImageOrientationPatientDICOM": [0.99906, 0.00746458, -0.0427011, -0.0142992, 0.986675, -0.162072],
  "ImageType": [
    "ORIGINAL",
    "PRIMARY",
    "M",
    "ND",
    "MOSAIC"
],
  "ImagingFrequency": 123.26,
  "InPlanePhaseEncodingDirectionDICOM": "COL",
  "InstitutionAddress": "West 130th Street 610,NY,NYC,US,10025",
  "InstitutionName": "MBBI",
  "MRAcquisitionType": "2D",
  "MagneticFieldStrength": 3,
  "Manufacturer": "Siemens",
  "ManufacturersModelName": "Prisma",
  "Modality": "MR",
  "MultibandAccelerationFactor": 3,
  "PartialFourier": 0.75,
  "PatientPosition": "HFS",
  "PercentPhaseFOV": 100,
  "PercentSampling": 75,
  "PhaseEncodingDirection": "j-",
  "PhaseEncodingSteps": 58,
  "PhaseOversampling": 0.05,
  "PhaseResolution": 0.75,
  "PixelBandwidth": 2265,
  "ProcedureStepDescription": "White^Word_recognition",
  "ProtocolName": "func_vwfate_run16",
  "PulseSequenceDetails": "%SiemensSeq%\\ep2d_bold",
  "ReceiveCoilActiveElements": "HC1-7",
  "ReceiveCoilName": "HeadNeck_64",
  "ReconMatrixPE": 96,
  "RefLinesPE": 40,
  "RepetitionTime": 1.5,
  "SAR": 0.0505342,
  "ScanOptions": "PFP\\FS",
  "ScanningSequence": "EP",
  "SequenceName": "*epfid2d1_72",
  "SequenceVariant": "SK\\OSP",
  "SeriesDescription": "func_vwfate_run16",
  "SeriesNumber": 15,
  "ShimSetting": [-1143, -1357, 642, 586, -34, 74, -154, -24],
  "SliceThickness": 2,
  "SliceTiming": [1.0775, 0, 0.74, 0.0675, 0.8075, 0.135, 0.875, 0.2025, 0.9425, 0.27, 1.01, 0.405, 1.145, 0.4725, 1.2125, 0.5375, 1.2775, 0.605, 1.345, 0.6725, 1.4125, 0.3375, 1.0775, 0, 0.74, 0.0675, 0.8075, 0.135, 0.875, 0.2025, 0.9425, 0.27, 1.01, 0.405, 1.145, 0.4725, 1.2125, 0.5375, 1.2775, 0.605, 1.345, 0.6725, 1.4125, 0.3375, 1.0775, 0, 0.74, 0.0675, 0.8075, 0.135, 0.875, 0.2025, 0.9425, 0.27, 1.01, 0.405, 1.145, 0.4725, 1.2125, 0.5375, 1.2775, 0.605, 1.345, 0.6725, 1.4125, 0.3375],
  "SoftwareVersions": "syngo MR E11",
  "SpacingBetweenSlices": 2,
  "StationName": "AWP166011",
  "TaskName": "vwfate",
  "TotalReadoutTime": 0.0551515,
  "TxRefAmp": 214.135,
  "dcmmeta_affine": [
    [-1.9981200695037842, -0.02859845757484436, -0.08184467256069183, 99.83363342285156],
    [-0.014929153025150299, 1.9733505249023438, -0.3250613808631897, -63.88169479370117],
    [-0.0854022353887558, 0.3241448700428009, 1.971709132194519, -84.21875762939453],
    [0.0, 0.0, 0.0, 1.0]
],
  "dcmmeta_reorient_transform": [
    [0.0, -1.0, 0.0, 95.0],
    [1.0, 0.0, 0.0, 0.0],
    [0.0, 0.0, 1.0, 0.0],
    [0.0, 0.0, 0.0, 1.0]
],
  "dcmmeta_shape": [96, 96, 66, 164],
  "dcmmeta_slice_dim": 2,
  "dcmmeta_version": 0.6,
  "global": {
    "const": {
      "AcquisitionMatrix": [96, 0, 0, 72],
      "AngioFlag": "N",
      "BitsAllocated": 16,
      "BitsStored": 12,
      "BodyPartExamined": "BRAIN",
      "Columns": 864,
      "EchoNumbers": 1,
      "EchoTime": 30.0,
      "EchoTrainLength": 58,
      "FlipAngle": 62.0,
      "HighBit": 11,
      "ImageOrientationPatient": [0.99906000544785, 0.00746457672229, -0.0427011195275, -0.0142992288219, 0.98667525424211, -0.1620724366491],
      "ImagePositionPatient": [-853.41305510536, -887.08599531921, 103.84109295405],
      "ImageType": [
        "ORIGINAL",
        "PRIMARY",
        "M",
        "ND",
        "MOSAIC"
],
      "ImagedNucleus": "1H",
      "ImagingFrequency": 123.259554,
      "InPlanePhaseEncodingDirection": "COL",
      "MRAcquisitionType": "2D",
      "MagneticFieldStrength": 3.0,
      "Manufacturer": "SIEMENS",
      "ManufacturerModelName": "Prisma",
      "Modality": "MR",
      "NumberOfAverages": 1.0,
      "NumberOfPhaseEncodingSteps": 58,
      "PercentPhaseFieldOfView": 100.0,
      "PercentSampling": 75.0,
      "PerformedProcedureStepStartTime": "081455.466000",
      "PhotometricInterpretation": "MONOCHROME2",
      "PixelBandwidth": 2265.0,
      "PixelRepresentation": 0,
      "PixelSpacing": [2.0, 2.0],
      "ProtocolName": "func_vwfate_run16",
      "RepetitionTime": 1500.0,
      "Rows": 864,
      "SAR": 0.05053417584082,
      "SamplesPerPixel": 1,
      "ScanOptions": [
        "PFP",
        "FS"
],
      "ScanningSequence": "EP",
      "SequenceName": "*epfid2d1_72",
      "SequenceVariant": [
        "SK",
        "OSP"
],
      "SeriesDescription": "func_vwfate_run16",
      "SeriesNumber": 15,
      "SeriesTime": "092633.299000",
      "SliceLocation": -76.730136797753,
      "SliceThickness": 2.0,
      "SmallestImagePixelValue": 0,
      "SoftwareVersions": "syngo MR E11",
      "SpacingBetweenSlices": 2.0000000443993,
      "SpecificCharacterSet": "ISO_IR 100",
      "StudyID": "5",
      "StudyTime": "081454.914000",
      "TransmitCoilName": "Body",
      "VariableFlipAngleFlag": "N",
      "WindowCenterWidthExplanation": "Algo1",
      "dBdt": 0.0},
    "slices": {}
  },
  "time": {
    "samples": {
      "AcquisitionNumber": [1, 2, 3, 4, 5, 6, 7, 8, 9, 10, 11, 12, 13, 14, 15, 16, 17, 18, 19, 20, 21, 22, 23, 24, 25, 26, 27, 28, 29, 30, 31, 32, 33, 34, 35, 36, 37, 38, 39, 40, 41, 42, 43, 44, 45, 46, 47, 48, 49, 50, 51, 52, 53, 54, 55, 56, 57, 58, 59, 60, 61, 62, 63, 64, 65, 66, 67, 68, 69, 70, 71, 72, 73, 74, 75, 76, 77, 78, 79, 80, 81, 82, 83, 84, 85, 86, 87, 88, 89, 90, 91, 92, 93, 94, 95, 96, 97, 98, 99, 100, 101, 102, 103, 104, 105, 106, 107, 108, 109, 110, 111, 112, 113, 114, 115, 116, 117, 118, 119, 120, 121, 122, 123, 124, 125, 126, 127, 128, 129, 130, 131, 132, 133, 134, 135, 136, 137, 138, 139, 140, 141, 142, 143, 144, 145, 146, 147, 148, 149, 150, 151, 152, 153, 154, 155, 156, 157, 158, 159, 160, 161, 162, 163, 164],
      "AcquisitionTime": ["092547.547500", "092549.047500", "092550.547500", "092552.047500", "092553.547500", "092555.047500", "092556.547500", "092558.047500", "092559.547500", "092601.047500", "092602.547500", "092604.047500", "092605.547500", "092607.047500", "092608.547500", "092610.047500", "092611.547500", "092613.047500", "092614.547500", "092616.047500", "092617.547500", "092619.047500", "092620.547500", "092622.047500", "092623.547500", "092625.047500", "092626.547500", "092628.047500", "092629.547500", "092631.047500", "092632.547500", "092634.047500", "092635.547500", "092637.047500", "092638.547500", "092640.047500", "092641.547500", "092643.047500", "092644.547500", "092646.047500", "092647.547500", "092649.047500", "092650.547500", "092652.047500", "092653.547500", "092655.047500", "092656.547500", "092658.047500", "092659.547500", "092701.047500", "092702.547500", "092704.047500", "092705.547500", "092707.047500", "092708.547500", "092710.047500", "092711.547500", "092713.047500", "092714.547500", "092716.047500", "092717.547500", "092719.047500", "092720.547500", "092722.047500", "092723.547500", "092725.047500", "092726.547500", "092728.047500", "092729.547500", "092731.047500", "092732.547500", "092734.047500", "092735.547500", "092737.047500", "092738.547500", "092740.047500", "092741.547500", "092743.047500", "092744.547500", "092746.047500", "092747.547500", "092749.047500", "092750.547500", "092752.047500", "092753.547500", "092755.047500", "092756.547500", "092758.047500", "092759.547500", "092801.047500", "092802.547500", "092804.047500", "092805.547500", "092807.047500", "092808.547500", "092810.047500", "092811.547500", "092813.047500", "092814.547500", "092816.047500", "092817.547500", "092819.047500", "092820.547500", "092822.047500", "092823.547500", "092825.047500", "092826.547500", "092828.047500", "092829.547500", "092831.047500", "092832.547500", "092834.047500", "092835.547500", "092837.047500", "092838.547500", "092840.047500", "092841.547500", "092843.047500", "092844.547500", "092846.047500", "092847.547500", "092849.047500", "092850.547500", "092852.047500", "092853.547500", "092855.047500", "092856.547500", "092858.047500", "092859.547500", "092901.047500", "092902.547500", "092904.047500", "092905.547500", "092907.047500", "092908.547500", "092910.047500", "092911.547500", "092913.047500", "092914.547500", "092916.047500", "092917.547500", "092919.047500", "092920.547500", "092922.047500", "092923.547500", "092925.047500", "092926.547500", "092928.047500", "092929.547500", "092931.047500", "092932.547500", "092934.047500", "092935.547500", "092937.047500", "092938.547500", "092940.047500", "092941.547500", "092943.047500", "092944.547500", "092946.047500", "092947.547500", "092949.047500", "092950.547500", "092952.047500"],
      "ContentTime": ["092633.303000", "092633.307000", "092633.310000", "092633.313000", "092633.316000", "092633.320000", "092633.323000", "092633.335000", "092633.338000", "092633.341000", "092633.344000", "092633.347000", "092633.351000", "092633.354000", "092633.356000", "092633.360000", "092633.363000", "092633.365000", "092633.369000", "092633.372000", "092633.375000", "092633.378000", "092633.382000", "092633.385000", "092633.388000", "092633.391000", "092633.394000", "092633.397000", "092633.400000", "092633.403000", "092713.298000", "092713.301000", "092713.304000", "092713.307000", "092713.310000", "092713.313000", "092713.317000", "092713.320000", "092713.323000", "092713.326000", "092713.329000", "092713.332000", "092713.335000", "092713.338000", "092713.341000", "092713.344000", "092713.347000", "092713.356000", "092713.360000", "092713.363000", "092713.365000", "092713.368000", "092713.372000", "092713.375000", "092713.377000", "092713.380000", "092713.384000", "092753.298000", "092753.301000", "092753.304000", "092753.307000", "092753.310000", "092753.313000", "092753.316000", "092753.319000", "092753.322000", "092753.325000", "092753.328000", "092753.331000", "092753.334000", "092753.337000", "092753.340000", "092753.343000", "092753.346000", "092753.349000", "092753.352000", "092753.355000", "092753.358000", "092753.361000", "092753.364000", "092753.367000", "092753.370000", "092753.373000", "092833.298000", "092833.301000", "092833.304000", "092833.308000", "092833.311000", "092833.314000", "092833.317000", "092833.320000", "092833.323000", "092833.326000", "092833.329000", "092833.332000", "092833.335000", "092833.338000", "092833.341000", "092833.344000", "092833.347000", "092833.350000", "092833.353000", "092833.356000", "092833.359000", "092833.362000", "092833.365000", "092833.368000", "092833.371000", "092833.374000", "092833.377000", "092913.297000", "092913.300000", "092913.303000", "092913.306000", "092913.309000", "092913.312000", "092913.315000", "092913.318000", "092913.321000", "092913.324000", "092913.328000", "092913.331000", "092913.334000", "092913.337000", "092913.340000", "092913.343000", "092913.346000", "092913.349000", "092913.357000", "092913.360000", "092913.363000", "092913.366000", "092913.369000", "092913.372000", "092913.375000", "092913.378000", "092913.381000", "092953.299000", "092953.303000", "092953.307000", "092953.310000", "092953.314000", "092953.317000", "092953.320000", "092953.323000", "092953.326000", "092953.330000", "092953.333000", "092953.336000", "092953.339000", "092953.342000", "092953.345000", "092953.348000", "092953.351000", "092953.354000", "092953.357000", "092953.360000", "092953.363000", "092953.366000", "092953.369000", "092953.372000", "092953.375000", "092953.378000", "092953.465000"],
      "InstanceCreationTime": ["092633.303000", "092633.307000", "092633.310000", "092633.313000", "092633.316000", "092633.320000", "092633.323000", "092633.335000", "092633.338000", "092633.341000", "092633.344000", "092633.347000", "092633.351000", "092633.354000", "092633.356000", "092633.360000", "092633.363000", "092633.365000", "092633.369000", "092633.372000", "092633.375000", "092633.378000", "092633.382000", "092633.385000", "092633.388000", "092633.391000", "092633.394000", "092633.397000", "092633.400000", "092633.403000", "092713.298000", "092713.301000", "092713.304000", "092713.307000", "092713.310000", "092713.313000", "092713.317000", "092713.320000", "092713.323000", "092713.326000", "092713.329000", "092713.332000", "092713.335000", "092713.338000", "092713.341000", "092713.344000", "092713.347000", "092713.356000", "092713.360000", "092713.363000", "092713.365000", "092713.368000", "092713.372000", "092713.375000", "092713.377000", "092713.380000", "092713.384000", "092753.298000", "092753.301000", "092753.304000", "092753.307000", "092753.310000", "092753.313000", "092753.316000", "092753.319000", "092753.322000", "092753.325000", "092753.328000", "092753.331000", "092753.334000", "092753.337000", "092753.340000", "092753.343000", "092753.346000", "092753.349000", "092753.352000", "092753.355000", "092753.358000", "092753.361000", "092753.364000", "092753.367000", "092753.370000", "092753.373000", "092833.298000", "092833.301000", "092833.304000", "092833.308000", "092833.311000", "092833.314000", "092833.317000", "092833.320000", "092833.323000", "092833.326000", "092833.329000", "092833.332000", "092833.335000", "092833.338000", "092833.341000", "092833.344000", "092833.347000", "092833.350000", "092833.353000", "092833.356000", "092833.359000", "092833.362000", "092833.365000", "092833.368000", "092833.371000", "092833.374000", "092833.377000", "092913.297000", "092913.300000", "092913.303000", "092913.306000", "092913.309000", "092913.312000", "092913.315000", "092913.318000", "092913.321000", "092913.324000", "092913.328000", "092913.331000", "092913.334000", "092913.337000", "092913.340000", "092913.343000", "092913.346000", "092913.349000", "092913.357000", "092913.360000", "092913.363000", "092913.366000", "092913.369000", "092913.372000", "092913.375000", "092913.378000", "092913.381000", "092953.299000", "092953.303000", "092953.307000", "092953.310000", "092953.314000", "092953.317000", "092953.320000", "092953.323000", "092953.326000", "092953.330000", "092953.333000", "092953.336000", "092953.339000", "092953.342000", "092953.345000", "092953.348000", "092953.351000", "092953.354000", "092953.357000", "092953.360000", "092953.363000", "092953.366000", "092953.369000", "092953.372000", "092953.375000", "092953.378000", "092953.465000"],
      "InstanceNumber": [1, 2, 3, 4, 5, 6, 7, 8, 9, 10, 11, 12, 13, 14, 15, 16, 17, 18, 19, 20, 21, 22, 23, 24, 25, 26, 27, 28, 29, 30, 31, 32, 33, 34, 35, 36, 37, 38, 39, 40, 41, 42, 43, 44, 45, 46, 47, 48, 49, 50, 51, 52, 53, 54, 55, 56, 57, 58, 59, 60, 61, 62, 63, 64, 65, 66, 67, 68, 69, 70, 71, 72, 73, 74, 75, 76, 77, 78, 79, 80, 81, 82, 83, 84, 85, 86, 87, 88, 89, 90, 91, 92, 93, 94, 95, 96, 97, 98, 99, 100, 101, 102, 103, 104, 105, 106, 107, 108, 109, 110, 111, 112, 113, 114, 115, 116, 117, 118, 119, 120, 121, 122, 123, 124, 125, 126, 127, 128, 129, 130, 131, 132, 133, 134, 135, 136, 137, 138, 139, 140, 141, 142, 143, 144, 145, 146, 147, 148, 149, 150, 151, 152, 153, 154, 155, 156, 157, 158, 159, 160, 161, 162, 163, 164],
      "LargestImagePixelValue": [2172, 2049, 2113, 2149, 2017, 2152, 2010, 2175, 2081, 2105, 1991, 2139, 2147, 2163, 2161, 2300, 2186, 2177, 2171, 2185, 2084, 2211, 2036, 2187, 2169, 2122, 2206, 2157, 2174, 2154, 2218, 2242, 2185, 2170, 2353, 2115, 2127, 2205, 2181, 2228, 2204, 2217, 2222, 2167, 2129, 2333, 2314, 2300, 2225, 2272, 2278, 2187, 2194, 2210, 2230, 2144, 2103, 2213, 2196, 2275, 2224, 2210, 2164, 2167, 2168, 2342, 2256, 2194, 2232, 2217, 2136, 2163, 2153, 2193, 2111, 2208, 2209, 2226, 2197, 2270, 2142, 2247, 2228, 2203, 2294, 2161, 2210, 2233, 2197, 2204, 2162, 2195, 2157, 2229, 2257, 2264, 2044, 2224, 2140, 2292, 2297, 2185, 2195, 2121, 2190, 2107, 2121, 2152, 2195, 2174, 2168, 2165, 2247, 2323, 2338, 2306, 2286, 2151, 2398, 2180, 2159, 2248, 2195, 2183, 2231, 2272, 2155, 2199, 2218, 2267, 2293, 2334, 2153, 2124, 2286, 2273, 2286, 2266, 2315, 2302, 2319, 2317, 2332, 2277, 2314, 2305, 2263, 2280, 2319, 2356, 2304, 2183, 2222, 2207, 2149, 2247, 2261, 2173, 2134, 2187, 2197, 2175, 2246, 2181],
      "WindowCenter": [708.0, 704.0, 703.0, 706.0, 705.0, 706.0, 706.0, 706.0, 706.0, 707.0, 706.0, 707.0, 706.0, 705.0, 705.0, 707.0, 705.0, 705.0, 706.0, 706.0, 706.0, 708.0, 705.0, 709.0, 709.0, 708.0, 708.0, 708.0, 706.0, 706.0, 706.0, 706.0, 705.0, 705.0, 707.0, 705.0, 705.0, 706.0, 706.0, 706.0, 706.0, 706.0, 705.0, 705.0, 704.0, 707.0, 707.0, 708.0, 707.0, 708.0, 708.0, 707.0, 707.0, 708.0, 707.0, 706.0, 706.0, 707.0, 707.0, 708.0, 708.0, 707.0, 705.0, 703.0, 703.0, 704.0, 704.0, 704.0, 705.0, 706.0, 706.0, 706.0, 706.0, 706.0, 705.0, 705.0, 705.0, 705.0, 705.0, 707.0, 706.0, 707.0, 708.0, 708.0, 709.0, 708.0, 709.0, 709.0, 708.0, 709.0, 707.0, 707.0, 706.0, 707.0, 707.0, 707.0, 705.0, 706.0, 705.0, 706.0, 706.0, 706.0, 706.0, 706.0, 706.0, 706.0, 706.0, 707.0, 708.0, 708.0, 708.0, 709.0, 710.0, 707.0, 706.0, 707.0, 707.0, 706.0, 708.0, 704.0, 701.0, 702.0, 702.0, 702.0, 704.0, 705.0, 705.0, 705.0, 706.0, 707.0, 708.0, 708.0, 706.0, 705.0, 707.0, 707.0, 707.0, 708.0, 709.0, 709.0, 709.0, 709.0, 709.0, 709.0, 709.0, 709.0, 709.0, 709.0, 709.0, 709.0, 709.0, 708.0, 708.0, 708.0, 708.0, 709.0, 708.0, 707.0, 705.0, 705.0, 705.0, 705.0, 706.0, 706.0],
      "WindowWidth": [1523.0, 1513.0, 1511.0, 1518.0, 1514.0, 1518.0, 1516.0, 1517.0, 1518.0, 1520.0, 1518.0, 1520.0, 1518.0, 1516.0, 1516.0, 1518.0, 1515.0, 1516.0, 1517.0, 1518.0, 1518.0, 1521.0, 1515.0, 1526.0, 1525.0, 1522.0, 1524.0, 1522.0, 1518.0, 1517.0, 1517.0, 1517.0, 1515.0, 1514.0, 1521.0, 1514.0, 1515.0, 1518.0, 1517.0, 1517.0, 1517.0, 1516.0, 1515.0, 1513.0, 1512.0, 1519.0, 1519.0, 1521.0, 1519.0, 1521.0, 1522.0, 1519.0, 1520.0, 1522.0, 1519.0, 1518.0, 1518.0, 1521.0, 1521.0, 1523.0, 1524.0, 1521.0, 1514.0, 1510.0, 1508.0, 1513.0, 1512.0, 1512.0, 1515.0, 1516.0, 1516.0, 1518.0, 1517.0, 1517.0, 1514.0, 1515.0, 1515.0, 1515.0, 1515.0, 1519.0, 1516.0, 1521.0, 1523.0, 1523.0, 1526.0, 1523.0, 1525.0, 1526.0, 1524.0, 1524.0, 1521.0, 1519.0, 1517.0, 1519.0, 1520.0, 1519.0, 1514.0, 1517.0, 1515.0, 1518.0, 1518.0, 1517.0, 1518.0, 1516.0, 1517.0, 1516.0, 1517.0, 1518.0, 1521.0, 1522.0, 1523.0, 1525.0, 1528.0, 1520.0, 1518.0, 1520.0, 1520.0, 1518.0, 1523.0, 1512.0, 1505.0, 1506.0, 1506.0, 1506.0, 1511.0, 1514.0, 1514.0, 1516.0, 1518.0, 1520.0, 1522.0, 1522.0, 1517.0, 1515.0, 1518.0, 1519.0, 1520.0, 1522.0, 1525.0, 1525.0, 1526.0, 1526.0, 1526.0, 1524.0, 1526.0, 1526.0, 1526.0, 1526.0, 1525.0, 1525.0, 1524.0, 1522.0, 1523.0, 1523.0, 1521.0, 1524.0, 1523.0, 1519.0, 1515.0, 1515.0, 1514.0, 1514.0, 1517.0, 1516.0]
    },
    "slices": {}
  }
}