{
  "AcquisitionMatrixPE": 72,
  "AcquisitionNumber": 1,
  "AcquisitionTime": "17:25:9.125000",
  "BandwidthPerPixelPhaseEncode": 17.943,
  "BaseResolution": 96,
  "BodyPartExamined": "BRAIN",
  "CoilCombinationMethod": "Sum of Squares",
  "ConsistencyInfo": "N4_VE11C_LATEST_20160120",
  "ConversionSoftware": "dcm2niix",
  "ConversionSoftwareVersion": "v1.0.20211006",
  "DerivedVendorReportedEchoSpacing": 0.000552897,
  "DeviceSerialNumber": "166011",
  "EchoTime": 0.03,
  "EchoTrainLength": 58,
  "EffectiveEchoSpacing": 0.000580542,
  "FlipAngle": 62,
  "ImageOrientationPatientDICOM": [0.99765, -0.00897437, -0.0679262, -0.00365656, 0.982998, -0.183578],
  "ImageType": [
    "ORIGINAL",
    "PRIMARY",
    "M",
    "ND",
    "MOSAIC"
],
  "ImagingFrequency": 123.259,
  "InPlanePhaseEncodingDirectionDICOM": "COL",
  "InstitutionAddress": "West 130th Street 610,NY,NYC,US,10025",
  "InstitutionName": "MBBI",
  "MRAcquisitionType": "2D",
  "MagneticFieldStrength": 3,
  "Manufacturer": "Siemens",
  "ManufacturersModelName": "Prisma",
  "Modality": "MR",
  "MultibandAccelerationFactor": 3,
  "PartialFourier": 0.75,
  "PatientPosition": "HFS",
  "PercentPhaseFOV": 100,
  "PercentSampling": 75,
  "PhaseEncodingDirection": "j-",
  "PhaseEncodingSteps": 58,
  "PhaseOversampling": 0.05,
  "PhaseResolution": 0.75,
  "PixelBandwidth": 2265,
  "ProcedureStepDescription": "White^Word_recognition",
  "ProtocolName": "func_catLoc_run4",
  "PulseSequenceDetails": "%SiemensSeq%\\ep2d_bold",
  "ReceiveCoilActiveElements": "HC1-7",
  "ReceiveCoilName": "HeadNeck_64",
  "ReconMatrixPE": 96,
  "RefLinesPE": 40,
  "RepetitionTime": 1.5,
  "SAR": 0.0490186,
  "ScanOptions": "PFP\\FS",
  "ScanningSequence": "EP",
  "SequenceName": "*epfid2d1_72",
  "SequenceVariant": "SK\\OSP",
  "SeriesDescription": "func_catLoc_run4",
  "SeriesNumber": 13,
  "ShimSetting": [-1167, -1325, 670, 657, -88, -35, -14, 47],
  "SliceThickness": 2,
  "SliceTiming": [1.075, 0, 0.74, 0.0675, 0.8075, 0.135, 0.875, 0.2025, 0.94, 0.2675, 1.0075, 0.4025, 1.1425, 0.47, 1.21, 0.5375, 1.2775, 0.605, 1.345, 0.6725, 1.4125, 0.335, 1.075, 0, 0.74, 0.0675, 0.8075, 0.135, 0.875, 0.2025, 0.94, 0.2675, 1.0075, 0.4025, 1.1425, 0.47, 1.21, 0.5375, 1.2775, 0.605, 1.345, 0.6725, 1.4125, 0.335, 1.075, 0, 0.74, 0.0675, 0.8075, 0.135, 0.875, 0.2025, 0.94, 0.2675, 1.0075, 0.4025, 1.1425, 0.47, 1.21, 0.5375, 1.2775, 0.605, 1.345, 0.6725, 1.4125, 0.335],
  "SoftwareVersions": "syngo MR E11",
  "SpacingBetweenSlices": 2,
  "StationName": "AWP166011",
  "TaskName": "catLoc",
  "TotalReadoutTime": 0.0551515,
  "TxRefAmp": 222.783,
  "dcmmeta_affine": [
    [-1.9952999353408813, -0.007313124369829893, -0.13683761656284332, 98.66490936279297],
    [0.017948731780052185, 1.9659966230392456, -0.36679011583328247, -58.384708404541016],
    [-0.13585233688354492, 0.36715617775917053, 1.9613109827041626, -71.38602447509766],
    [0.0, 0.0, 0.0, 1.0]
],
  "dcmmeta_reorient_transform": [
    [0.0, -1.0, 0.0, 95.0],
    [1.0, 0.0, 0.0, 0.0],
    [0.0, 0.0, 1.0, 0.0],
    [0.0, 0.0, 0.0, 1.0]
],
  "dcmmeta_shape": [96, 96, 66, 214],
  "dcmmeta_slice_dim": 2,
  "dcmmeta_version": 0.6,
  "global": {
    "const": {
      "AcquisitionMatrix": [96, 0, 0, 72],
      "AngioFlag": "N",
      "BitsAllocated": 16,
      "BitsStored": 12,
      "BodyPartExamined": "BRAIN",
      "Columns": 864,
      "EchoNumbers": 1,
      "EchoTime": 30.0,
      "EchoTrainLength": 58,
      "FlipAngle": 62.0,
      "HighBit": 11,
      "ImageOrientationPatient": [0.99764998697909, -0.0089743662924, -0.067926167493, -0.0036565620903, 0.98299832853318, -0.1835780914343],
      "ImagePositionPatient": [-861.35711280322, -876.4353769295, 156.64908690919],
      "ImageType": [
        "ORIGINAL",
        "PRIMARY",
        "M",
        "ND",
        "MOSAIC"
],
      "ImagedNucleus": "1H",
      "ImagingFrequency": 123.259484,
      "InPlanePhaseEncodingDirection": "COL",
      "MRAcquisitionType": "2D",
      "MagneticFieldStrength": 3.0,
      "Manufacturer": "SIEMENS",
      "ManufacturerModelName": "Prisma",
      "Modality": "MR",
      "NumberOfAverages": 1.0,
      "NumberOfPhaseEncodingSteps": 58,
      "PercentPhaseFieldOfView": 100.0,
      "PercentSampling": 75.0,
      "PerformedProcedureStepStartTime": "163247.174000",
      "PhotometricInterpretation": "MONOCHROME2",
      "PixelBandwidth": 2265.0,
      "PixelRepresentation": 0,
      "PixelSpacing": [2.0, 2.0],
      "ProtocolName": "func_catLoc_run4",
      "RepetitionTime": 1500.0,
      "Rows": 864,
      "SAR": 0.04901862461153,
      "SamplesPerPixel": 1,
      "ScanOptions": [
        "PFP",
        "FS"
],
      "ScanningSequence": "EP",
      "SequenceName": "*epfid2d1_72",
      "SequenceVariant": [
        "SK",
        "OSP"
],
      "SeriesDescription": "func_catLoc_run4",
      "SeriesNumber": 13,
      "SeriesTime": "172543.098000",
      "SliceLocation": -66.048159542873,
      "SliceThickness": 2.0,
      "SmallestImagePixelValue": 0,
      "SoftwareVersions": "syngo MR E11",
      "SpacingBetweenSlices": 2.0000000189202,
      "SpecificCharacterSet": "ISO_IR 100",
      "StudyID": "2",
      "StudyTime": "163247.124000",
      "TransmitCoilName": "Body",
      "VariableFlipAngleFlag": "N",
      "WindowCenterWidthExplanation": "Algo1",
      "dBdt": 0.0},
    "slices": {}
  },
  "time": {
    "samples": {
      "AcquisitionNumber": [1, 2, 3, 4, 5, 6, 7, 8, 9, 10, 11, 12, 13, 14, 15, 16, 17, 18, 19, 20, 21, 22, 23, 24, 25, 26, 27, 28, 29, 30, 31, 32, 33, 34, 35, 36, 37, 38, 39, 40, 41, 42, 43, 44, 45, 46, 47, 48, 49, 50, 51, 52, 53, 54, 55, 56, 57, 58, 59, 60, 61, 62, 63, 64, 65, 66, 67, 68, 69, 70, 71, 72, 73, 74, 75, 76, 77, 78, 79, 80, 81, 82, 83, 84, 85, 86, 87, 88, 89, 90, 91, 92, 93, 94, 95, 96, 97, 98, 99, 100, 101, 102, 103, 104, 105, 106, 107, 108, 109, 110, 111, 112, 113, 114, 115, 116, 117, 118, 119, 120, 121, 122, 123, 124, 125, 126, 127, 128, 129, 130, 131, 132, 133, 134, 135, 136, 137, 138, 139, 140, 141, 142, 143, 144, 145, 146, 147, 148, 149, 150, 151, 152, 153, 154, 155, 156, 157, 158, 159, 160, 161, 162, 163, 164, 165, 166, 167, 168, 169, 170, 171, 172, 173, 174, 175, 176, 177, 178, 179, 180, 181, 182, 183, 184, 185, 186, 187, 188, 189, 190, 191, 192, 193, 194, 195, 196, 197, 198, 199, 200, 201, 202, 203, 204, 205, 206, 207, 208, 209, 210, 211, 212, 213, 214],
      "AcquisitionTime": ["172509.125000", "172510.625000", "172512.125000", "172513.625000", "172515.125000", "172516.625000", "172518.125000", "172519.625000", "172521.125000", "172522.625000", "172524.125000", "172525.625000", "172527.125000", "172528.625000", "172530.125000", "172531.625000", "172533.125000", "172534.625000", "172536.125000", "172537.625000", "172539.125000", "172540.625000", "172542.125000", "172543.625000", "172545.125000", "172546.625000", "172548.125000", "172549.625000", "172551.125000", "172552.625000", "172554.125000", "172555.625000", "172557.125000", "172558.625000", "172600.125000", "172601.625000", "172603.125000", "172604.625000", "172606.125000", "172607.625000", "172609.125000", "172610.625000", "172612.125000", "172613.625000", "172615.125000", "172616.625000", "172618.125000", "172619.625000", "172621.125000", "172622.625000", "172624.125000", "172625.625000", "172627.125000", "172628.625000", "172630.125000", "172631.625000", "172633.125000", "172634.625000", "172636.125000", "172637.625000", "172639.125000", "172640.625000", "172642.125000", "172643.625000", "172645.125000", "172646.625000", "172648.125000", "172649.625000", "172651.125000", "172652.625000", "172654.125000", "172655.625000", "172657.125000", "172658.625000", "172700.125000", "172701.625000", "172703.125000", "172704.625000", "172706.125000", "172707.625000", "172709.125000", "172710.625000", "172712.125000", "172713.625000", "172715.125000", "172716.625000", "172718.125000", "172719.625000", "172721.125000", "172722.625000", "172724.125000", "172725.625000", "172727.125000", "172728.625000", "172730.125000", "172731.625000", "172733.125000", "172734.625000", "172736.125000", "172737.625000", "172739.125000", "172740.625000", "172742.125000", "172743.625000", "172745.125000", "172746.625000", "172748.125000", "172749.625000", "172751.125000", "172752.625000", "172754.125000", "172755.625000", "172757.125000", "172758.625000", "172800.125000", "172801.625000", "172803.125000", "172804.625000", "172806.125000", "172807.625000", "172809.125000", "172810.625000", "172812.125000", "172813.625000", "172815.125000", "172816.625000", "172818.125000", "172819.625000", "172821.125000", "172822.625000", "172824.125000", "172825.625000", "172827.125000", "172828.625000", "172830.125000", "172831.625000", "172833.125000", "172834.625000", "172836.125000", "172837.625000", "172839.125000", "172840.625000", "172842.125000", "172843.625000", "172845.125000", "172846.625000", "172848.125000", "172849.625000", "172851.125000", "172852.625000", "172854.125000", "172855.625000", "172857.125000", "172858.625000", "172900.125000", "172901.625000", "172903.125000", "172904.625000", "172906.125000", "172907.625000", "172909.125000", "172910.625000", "172912.125000", "172913.625000", "172915.125000", "172916.625000", "172918.125000", "172919.625000", "172921.125000", "172922.625000", "172924.125000", "172925.625000", "172927.125000", "172928.625000", "172930.125000", "172931.625000", "172933.125000", "172934.625000", "172936.125000", "172937.625000", "172939.125000", "172940.625000", "172942.125000", "172943.625000", "172945.125000", "172946.625000", "172948.125000", "172949.625000", "172951.125000", "172952.625000", "172954.125000", "172955.625000", "172957.125000", "172958.625000", "173000.125000", "173001.625000", "173003.125000", "173004.625000", "173006.125000", "173007.625000", "173009.125000", "173010.625000", "173012.125000", "173013.625000", "173015.125000", "173016.625000", "173018.125000", "173019.625000", "173021.125000", "173022.625000", "173024.125000", "173025.625000", "173027.125000", "173028.625000"],
      "ContentTime": ["172543.102000", "172543.106000", "172543.109000", "172543.112000", "172543.115000", "172543.118000", "172543.121000", "172543.124000", "172543.127000", "172543.130000", "172543.139000", "172543.142000", "172543.146000", "172543.152000", "172543.162000", "172543.165000", "172543.168000", "172543.171000", "172543.174000", "172543.177000", "172543.180000", "172543.183000", "172543.186000", "172623.098000", "172623.101000", "172623.104000", "172623.107000", "172623.110000", "172623.121000", "172623.124000", "172623.127000", "172623.130000", "172623.133000", "172623.136000", "172623.139000", "172623.142000", "172623.145000", "172623.149000", "172623.152000", "172623.155000", "172623.158000", "172623.161000", "172623.164000", "172623.167000", "172623.170000", "172623.173000", "172623.176000", "172623.179000", "172623.182000", "172703.098000", "172703.101000", "172703.104000", "172703.115000", "172703.118000", "172703.121000", "172703.124000", "172703.127000", "172703.130000", "172703.133000", "172703.136000", "172703.139000", "172703.142000", "172703.145000", "172703.148000", "172703.151000", "172703.154000", "172703.157000", "172703.160000", "172703.163000", "172703.166000", "172703.169000", "172703.172000", "172703.175000", "172703.178000", "172703.181000", "172703.184000", "172743.098000", "172743.101000", "172743.104000", "172743.107000", "172743.110000", "172743.113000", "172743.116000", "172743.119000", "172743.122000", "172743.125000", "172743.128000", "172743.131000", "172743.134000", "172743.137000", "172743.140000", "172743.143000", "172743.146000", "172743.148000", "172743.151000", "172743.155000", "172743.157000", "172743.160000", "172743.163000", "172743.166000", "172743.169000", "172743.172000", "172743.175000", "172823.097000", "172823.100000", "172823.103000", "172823.106000", "172823.109000", "172823.112000", "172823.115000", "172823.118000", "172823.121000", "172823.124000", "172823.127000", "172823.130000", "172823.133000", "172823.136000", "172823.139000", "172823.142000", "172823.147000", "172823.150000", "172823.153000", "172823.156000", "172823.159000", "172823.162000", "172823.165000", "172823.168000", "172823.171000", "172823.174000", "172843.098000", "172843.101000", "172843.104000", "172843.107000", "172843.110000", "172843.113000", "172843.116000", "172843.119000", "172843.122000", "172843.125000", "172843.128000", "172843.131000", "172843.134000", "172843.137000", "172923.098000", "172923.101000", "172923.104000", "172923.107000", "172923.110000", "172923.113000", "172923.116000", "172923.119000", "172923.122000", "172923.125000", "172923.128000", "172923.131000", "172923.134000", "172923.137000", "172923.140000", "172923.145000", "172923.148000", "172923.151000", "172923.154000", "172923.170000", "172923.173000", "172923.176000", "172923.179000", "172923.182000", "172923.185000", "172923.188000", "173003.098000", "173003.101000", "173003.104000", "173003.107000", "173003.110000", "173003.113000", "173003.116000", "173003.119000", "173003.122000", "173003.125000", "173003.128000", "173003.131000", "173003.134000", "173003.137000", "173003.140000", "173003.143000", "173003.146000", "173003.149000", "173003.152000", "173003.155000", "173003.158000", "173003.161000", "173003.172000", "173003.175000", "173003.178000", "173003.181000", "173003.184000", "173029.416000", "173029.419000", "173029.422000", "173029.426000", "173029.428000", "173029.432000", "173029.435000", "173029.438000", "173029.441000", "173029.444000", "173029.447000", "173029.450000", "173029.453000", "173029.456000", "173029.459000", "173029.462000", "173029.465000", "173029.468000"],
      "InstanceCreationTime": ["172543.102000", "172543.106000", "172543.109000", "172543.112000", "172543.115000", "172543.118000", "172543.121000", "172543.124000", "172543.127000", "172543.130000", "172543.139000", "172543.142000", "172543.146000", "172543.152000", "172543.162000", "172543.165000", "172543.168000", "172543.171000", "172543.174000", "172543.177000", "172543.180000", "172543.183000", "172543.186000", "172623.098000", "172623.101000", "172623.104000", "172623.107000", "172623.110000", "172623.121000", "172623.124000", "172623.127000", "172623.130000", "172623.133000", "172623.136000", "172623.139000", "172623.142000", "172623.145000", "172623.149000", "172623.152000", "172623.155000", "172623.158000", "172623.161000", "172623.164000", "172623.167000", "172623.170000", "172623.173000", "172623.176000", "172623.179000", "172623.182000", "172703.098000", "172703.101000", "172703.104000", "172703.115000", "172703.118000", "172703.121000", "172703.124000", "172703.127000", "172703.130000", "172703.133000", "172703.136000", "172703.139000", "172703.142000", "172703.145000", "172703.148000", "172703.151000", "172703.154000", "172703.157000", "172703.160000", "172703.163000", "172703.166000", "172703.169000", "172703.172000", "172703.175000", "172703.178000", "172703.181000", "172703.184000", "172743.098000", "172743.101000", "172743.104000", "172743.107000", "172743.110000", "172743.113000", "172743.116000", "172743.119000", "172743.122000", "172743.125000", "172743.128000", "172743.131000", "172743.134000", "172743.137000", "172743.140000", "172743.143000", "172743.146000", "172743.148000", "172743.151000", "172743.155000", "172743.157000", "172743.160000", "172743.163000", "172743.166000", "172743.169000", "172743.172000", "172743.175000", "172823.097000", "172823.100000", "172823.103000", "172823.106000", "172823.109000", "172823.112000", "172823.115000", "172823.118000", "172823.121000", "172823.124000", "172823.127000", "172823.130000", "172823.133000", "172823.136000", "172823.139000", "172823.142000", "172823.147000", "172823.150000", "172823.153000", "172823.156000", "172823.159000", "172823.162000", "172823.165000", "172823.168000", "172823.171000", "172823.174000", "172843.098000", "172843.101000", "172843.104000", "172843.107000", "172843.110000", "172843.113000", "172843.116000", "172843.119000", "172843.122000", "172843.125000", "172843.128000", "172843.131000", "172843.134000", "172843.137000", "172923.098000", "172923.101000", "172923.104000", "172923.107000", "172923.110000", "172923.113000", "172923.116000", "172923.119000", "172923.122000", "172923.125000", "172923.128000", "172923.131000", "172923.134000", "172923.137000", "172923.140000", "172923.145000", "172923.148000", "172923.151000", "172923.154000", "172923.170000", "172923.173000", "172923.176000", "172923.179000", "172923.182000", "172923.185000", "172923.188000", "173003.098000", "173003.101000", "173003.104000", "173003.107000", "173003.110000", "173003.113000", "173003.116000", "173003.119000", "173003.122000", "173003.125000", "173003.128000", "173003.131000", "173003.134000", "173003.137000", "173003.140000", "173003.143000", "173003.146000", "173003.149000", "173003.152000", "173003.155000", "173003.158000", "173003.161000", "173003.172000", "173003.175000", "173003.178000", "173003.181000", "173003.184000", "173029.416000", "173029.419000", "173029.422000", "173029.426000", "173029.428000", "173029.432000", "173029.435000", "173029.438000", "173029.441000", "173029.444000", "173029.447000", "173029.450000", "173029.453000", "173029.456000", "173029.459000", "173029.462000", "173029.465000", "173029.468000"],
      "InstanceNumber": [1, 2, 3, 4, 5, 6, 7, 8, 9, 10, 11, 12, 13, 14, 15, 16, 17, 18, 19, 20, 21, 22, 23, 24, 25, 26, 27, 28, 29, 30, 31, 32, 33, 34, 35, 36, 37, 38, 39, 40, 41, 42, 43, 44, 45, 46, 47, 48, 49, 50, 51, 52, 53, 54, 55, 56, 57, 58, 59, 60, 61, 62, 63, 64, 65, 66, 67, 68, 69, 70, 71, 72, 73, 74, 75, 76, 77, 78, 79, 80, 81, 82, 83, 84, 85, 86, 87, 88, 89, 90, 91, 92, 93, 94, 95, 96, 97, 98, 99, 100, 101, 102, 103, 104, 105, 106, 107, 108, 109, 110, 111, 112, 113, 114, 115, 116, 117, 118, 119, 120, 121, 122, 123, 124, 125, 126, 127, 128, 129, 130, 131, 132, 133, 134, 135, 136, 137, 138, 139, 140, 141, 142, 143, 144, 145, 146, 147, 148, 149, 150, 151, 152, 153, 154, 155, 156, 157, 158, 159, 160, 161, 162, 163, 164, 165, 166, 167, 168, 169, 170, 171, 172, 173, 174, 175, 176, 177, 178, 179, 180, 181, 182, 183, 184, 185, 186, 187, 188, 189, 190, 191, 192, 193, 194, 195, 196, 197, 198, 199, 200, 201, 202, 203, 204, 205, 206, 207, 208, 209, 210, 211, 212, 213, 214],
      "LargestImagePixelValue": [3695, 3564, 3524, 3576, 3514, 3507, 3510, 3477, 3506, 3461, 3499, 3480, 3514, 3494, 3507, 3522, 3521, 3507, 3495, 3500, 3522, 3497, 3445, 3316, 3310, 3317, 3296, 3288, 3294, 3347, 3308, 3302, 3320, 3344, 3342, 3446, 3429, 3418, 3410, 3350, 3346, 3405, 3405, 3423, 3375, 3370, 3356, 3411, 3350, 3327, 3352, 3348, 3300, 3324, 3287, 3302, 3316, 3315, 3311, 3267, 3320, 3295, 3309, 3297, 3366, 3338, 3374, 3290, 3352, 3275, 3277, 3282, 3277, 3338, 3291, 3260, 3285, 3338, 3278, 3317, 3274, 3282, 3251, 3291, 3289, 3263, 3276, 3267, 3276, 3253, 3261, 3271, 3272, 3284, 3406, 3257, 3249, 3233, 3258, 3257, 3270, 3257, 3254, 3261, 3255, 3272, 3241, 3281, 3255, 3225, 3282, 3233, 3279, 3241, 3263, 3245, 3254, 3313, 3242, 3252, 3236, 3288, 3252, 3230, 3241, 3260, 3283, 3235, 3237, 3223, 3243, 3231, 3250, 3249, 3246, 3245, 3227, 3261, 3231, 3265, 3260, 3262, 3240, 3280, 3274, 3242, 3242, 3257, 3268, 3249, 3293, 3284, 3299, 3294, 3299, 3286, 3272, 3277, 3242, 3312, 3232, 3178, 3184, 3209, 3243, 3258, 3365, 3422, 3399, 3357, 3342, 3379, 3363, 3347, 3330, 3301, 3303, 3317, 3314, 3311, 3259, 3354, 3319, 3266, 3392, 3326, 3535, 3389, 3523, 3369, 3280, 3301, 3357, 3261, 3344, 3377, 3400, 3421, 3391, 3467, 3384, 3234, 3205, 3318, 3323, 3411, 3318, 3320, 3308, 3370, 3305, 3288, 3252, 3285],
      "WindowCenter": [699.0, 696.0, 695.0, 696.0, 695.0, 695.0, 695.0, 696.0, 696.0, 696.0, 696.0, 695.0, 696.0, 696.0, 696.0, 697.0, 696.0, 695.0, 695.0, 695.0, 696.0, 696.0, 691.0, 692.0, 692.0, 692.0, 691.0, 689.0, 687.0, 687.0, 687.0, 688.0, 690.0, 690.0, 691.0, 692.0, 693.0, 692.0, 693.0, 692.0, 692.0, 692.0, 693.0, 693.0, 692.0, 691.0, 691.0, 692.0, 692.0, 691.0, 692.0, 692.0, 691.0, 692.0, 692.0, 692.0, 691.0, 690.0, 692.0, 691.0, 692.0, 691.0, 691.0, 691.0, 691.0, 691.0, 690.0, 691.0, 691.0, 690.0, 690.0, 690.0, 691.0, 691.0, 690.0, 690.0, 690.0, 691.0, 691.0, 691.0, 690.0, 690.0, 690.0, 690.0, 690.0, 689.0, 689.0, 689.0, 688.0, 688.0, 688.0, 689.0, 690.0, 689.0, 690.0, 689.0, 690.0, 690.0, 690.0, 690.0, 690.0, 690.0, 689.0, 689.0, 689.0, 688.0, 689.0, 688.0, 689.0, 689.0, 690.0, 690.0, 689.0, 688.0, 688.0, 689.0, 689.0, 689.0, 689.0, 689.0, 688.0, 688.0, 689.0, 689.0, 689.0, 689.0, 689.0, 689.0, 688.0, 687.0, 687.0, 688.0, 687.0, 687.0, 687.0, 688.0, 687.0, 688.0, 687.0, 687.0, 687.0, 688.0, 688.0, 687.0, 687.0, 686.0, 687.0, 687.0, 686.0, 686.0, 687.0, 687.0, 687.0, 687.0, 687.0, 687.0, 687.0, 687.0, 686.0, 687.0, 687.0, 687.0, 686.0, 685.0, 686.0, 687.0, 682.0, 695.0, 693.0, 692.0, 692.0, 692.0, 692.0, 690.0, 690.0, 689.0, 690.0, 692.0, 692.0, 690.0, 690.0, 690.0, 690.0, 689.0, 689.0, 688.0, 689.0, 688.0, 689.0, 689.0, 690.0, 691.0, 689.0, 687.0, 688.0, 690.0, 690.0, 690.0, 688.0, 688.0, 687.0, 687.0, 687.0, 689.0, 688.0, 687.0, 687.0, 688.0, 688.0, 688.0, 687.0, 686.0, 686.0, 686.0],
      "WindowWidth": [1525.0, 1517.0, 1514.0, 1517.0, 1514.0, 1514.0, 1514.0, 1515.0, 1515.0, 1516.0, 1516.0, 1514.0, 1515.0, 1515.0, 1516.0, 1517.0, 1515.0, 1512.0, 1512.0, 1513.0, 1517.0, 1517.0, 1504.0, 1504.0, 1506.0, 1504.0, 1502.0, 1496.0, 1491.0, 1490.0, 1490.0, 1494.0, 1498.0, 1500.0, 1501.0, 1506.0, 1506.0, 1506.0, 1506.0, 1505.0, 1504.0, 1506.0, 1507.0, 1507.0, 1505.0, 1503.0, 1501.0, 1503.0, 1504.0, 1503.0, 1504.0, 1504.0, 1503.0, 1505.0, 1504.0, 1504.0, 1503.0, 1501.0, 1504.0, 1502.0, 1504.0, 1503.0, 1503.0, 1501.0, 1503.0, 1503.0, 1500.0, 1504.0, 1503.0, 1500.0, 1499.0, 1501.0, 1502.0, 1503.0, 1501.0, 1500.0, 1500.0, 1502.0, 1502.0, 1503.0, 1501.0, 1500.0, 1500.0, 1500.0, 1501.0, 1498.0, 1498.0, 1496.0, 1496.0, 1495.0, 1496.0, 1498.0, 1499.0, 1498.0, 1500.0, 1499.0, 1500.0, 1502.0, 1501.0, 1500.0, 1500.0, 1500.0, 1499.0, 1498.0, 1496.0, 1496.0, 1496.0, 1496.0, 1497.0, 1498.0, 1501.0, 1499.0, 1498.0, 1496.0, 1496.0, 1497.0, 1498.0, 1499.0, 1496.0, 1496.0, 1494.0, 1496.0, 1496.0, 1497.0, 1498.0, 1498.0, 1499.0, 1497.0, 1495.0, 1491.0, 1493.0, 1494.0, 1493.0, 1492.0, 1493.0, 1494.0, 1493.0, 1494.0, 1493.0, 1492.0, 1493.0, 1494.0, 1494.0, 1492.0, 1491.0, 1490.0, 1493.0, 1491.0, 1490.0, 1490.0, 1491.0, 1492.0, 1493.0, 1493.0, 1493.0, 1493.0, 1493.0, 1492.0, 1491.0, 1492.0, 1492.0, 1491.0, 1489.0, 1488.0, 1489.0, 1492.0, 1481.0, 1513.0, 1507.0, 1506.0, 1506.0, 1505.0, 1505.0, 1502.0, 1499.0, 1498.0, 1500.0, 1505.0, 1506.0, 1500.0, 1500.0, 1500.0, 1500.0, 1498.0, 1497.0, 1495.0, 1497.0, 1495.0, 1497.0, 1499.0, 1501.0, 1503.0, 1497.0, 1493.0, 1496.0, 1499.0, 1500.0, 1499.0, 1495.0, 1494.0, 1493.0, 1492.0, 1494.0, 1496.0, 1495.0, 1493.0, 1492.0, 1494.0, 1496.0, 1496.0, 1493.0, 1491.0, 1491.0, 1491.0]
    },
    "slices": {}
  }
}