{
  "AcquisitionMatrixPE": 72,
  "AcquisitionNumber": 1,
  "AcquisitionTime": "16:54:8.932500",
  "BandwidthPerPixelPhaseEncode": 17.943,
  "BaseResolution": 96,
  "BodyPartExamined": "BRAIN",
  "CoilCombinationMethod": "Sum of Squares",
  "ConsistencyInfo": "N4_VE11C_LATEST_20160120",
  "ConversionSoftware": "dcm2niix",
  "ConversionSoftwareVersion": "v1.0.20211006",
  "DerivedVendorReportedEchoSpacing": 0.000552897,
  "DeviceSerialNumber": "166011",
  "EchoTime": 0.03,
  "EchoTrainLength": 58,
  "EffectiveEchoSpacing": 0.000580542,
  "FlipAngle": 62,
  "ImageOrientationPatientDICOM": [0.99765, -0.00897437, -0.0679262, -0.00365656, 0.982998, -0.183578],
  "ImageType": [
    "ORIGINAL",
    "PRIMARY",
    "M",
    "ND",
    "MOSAIC"
],
  "ImagingFrequency": 123.259,
  "InPlanePhaseEncodingDirectionDICOM": "COL",
  "InstitutionAddress": "West 130th Street 610,NY,NYC,US,10025",
  "InstitutionName": "MBBI",
  "MRAcquisitionType": "2D",
  "MagneticFieldStrength": 3,
  "Manufacturer": "Siemens",
  "ManufacturersModelName": "Prisma",
  "Modality": "MR",
  "MultibandAccelerationFactor": 3,
  "PartialFourier": 0.75,
  "PatientPosition": "HFS",
  "PercentPhaseFOV": 100,
  "PercentSampling": 75,
  "PhaseEncodingDirection": "j-",
  "PhaseEncodingSteps": 58,
  "PhaseOversampling": 0.05,
  "PhaseResolution": 0.75,
  "PixelBandwidth": 2265,
  "ProcedureStepDescription": "White^Word_recognition",
  "ProtocolName": "func_vwfate_run7",
  "PulseSequenceDetails": "%SiemensSeq%\\ep2d_bold",
  "ReceiveCoilActiveElements": "HC1-7",
  "ReceiveCoilName": "HeadNeck_64",
  "ReconMatrixPE": 96,
  "RefLinesPE": 40,
  "RepetitionTime": 1.5,
  "SAR": 0.0488657,
  "ScanOptions": "PFP\\FS",
  "ScanningSequence": "EP",
  "SequenceName": "*epfid2d1_72",
  "SequenceVariant": "SK\\OSP",
  "SeriesDescription": "func_vwfate_run7",
  "SeriesNumber": 8,
  "ShimSetting": [-1167, -1325, 670, 657, -88, -35, -14, 47],
  "SliceThickness": 2,
  "SliceTiming": [1.0775, 0, 0.74, 0.0675, 0.8075, 0.135, 0.875, 0.2025, 0.9425, 0.27, 1.01, 0.405, 1.145, 0.4725, 1.2125, 0.54, 1.28, 0.6075, 1.3475, 0.6725, 1.4125, 0.3375, 1.0775, 0, 0.74, 0.0675, 0.8075, 0.135, 0.875, 0.2025, 0.9425, 0.27, 1.01, 0.405, 1.145, 0.4725, 1.2125, 0.54, 1.28, 0.6075, 1.3475, 0.6725, 1.4125, 0.3375, 1.0775, 0, 0.74, 0.0675, 0.8075, 0.135, 0.875, 0.2025, 0.9425, 0.27, 1.01, 0.405, 1.145, 0.4725, 1.2125, 0.54, 1.28, 0.6075, 1.3475, 0.6725, 1.4125, 0.3375],
  "SoftwareVersions": "syngo MR E11",
  "SpacingBetweenSlices": 2,
  "StationName": "AWP166011",
  "TaskName": "vwfate",
  "TotalReadoutTime": 0.0551515,
  "TxRefAmp": 222.783,
  "dcmmeta_affine": [
    [-1.9952999353408813, -0.007313124369829893, -0.13683761656284332, 98.66490936279297],
    [0.017948731780052185, 1.9659966230392456, -0.36679011583328247, -58.384708404541016],
    [-0.13585233688354492, 0.36715617775917053, 1.9613109827041626, -71.38602447509766],
    [0.0, 0.0, 0.0, 1.0]
],
  "dcmmeta_reorient_transform": [
    [0.0, -1.0, 0.0, 95.0],
    [1.0, 0.0, 0.0, 0.0],
    [0.0, 0.0, 1.0, 0.0],
    [0.0, 0.0, 0.0, 1.0]
],
  "dcmmeta_shape": [96, 96, 66, 164],
  "dcmmeta_slice_dim": 2,
  "dcmmeta_version": 0.6,
  "global": {
    "const": {
      "AcquisitionMatrix": [96, 0, 0, 72],
      "AngioFlag": "N",
      "BitsAllocated": 16,
      "BitsStored": 12,
      "BodyPartExamined": "BRAIN",
      "Columns": 864,
      "EchoNumbers": 1,
      "EchoTime": 30.0,
      "EchoTrainLength": 58,
      "FlipAngle": 62.0,
      "HighBit": 11,
      "ImageOrientationPatient": [0.99764998697909, -0.0089743662924, -0.067926167493, -0.0036565620903, 0.98299832853318, -0.1835780914343],
      "ImagePositionPatient": [-861.35711280322, -876.4353769295, 156.64908690919],
      "ImageType": [
        "ORIGINAL",
        "PRIMARY",
        "M",
        "ND",
        "MOSAIC"
],
      "ImagedNucleus": "1H",
      "ImagingFrequency": 123.259475,
      "InPlanePhaseEncodingDirection": "COL",
      "MRAcquisitionType": "2D",
      "MagneticFieldStrength": 3.0,
      "Manufacturer": "SIEMENS",
      "ManufacturerModelName": "Prisma",
      "Modality": "MR",
      "NumberOfAverages": 1.0,
      "NumberOfPhaseEncodingSteps": 58,
      "PercentPhaseFieldOfView": 100.0,
      "PercentSampling": 75.0,
      "PerformedProcedureStepStartTime": "163247.174000",
      "PhotometricInterpretation": "MONOCHROME2",
      "PixelBandwidth": 2265.0,
      "PixelRepresentation": 0,
      "PixelSpacing": [2.0, 2.0],
      "ProtocolName": "func_vwfate_run7",
      "RepetitionTime": 1500.0,
      "Rows": 864,
      "SAR": 0.04886570144596,
      "SamplesPerPixel": 1,
      "ScanOptions": [
        "PFP",
        "FS"
],
      "ScanningSequence": "EP",
      "SequenceName": "*epfid2d1_72",
      "SequenceVariant": [
        "SK",
        "OSP"
],
      "SeriesDescription": "func_vwfate_run7",
      "SeriesNumber": 8,
      "SeriesTime": "165457.493000",
      "SliceLocation": -66.048159542873,
      "SliceThickness": 2.0,
      "SmallestImagePixelValue": 0,
      "SoftwareVersions": "syngo MR E11",
      "SpacingBetweenSlices": 2.0000000189202,
      "SpecificCharacterSet": "ISO_IR 100",
      "StudyID": "2",
      "StudyTime": "163247.124000",
      "TransmitCoilName": "Body",
      "VariableFlipAngleFlag": "N",
      "WindowCenterWidthExplanation": "Algo1",
      "dBdt": 0.0},
    "slices": {}
  },
  "time": {
    "samples": {
      "AcquisitionNumber": [1, 2, 3, 4, 5, 6, 7, 8, 9, 10, 11, 12, 13, 14, 15, 16, 17, 18, 19, 20, 21, 22, 23, 24, 25, 26, 27, 28, 29, 30, 31, 32, 33, 34, 35, 36, 37, 38, 39, 40, 41, 42, 43, 44, 45, 46, 47, 48, 49, 50, 51, 52, 53, 54, 55, 56, 57, 58, 59, 60, 61, 62, 63, 64, 65, 66, 67, 68, 69, 70, 71, 72, 73, 74, 75, 76, 77, 78, 79, 80, 81, 82, 83, 84, 85, 86, 87, 88, 89, 90, 91, 92, 93, 94, 95, 96, 97, 98, 99, 100, 101, 102, 103, 104, 105, 106, 107, 108, 109, 110, 111, 112, 113, 114, 115, 116, 117, 118, 119, 120, 121, 122, 123, 124, 125, 126, 127, 128, 129, 130, 131, 132, 133, 134, 135, 136, 137, 138, 139, 140, 141, 142, 143, 144, 145, 146, 147, 148, 149, 150, 151, 152, 153, 154, 155, 156, 157, 158, 159, 160, 161, 162, 163, 164],
      "AcquisitionTime": ["165408.932500", "165410.432500", "165411.932500", "165413.432500", "165414.932500", "165416.432500", "165417.932500", "165419.432500", "165420.932500", "165422.432500", "165423.932500", "165425.432500", "165426.932500", "165428.432500", "165429.932500", "165431.432500", "165432.932500", "165434.432500", "165435.932500", "165437.432500", "165438.932500", "165440.432500", "165441.932500", "165443.432500", "165444.932500", "165446.432500", "165447.932500", "165449.432500", "165450.932500", "165452.432500", "165453.932500", "165455.432500", "165456.932500", "165458.432500", "165459.932500", "165501.432500", "165502.932500", "165504.432500", "165505.932500", "165507.432500", "165508.932500", "165510.432500", "165511.932500", "165513.432500", "165514.932500", "165516.432500", "165517.932500", "165519.432500", "165520.932500", "165522.432500", "165523.932500", "165525.432500", "165526.932500", "165528.432500", "165529.932500", "165531.432500", "165532.932500", "165534.432500", "165535.932500", "165537.432500", "165538.932500", "165540.432500", "165541.932500", "165543.432500", "165544.932500", "165546.432500", "165547.932500", "165549.432500", "165550.932500", "165552.432500", "165553.932500", "165555.432500", "165556.932500", "165558.432500", "165559.932500", "165601.432500", "165602.932500", "165604.432500", "165605.932500", "165607.432500", "165608.932500", "165610.432500", "165611.932500", "165613.432500", "165614.932500", "165616.432500", "165617.932500", "165619.432500", "165620.932500", "165622.432500", "165623.932500", "165625.432500", "165626.932500", "165628.432500", "165629.932500", "165631.432500", "165632.932500", "165634.432500", "165635.932500", "165637.432500", "165638.932500", "165640.432500", "165641.932500", "165643.432500", "165644.932500", "165646.432500", "165647.932500", "165649.432500", "165650.932500", "165652.432500", "165653.932500", "165655.432500", "165656.932500", "165658.432500", "165659.932500", "165701.432500", "165702.932500", "165704.432500", "165705.932500", "165707.432500", "165708.932500", "165710.432500", "165711.932500", "165713.432500", "165714.932500", "165716.432500", "165717.932500", "165719.432500", "165720.932500", "165722.432500", "165723.932500", "165725.432500", "165726.932500", "165728.432500", "165729.932500", "165731.432500", "165732.932500", "165734.432500", "165735.932500", "165737.432500", "165738.932500", "165740.432500", "165741.932500", "165743.432500", "165744.932500", "165746.432500", "165747.932500", "165749.432500", "165750.932500", "165752.432500", "165753.932500", "165755.432500", "165756.932500", "165758.432500", "165759.932500", "165801.432500", "165802.932500", "165804.432500", "165805.932500", "165807.432500", "165808.932500", "165810.432500", "165811.932500", "165813.432500"],
      "ContentTime": ["165457.497000", "165457.501000", "165457.504000", "165457.507000", "165457.510000", "165457.513000", "165457.516000", "165457.519000", "165457.522000", "165457.525000", "165457.528000", "165457.531000", "165457.534000", "165457.537000", "165457.540000", "165457.543000", "165457.546000", "165457.549000", "165457.552000", "165457.565000", "165457.568000", "165457.571000", "165457.574000", "165457.577000", "165457.580000", "165457.583000", "165457.586000", "165457.589000", "165457.593000", "165457.596000", "165457.598000", "165457.601000", "165537.492000", "165537.495000", "165537.498000", "165537.501000", "165537.504000", "165537.507000", "165537.510000", "165537.513000", "165537.516000", "165537.525000", "165537.528000", "165537.531000", "165537.534000", "165537.537000", "165537.540000", "165537.543000", "165537.546000", "165537.549000", "165537.555000", "165537.557000", "165537.560000", "165537.563000", "165537.566000", "165537.569000", "165537.572000", "165537.575000", "165537.578000", "165617.491000", "165617.494000", "165617.497000", "165617.500000", "165617.503000", "165617.506000", "165617.509000", "165617.512000", "165617.515000", "165617.518000", "165617.521000", "165617.524000", "165617.527000", "165617.530000", "165617.533000", "165617.536000", "165617.539000", "165617.542000", "165617.545000", "165617.548000", "165617.551000", "165617.554000", "165617.557000", "165617.559000", "165617.563000", "165617.565000", "165617.568000", "165657.492000", "165657.495000", "165657.498000", "165657.501000", "165657.504000", "165657.507000", "165657.510000", "165657.513000", "165657.516000", "165657.519000", "165657.522000", "165657.525000", "165657.528000", "165657.531000", "165657.534000", "165657.537000", "165657.540000", "165657.543000", "165657.546000", "165657.549000", "165657.552000", "165657.555000", "165657.558000", "165657.561000", "165657.564000", "165657.567000", "165737.492000", "165737.495000", "165737.498000", "165737.501000", "165737.504000", "165737.507000", "165737.519000", "165737.522000", "165737.525000", "165737.528000", "165737.531000", "165737.534000", "165737.537000", "165737.540000", "165737.543000", "165737.546000", "165737.549000", "165737.552000", "165737.555000", "165737.558000", "165737.561000", "165737.587000", "165737.590000", "165737.593000", "165737.596000", "165737.599000", "165737.602000", "165814.485000", "165814.489000", "165814.492000", "165814.495000", "165814.499000", "165814.502000", "165814.505000", "165814.508000", "165814.511000", "165814.514000", "165814.517000", "165814.520000", "165814.523000", "165814.526000", "165814.529000", "165814.532000", "165814.536000", "165814.539000", "165814.542000", "165814.545000", "165814.548000", "165814.551000", "165814.555000", "165814.558000", "165814.561000"],
      "InstanceCreationTime": ["165457.497000", "165457.501000", "165457.504000", "165457.507000", "165457.510000", "165457.513000", "165457.516000", "165457.519000", "165457.522000", "165457.525000", "165457.528000", "165457.531000", "165457.534000", "165457.537000", "165457.540000", "165457.543000", "165457.546000", "165457.549000", "165457.552000", "165457.565000", "165457.568000", "165457.571000", "165457.574000", "165457.577000", "165457.580000", "165457.583000", "165457.586000", "165457.589000", "165457.593000", "165457.596000", "165457.598000", "165457.601000", "165537.492000", "165537.495000", "165537.498000", "165537.501000", "165537.504000", "165537.507000", "165537.510000", "165537.513000", "165537.516000", "165537.525000", "165537.528000", "165537.531000", "165537.534000", "165537.537000", "165537.540000", "165537.543000", "165537.546000", "165537.549000", "165537.555000", "165537.557000", "165537.560000", "165537.563000", "165537.566000", "165537.569000", "165537.572000", "165537.575000", "165537.578000", "165617.491000", "165617.494000", "165617.497000", "165617.500000", "165617.503000", "165617.506000", "165617.509000", "165617.512000", "165617.515000", "165617.518000", "165617.521000", "165617.524000", "165617.527000", "165617.530000", "165617.533000", "165617.536000", "165617.539000", "165617.542000", "165617.545000", "165617.548000", "165617.551000", "165617.554000", "165617.557000", "165617.559000", "165617.563000", "165617.565000", "165617.568000", "165657.492000", "165657.495000", "165657.498000", "165657.501000", "165657.504000", "165657.507000", "165657.510000", "165657.513000", "165657.516000", "165657.519000", "165657.522000", "165657.525000", "165657.528000", "165657.531000", "165657.534000", "165657.537000", "165657.540000", "165657.543000", "165657.546000", "165657.549000", "165657.552000", "165657.555000", "165657.558000", "165657.561000", "165657.564000", "165657.567000", "165737.492000", "165737.495000", "165737.498000", "165737.501000", "165737.504000", "165737.507000", "165737.519000", "165737.522000", "165737.525000", "165737.528000", "165737.531000", "165737.534000", "165737.537000", "165737.540000", "165737.543000", "165737.546000", "165737.549000", "165737.552000", "165737.555000", "165737.558000", "165737.561000", "165737.587000", "165737.590000", "165737.593000", "165737.596000", "165737.599000", "165737.602000", "165814.485000", "165814.489000", "165814.492000", "165814.495000", "165814.499000", "165814.502000", "165814.505000", "165814.508000", "165814.511000", "165814.514000", "165814.517000", "165814.520000", "165814.523000", "165814.526000", "165814.529000", "165814.532000", "165814.536000", "165814.539000", "165814.542000", "165814.545000", "165814.548000", "165814.551000", "165814.555000", "165814.558000", "165814.561000"],
      "InstanceNumber": [1, 2, 3, 4, 5, 6, 7, 8, 9, 10, 11, 12, 13, 14, 15, 16, 17, 18, 19, 20, 21, 22, 23, 24, 25, 26, 27, 28, 29, 30, 31, 32, 33, 34, 35, 36, 37, 38, 39, 40, 41, 42, 43, 44, 45, 46, 47, 48, 49, 50, 51, 52, 53, 54, 55, 56, 57, 58, 59, 60, 61, 62, 63, 64, 65, 66, 67, 68, 69, 70, 71, 72, 73, 74, 75, 76, 77, 78, 79, 80, 81, 82, 83, 84, 85, 86, 87, 88, 89, 90, 91, 92, 93, 94, 95, 96, 97, 98, 99, 100, 101, 102, 103, 104, 105, 106, 107, 108, 109, 110, 111, 112, 113, 114, 115, 116, 117, 118, 119, 120, 121, 122, 123, 124, 125, 126, 127, 128, 129, 130, 131, 132, 133, 134, 135, 136, 137, 138, 139, 140, 141, 142, 143, 144, 145, 146, 147, 148, 149, 150, 151, 152, 153, 154, 155, 156, 157, 158, 159, 160, 161, 162, 163, 164],
      "LargestImagePixelValue": [3496, 3437, 3433, 3325, 3346, 3280, 3312, 3261, 3338, 3292, 3388, 3276, 3317, 3304, 3311, 3265, 3460, 3335, 3289, 3267, 3389, 3360, 3422, 3340, 4038, 3721, 3592, 3526, 3562, 3498, 3564, 3530, 3549, 3501, 3512, 3526, 3519, 3552, 3546, 3543, 3507, 3509, 3519, 3502, 3510, 3513, 3421, 3430, 3498, 3524, 3496, 3481, 3483, 3499, 3514, 3494, 3554, 3506, 3482, 3498, 3481, 3525, 3493, 3501, 3534, 3499, 3495, 3496, 3472, 3483, 3486, 3541, 3499, 3599, 3522, 3516, 3502, 3519, 3480, 3490, 3505, 3546, 3536, 3469, 3588, 3523, 3510, 3495, 3516, 3502, 3546, 3400, 3480, 3464, 3447, 3491, 3462, 3382, 3420, 3301, 3642, 3510, 3366, 3414, 3429, 3508, 3451, 3478, 3546, 3467, 3459, 3485, 3483, 3470, 3468, 3467, 3446, 3456, 3250, 3567, 3434, 3377, 3410, 3362, 3396, 3387, 3367, 3403, 3380, 3452, 3363, 3448, 3436, 3422, 3441, 3453, 3401, 3408, 3418, 3447, 3445, 3389, 3451, 3405, 3429, 3402, 3425, 3387, 3417, 3424, 3432, 3435, 3407, 3470, 3410, 3397, 3392, 3432, 3425, 3419, 3496, 3451, 3466, 3442],
      "WindowCenter": [695.0, 694.0, 695.0, 694.0, 695.0, 694.0, 695.0, 694.0, 694.0, 694.0, 695.0, 694.0, 695.0, 695.0, 694.0, 694.0, 694.0, 694.0, 694.0, 693.0, 694.0, 695.0, 696.0, 690.0, 698.0, 697.0, 695.0, 694.0, 695.0, 696.0, 697.0, 696.0, 696.0, 693.0, 694.0, 696.0, 696.0, 695.0, 695.0, 694.0, 695.0, 697.0, 698.0, 698.0, 695.0, 695.0, 695.0, 697.0, 697.0, 697.0, 695.0, 695.0, 695.0, 695.0, 696.0, 696.0, 694.0, 695.0, 695.0, 696.0, 696.0, 696.0, 696.0, 697.0, 697.0, 697.0, 696.0, 696.0, 695.0, 694.0, 693.0, 695.0, 695.0, 694.0, 694.0, 696.0, 697.0, 697.0, 696.0, 696.0, 697.0, 696.0, 696.0, 697.0, 698.0, 696.0, 695.0, 693.0, 694.0, 696.0, 697.0, 695.0, 694.0, 695.0, 697.0, 698.0, 698.0, 696.0, 696.0, 695.0, 696.0, 696.0, 694.0, 696.0, 696.0, 695.0, 694.0, 695.0, 695.0, 696.0, 697.0, 696.0, 695.0, 695.0, 695.0, 696.0, 695.0, 695.0, 695.0, 695.0, 695.0, 693.0, 692.0, 692.0, 693.0, 694.0, 693.0, 694.0, 695.0, 695.0, 695.0, 694.0, 693.0, 694.0, 695.0, 695.0, 694.0, 693.0, 694.0, 694.0, 693.0, 693.0, 693.0, 693.0, 693.0, 693.0, 693.0, 693.0, 693.0, 693.0, 693.0, 693.0, 693.0, 692.0, 692.0, 692.0, 692.0, 694.0, 694.0, 694.0, 694.0, 693.0, 693.0, 693.0],
      "WindowWidth": [1516.0, 1513.0, 1514.0, 1513.0, 1514.0, 1514.0, 1515.0, 1513.0, 1512.0, 1513.0, 1514.0, 1513.0, 1514.0, 1514.0, 1513.0, 1513.0, 1513.0, 1513.0, 1513.0, 1511.0, 1513.0, 1515.0, 1517.0, 1501.0, 1523.0, 1519.0, 1516.0, 1511.0, 1514.0, 1518.0, 1521.0, 1519.0, 1517.0, 1510.0, 1512.0, 1517.0, 1519.0, 1517.0, 1516.0, 1511.0, 1515.0, 1521.0, 1524.0, 1523.0, 1516.0, 1515.0, 1515.0, 1521.0, 1521.0, 1520.0, 1516.0, 1516.0, 1515.0, 1515.0, 1517.0, 1519.0, 1512.0, 1514.0, 1517.0, 1517.0, 1519.0, 1518.0, 1519.0, 1521.0, 1521.0, 1521.0, 1518.0, 1517.0, 1517.0, 1512.0, 1511.0, 1515.0, 1515.0, 1511.0, 1514.0, 1519.0, 1521.0, 1520.0, 1517.0, 1518.0, 1520.0, 1518.0, 1518.0, 1520.0, 1522.0, 1519.0, 1514.0, 1510.0, 1513.0, 1517.0, 1520.0, 1516.0, 1513.0, 1516.0, 1519.0, 1523.0, 1523.0, 1519.0, 1519.0, 1515.0, 1518.0, 1517.0, 1511.0, 1520.0, 1517.0, 1516.0, 1514.0, 1514.0, 1514.0, 1517.0, 1520.0, 1519.0, 1516.0, 1515.0, 1515.0, 1517.0, 1516.0, 1516.0, 1516.0, 1516.0, 1514.0, 1511.0, 1506.0, 1509.0, 1511.0, 1513.0, 1511.0, 1513.0, 1515.0, 1515.0, 1515.0, 1513.0, 1509.0, 1512.0, 1514.0, 1516.0, 1512.0, 1509.0, 1512.0, 1512.0, 1509.0, 1509.0, 1509.0, 1510.0, 1510.0, 1508.0, 1510.0, 1511.0, 1509.0, 1511.0, 1510.0, 1510.0, 1509.0, 1506.0, 1507.0, 1507.0, 1507.0, 1512.0, 1513.0, 1513.0, 1511.0, 1510.0, 1509.0, 1510.0]
    },
    "slices": {}
  }
}