{
  "AcquisitionMatrixPE": 72,
  "AcquisitionNumber": 1,
  "AcquisitionTime": "16:59:48.667500",
  "BandwidthPerPixelPhaseEncode": 17.943,
  "BaseResolution": 96,
  "BodyPartExamined": "BRAIN",
  "CoilCombinationMethod": "Sum of Squares",
  "ConsistencyInfo": "N4_VE11C_LATEST_20160120",
  "ConversionSoftware": "dcm2niix",
  "ConversionSoftwareVersion": "v1.0.20211006",
  "DerivedVendorReportedEchoSpacing": 0.000552897,
  "DeviceSerialNumber": "166011",
  "EchoTime": 0.03,
  "EchoTrainLength": 58,
  "EffectiveEchoSpacing": 0.000580542,
  "FlipAngle": 62,
  "ImageOrientationPatientDICOM": [0.99765, -0.00897437, -0.0679262, -0.00365656, 0.982998, -0.183578],
  "ImageType": [
    "ORIGINAL",
    "PRIMARY",
    "M",
    "ND",
    "MOSAIC"
],
  "ImagingFrequency": 123.259,
  "InPlanePhaseEncodingDirectionDICOM": "COL",
  "InstitutionAddress": "West 130th Street 610,NY,NYC,US,10025",
  "InstitutionName": "MBBI",
  "MRAcquisitionType": "2D",
  "MagneticFieldStrength": 3,
  "Manufacturer": "Siemens",
  "ManufacturersModelName": "Prisma",
  "Modality": "MR",
  "MultibandAccelerationFactor": 3,
  "PartialFourier": 0.75,
  "PatientPosition": "HFS",
  "PercentPhaseFOV": 100,
  "PercentSampling": 75,
  "PhaseEncodingDirection": "j-",
  "PhaseEncodingSteps": 58,
  "PhaseOversampling": 0.05,
  "PhaseResolution": 0.75,
  "PixelBandwidth": 2265,
  "ProcedureStepDescription": "White^Word_recognition",
  "ProtocolName": "func_vwfate_run8",
  "PulseSequenceDetails": "%SiemensSeq%\\ep2d_bold",
  "ReceiveCoilActiveElements": "HC1-7",
  "ReceiveCoilName": "HeadNeck_64",
  "ReconMatrixPE": 96,
  "RefLinesPE": 40,
  "RepetitionTime": 1.5,
  "SAR": 0.0488657,
  "ScanOptions": "PFP\\FS",
  "ScanningSequence": "EP",
  "SequenceName": "*epfid2d1_72",
  "SequenceVariant": "SK\\OSP",
  "SeriesDescription": "func_vwfate_run8",
  "SeriesNumber": 9,
  "ShimSetting": [-1167, -1325, 670, 657, -88, -35, -14, 47],
  "SliceThickness": 2,
  "SliceTiming": [1.075, 0, 0.74, 0.065, 0.805, 0.1325, 0.8725, 0.2, 0.94, 0.2675, 1.0075, 0.4025, 1.1425, 0.47, 1.21, 0.5375, 1.2775, 0.605, 1.345, 0.6725, 1.4125, 0.335, 1.075, 0, 0.74, 0.065, 0.805, 0.1325, 0.8725, 0.2, 0.94, 0.2675, 1.0075, 0.4025, 1.1425, 0.47, 1.21, 0.5375, 1.2775, 0.605, 1.345, 0.6725, 1.4125, 0.335, 1.075, 0, 0.74, 0.065, 0.805, 0.1325, 0.8725, 0.2, 0.94, 0.2675, 1.0075, 0.4025, 1.1425, 0.47, 1.21, 0.5375, 1.2775, 0.605, 1.345, 0.6725, 1.4125, 0.335],
  "SoftwareVersions": "syngo MR E11",
  "SpacingBetweenSlices": 2,
  "StationName": "AWP166011",
  "TaskName": "vwfate",
  "TotalReadoutTime": 0.0551515,
  "TxRefAmp": 222.783,
  "dcmmeta_affine": [
    [-1.9952999353408813, -0.007313124369829893, -0.13683761656284332, 98.66490936279297],
    [0.017948731780052185, 1.9659966230392456, -0.36679011583328247, -58.384708404541016],
    [-0.13585233688354492, 0.36715617775917053, 1.9613109827041626, -71.38602447509766],
    [0.0, 0.0, 0.0, 1.0]
],
  "dcmmeta_reorient_transform": [
    [0.0, -1.0, 0.0, 95.0],
    [1.0, 0.0, 0.0, 0.0],
    [0.0, 0.0, 1.0, 0.0],
    [0.0, 0.0, 0.0, 1.0]
],
  "dcmmeta_shape": [96, 96, 66, 164],
  "dcmmeta_slice_dim": 2,
  "dcmmeta_version": 0.6,
  "global": {
    "const": {
      "AcquisitionMatrix": [96, 0, 0, 72],
      "AngioFlag": "N",
      "BitsAllocated": 16,
      "BitsStored": 12,
      "BodyPartExamined": "BRAIN",
      "Columns": 864,
      "EchoNumbers": 1,
      "EchoTime": 30.0,
      "EchoTrainLength": 58,
      "FlipAngle": 62.0,
      "HighBit": 11,
      "ImageOrientationPatient": [0.99764998697909, -0.0089743662924, -0.067926167493, -0.0036565620903, 0.98299832853318, -0.1835780914343],
      "ImagePositionPatient": [-861.35711280322, -876.4353769295, 156.64908690919],
      "ImageType": [
        "ORIGINAL",
        "PRIMARY",
        "M",
        "ND",
        "MOSAIC"
],
      "ImagedNucleus": "1H",
      "ImagingFrequency": 123.259477,
      "InPlanePhaseEncodingDirection": "COL",
      "MRAcquisitionType": "2D",
      "MagneticFieldStrength": 3.0,
      "Manufacturer": "SIEMENS",
      "ManufacturerModelName": "Prisma",
      "Modality": "MR",
      "NumberOfAverages": 1.0,
      "NumberOfPhaseEncodingSteps": 58,
      "PercentPhaseFieldOfView": 100.0,
      "PercentSampling": 75.0,
      "PerformedProcedureStepStartTime": "163247.174000",
      "PhotometricInterpretation": "MONOCHROME2",
      "PixelBandwidth": 2265.0,
      "PixelRepresentation": 0,
      "PixelSpacing": [2.0, 2.0],
      "ProtocolName": "func_vwfate_run8",
      "RepetitionTime": 1500.0,
      "Rows": 864,
      "SAR": 0.04886570144596,
      "SamplesPerPixel": 1,
      "ScanOptions": [
        "PFP",
        "FS"
],
      "ScanningSequence": "EP",
      "SequenceName": "*epfid2d1_72",
      "SequenceVariant": [
        "SK",
        "OSP"
],
      "SeriesDescription": "func_vwfate_run8",
      "SeriesNumber": 9,
      "SeriesTime": "170003.025000",
      "SliceLocation": -66.048159542873,
      "SliceThickness": 2.0,
      "SmallestImagePixelValue": 0,
      "SoftwareVersions": "syngo MR E11",
      "SpacingBetweenSlices": 2.0000000189202,
      "SpecificCharacterSet": "ISO_IR 100",
      "StudyID": "2",
      "StudyTime": "163247.124000",
      "TransmitCoilName": "Body",
      "VariableFlipAngleFlag": "N",
      "WindowCenterWidthExplanation": "Algo1",
      "dBdt": 0.0},
    "slices": {}
  },
  "time": {
    "samples": {
      "AcquisitionNumber": [1, 2, 3, 4, 5, 6, 7, 8, 9, 10, 11, 12, 13, 14, 15, 16, 17, 18, 19, 20, 21, 22, 23, 24, 25, 26, 27, 28, 29, 30, 31, 32, 33, 34, 35, 36, 37, 38, 39, 40, 41, 42, 43, 44, 45, 46, 47, 48, 49, 50, 51, 52, 53, 54, 55, 56, 57, 58, 59, 60, 61, 62, 63, 64, 65, 66, 67, 68, 69, 70, 71, 72, 73, 74, 75, 76, 77, 78, 79, 80, 81, 82, 83, 84, 85, 86, 87, 88, 89, 90, 91, 92, 93, 94, 95, 96, 97, 98, 99, 100, 101, 102, 103, 104, 105, 106, 107, 108, 109, 110, 111, 112, 113, 114, 115, 116, 117, 118, 119, 120, 121, 122, 123, 124, 125, 126, 127, 128, 129, 130, 131, 132, 133, 134, 135, 136, 137, 138, 139, 140, 141, 142, 143, 144, 145, 146, 147, 148, 149, 150, 151, 152, 153, 154, 155, 156, 157, 158, 159, 160, 161, 162, 163, 164],
      "AcquisitionTime": ["165948.667500", "165950.167500", "165951.667500", "165953.167500", "165954.667500", "165956.167500", "165957.667500", "165959.167500", "170000.667500", "170002.167500", "170003.667500", "170005.167500", "170006.667500", "170008.167500", "170009.667500", "170011.167500", "170012.667500", "170014.167500", "170015.667500", "170017.167500", "170018.667500", "170020.167500", "170021.667500", "170023.167500", "170024.667500", "170026.167500", "170027.667500", "170029.167500", "170030.667500", "170032.167500", "170033.667500", "170035.167500", "170036.667500", "170038.167500", "170039.667500", "170041.167500", "170042.667500", "170044.167500", "170045.667500", "170047.167500", "170048.667500", "170050.167500", "170051.667500", "170053.167500", "170054.667500", "170056.167500", "170057.667500", "170059.167500", "170100.667500", "170102.167500", "170103.667500", "170105.167500", "170106.667500", "170108.167500", "170109.667500", "170111.167500", "170112.667500", "170114.167500", "170115.667500", "170117.167500", "170118.667500", "170120.167500", "170121.667500", "170123.167500", "170124.667500", "170126.167500", "170127.667500", "170129.167500", "170130.667500", "170132.167500", "170133.667500", "170135.167500", "170136.667500", "170138.167500", "170139.667500", "170141.167500", "170142.667500", "170144.167500", "170145.667500", "170147.167500", "170148.667500", "170150.167500", "170151.667500", "170153.167500", "170154.667500", "170156.167500", "170157.667500", "170159.167500", "170200.667500", "170202.167500", "170203.667500", "170205.167500", "170206.667500", "170208.167500", "170209.667500", "170211.167500", "170212.667500", "170214.167500", "170215.667500", "170217.167500", "170218.667500", "170220.167500", "170221.667500", "170223.167500", "170224.667500", "170226.167500", "170227.667500", "170229.167500", "170230.667500", "170232.167500", "170233.667500", "170235.167500", "170236.667500", "170238.167500", "170239.667500", "170241.167500", "170242.667500", "170244.167500", "170245.667500", "170247.167500", "170248.667500", "170250.167500", "170251.667500", "170253.167500", "170254.667500", "170256.167500", "170257.667500", "170259.167500", "170300.667500", "170302.167500", "170303.667500", "170305.167500", "170306.667500", "170308.167500", "170309.667500", "170311.167500", "170312.667500", "170314.167500", "170315.667500", "170317.167500", "170318.667500", "170320.167500", "170321.667500", "170323.167500", "170324.667500", "170326.167500", "170327.667500", "170329.167500", "170330.667500", "170332.167500", "170333.667500", "170335.167500", "170336.667500", "170338.167500", "170339.667500", "170341.167500", "170342.667500", "170344.167500", "170345.667500", "170347.167500", "170348.667500", "170350.167500", "170351.667500", "170353.167500"],
      "ContentTime": ["170003.029000", "170003.033000", "170003.036000", "170003.039000", "170003.042000", "170003.045000", "170003.048000", "170003.051000", "170003.074000", "170043.024000", "170043.027000", "170043.030000", "170043.033000", "170043.036000", "170043.039000", "170043.042000", "170043.045000", "170043.048000", "170043.051000", "170043.054000", "170043.057000", "170043.060000", "170043.063000", "170043.066000", "170043.074000", "170043.077000", "170043.080000", "170043.083000", "170043.086000", "170043.088000", "170043.091000", "170043.094000", "170043.097000", "170043.100000", "170043.103000", "170043.106000", "170123.025000", "170123.028000", "170123.031000", "170123.034000", "170123.037000", "170123.040000", "170123.048000", "170123.051000", "170123.053000", "170123.057000", "170123.060000", "170123.062000", "170123.065000", "170123.069000", "170123.071000", "170123.074000", "170123.077000", "170123.080000", "170123.083000", "170123.086000", "170123.089000", "170123.092000", "170123.095000", "170123.098000", "170123.101000", "170123.104000", "170123.107000", "170203.025000", "170203.028000", "170203.031000", "170203.034000", "170203.037000", "170203.040000", "170203.043000", "170203.046000", "170203.049000", "170203.052000", "170203.055000", "170203.058000", "170203.061000", "170203.064000", "170203.067000", "170203.070000", "170203.073000", "170203.076000", "170203.079000", "170203.082000", "170203.085000", "170203.088000", "170203.090000", "170203.093000", "170203.096000", "170203.099000", "170243.024000", "170243.027000", "170243.030000", "170243.033000", "170243.036000", "170243.039000", "170243.042000", "170243.045000", "170243.048000", "170243.051000", "170243.054000", "170243.057000", "170243.060000", "170243.063000", "170243.066000", "170243.069000", "170243.072000", "170243.074000", "170243.078000", "170243.080000", "170243.083000", "170243.086000", "170243.089000", "170243.092000", "170243.095000", "170243.098000", "170243.101000", "170323.025000", "170323.028000", "170323.031000", "170323.034000", "170323.037000", "170323.040000", "170323.043000", "170323.046000", "170323.049000", "170323.052000", "170323.055000", "170323.058000", "170323.061000", "170323.064000", "170323.067000", "170323.070000", "170323.073000", "170323.076000", "170323.079000", "170323.082000", "170323.085000", "170323.088000", "170323.091000", "170323.094000", "170323.097000", "170323.100000", "170323.103000", "170354.060000", "170354.063000", "170354.066000", "170354.069000", "170354.075000", "170354.078000", "170354.081000", "170354.084000", "170354.087000", "170354.090000", "170354.093000", "170354.096000", "170354.099000", "170354.102000", "170354.105000", "170354.108000", "170354.112000", "170354.115000", "170354.117000", "170354.121000", "170354.124000"],
      "InstanceCreationTime": ["170003.029000", "170003.033000", "170003.036000", "170003.039000", "170003.042000", "170003.045000", "170003.048000", "170003.051000", "170003.074000", "170043.024000", "170043.027000", "170043.030000", "170043.033000", "170043.036000", "170043.039000", "170043.042000", "170043.045000", "170043.048000", "170043.051000", "170043.054000", "170043.057000", "170043.060000", "170043.063000", "170043.066000", "170043.074000", "170043.077000", "170043.080000", "170043.083000", "170043.086000", "170043.088000", "170043.091000", "170043.094000", "170043.097000", "170043.100000", "170043.103000", "170043.106000", "170123.025000", "170123.028000", "170123.031000", "170123.034000", "170123.037000", "170123.040000", "170123.048000", "170123.051000", "170123.053000", "170123.057000", "170123.060000", "170123.062000", "170123.065000", "170123.069000", "170123.071000", "170123.074000", "170123.077000", "170123.080000", "170123.083000", "170123.086000", "170123.089000", "170123.092000", "170123.095000", "170123.098000", "170123.101000", "170123.104000", "170123.107000", "170203.025000", "170203.028000", "170203.031000", "170203.034000", "170203.037000", "170203.040000", "170203.043000", "170203.046000", "170203.049000", "170203.052000", "170203.055000", "170203.058000", "170203.061000", "170203.064000", "170203.067000", "170203.070000", "170203.073000", "170203.076000", "170203.079000", "170203.082000", "170203.085000", "170203.088000", "170203.090000", "170203.093000", "170203.096000", "170203.099000", "170243.024000", "170243.027000", "170243.030000", "170243.033000", "170243.036000", "170243.039000", "170243.042000", "170243.045000", "170243.048000", "170243.051000", "170243.054000", "170243.057000", "170243.060000", "170243.063000", "170243.066000", "170243.069000", "170243.072000", "170243.074000", "170243.078000", "170243.080000", "170243.083000", "170243.086000", "170243.089000", "170243.092000", "170243.095000", "170243.098000", "170243.101000", "170323.025000", "170323.028000", "170323.031000", "170323.034000", "170323.037000", "170323.040000", "170323.043000", "170323.046000", "170323.049000", "170323.052000", "170323.055000", "170323.058000", "170323.061000", "170323.064000", "170323.067000", "170323.070000", "170323.073000", "170323.076000", "170323.079000", "170323.082000", "170323.085000", "170323.088000", "170323.091000", "170323.094000", "170323.097000", "170323.100000", "170323.103000", "170354.060000", "170354.063000", "170354.066000", "170354.069000", "170354.075000", "170354.078000", "170354.081000", "170354.084000", "170354.087000", "170354.090000", "170354.093000", "170354.096000", "170354.099000", "170354.102000", "170354.105000", "170354.108000", "170354.112000", "170354.115000", "170354.117000", "170354.121000", "170354.124000"],
      "InstanceNumber": [1, 2, 3, 4, 5, 6, 7, 8, 9, 10, 11, 12, 13, 14, 15, 16, 17, 18, 19, 20, 21, 22, 23, 24, 25, 26, 27, 28, 29, 30, 31, 32, 33, 34, 35, 36, 37, 38, 39, 40, 41, 42, 43, 44, 45, 46, 47, 48, 49, 50, 51, 52, 53, 54, 55, 56, 57, 58, 59, 60, 61, 62, 63, 64, 65, 66, 67, 68, 69, 70, 71, 72, 73, 74, 75, 76, 77, 78, 79, 80, 81, 82, 83, 84, 85, 86, 87, 88, 89, 90, 91, 92, 93, 94, 95, 96, 97, 98, 99, 100, 101, 102, 103, 104, 105, 106, 107, 108, 109, 110, 111, 112, 113, 114, 115, 116, 117, 118, 119, 120, 121, 122, 123, 124, 125, 126, 127, 128, 129, 130, 131, 132, 133, 134, 135, 136, 137, 138, 139, 140, 141, 142, 143, 144, 145, 146, 147, 148, 149, 150, 151, 152, 153, 154, 155, 156, 157, 158, 159, 160, 161, 162, 163, 164],
      "LargestImagePixelValue": [3559, 3563, 3496, 3451, 3445, 3433, 3425, 3268, 3447, 3438, 3380, 3417, 3464, 3468, 3363, 3320, 3444, 3349, 3367, 3388, 3407, 3426, 3352, 3347, 3309, 3301, 3225, 3198, 3272, 3253, 3332, 3262, 3303, 3274, 3298, 3391, 3358, 3458, 3319, 3444, 3389, 3383, 3356, 3375, 3480, 3485, 3399, 3131, 3282, 3366, 3352, 3392, 3480, 3459, 3447, 3468, 3423, 3419, 3453, 3364, 3488, 3536, 3460, 3262, 3381, 3364, 3453, 3394, 3499, 3397, 3389, 3444, 3365, 3445, 3364, 3447, 3489, 3445, 3383, 3331, 3329, 3408, 3398, 3450, 3520, 3443, 3419, 3420, 3435, 3402, 3459, 3578, 3477, 3423, 3425, 3427, 3421, 3406, 3399, 3382, 3383, 3274, 3355, 3357, 3360, 3357, 3369, 3308, 3356, 3393, 3425, 3391, 3349, 3293, 3332, 3455, 3437, 3394, 3384, 3402, 3358, 3398, 3384, 3446, 3406, 3422, 3374, 3419, 3471, 3425, 3401, 3401, 3350, 3394, 3358, 3406, 3397, 3385, 3332, 3338, 3391, 3314, 3371, 3328, 3335, 3308, 3303, 3241, 3537, 3522, 3218, 3432, 3442, 3271, 3304, 3301, 3307, 3289, 3312, 3319, 3367, 3342, 3394, 3341],
      "WindowCenter": [693.0, 692.0, 692.0, 692.0, 692.0, 692.0, 692.0, 692.0, 693.0, 693.0, 693.0, 692.0, 692.0, 692.0, 691.0, 692.0, 691.0, 691.0, 691.0, 691.0, 691.0, 692.0, 692.0, 692.0, 692.0, 693.0, 692.0, 692.0, 693.0, 692.0, 693.0, 693.0, 693.0, 692.0, 692.0, 692.0, 690.0, 691.0, 691.0, 693.0, 692.0, 692.0, 692.0, 691.0, 693.0, 692.0, 692.0, 689.0, 691.0, 692.0, 692.0, 693.0, 694.0, 694.0, 694.0, 693.0, 690.0, 690.0, 691.0, 694.0, 695.0, 695.0, 694.0, 693.0, 694.0, 692.0, 692.0, 692.0, 693.0, 692.0, 691.0, 692.0, 691.0, 691.0, 689.0, 693.0, 694.0, 695.0, 693.0, 691.0, 692.0, 692.0, 689.0, 693.0, 693.0, 691.0, 693.0, 691.0, 691.0, 691.0, 692.0, 693.0, 694.0, 693.0, 693.0, 691.0, 692.0, 692.0, 692.0, 692.0, 692.0, 690.0, 691.0, 691.0, 691.0, 691.0, 691.0, 690.0, 692.0, 692.0, 694.0, 693.0, 691.0, 691.0, 691.0, 692.0, 692.0, 693.0, 692.0, 693.0, 692.0, 691.0, 691.0, 691.0, 691.0, 690.0, 691.0, 692.0, 693.0, 693.0, 693.0, 692.0, 692.0, 691.0, 692.0, 691.0, 691.0, 692.0, 692.0, 692.0, 691.0, 690.0, 691.0, 691.0, 691.0, 691.0, 692.0, 691.0, 693.0, 693.0, 691.0, 692.0, 692.0, 690.0, 690.0, 691.0, 691.0, 692.0, 691.0, 691.0, 691.0, 690.0, 689.0, 690.0],
      "WindowWidth": [1510.0, 1505.0, 1506.0, 1507.0, 1506.0, 1506.0, 1507.0, 1506.0, 1507.0, 1509.0, 1507.0, 1506.0, 1506.0, 1504.0, 1503.0, 1504.0, 1502.0, 1502.0, 1502.0, 1503.0, 1502.0, 1504.0, 1505.0, 1506.0, 1506.0, 1507.0, 1506.0, 1504.0, 1507.0, 1507.0, 1508.0, 1507.0, 1507.0, 1506.0, 1506.0, 1505.0, 1499.0, 1502.0, 1504.0, 1507.0, 1504.0, 1505.0, 1504.0, 1503.0, 1507.0, 1506.0, 1504.0, 1497.0, 1502.0, 1505.0, 1505.0, 1507.0, 1510.0, 1511.0, 1510.0, 1507.0, 1500.0, 1500.0, 1503.0, 1510.0, 1513.0, 1514.0, 1511.0, 1507.0, 1511.0, 1505.0, 1504.0, 1505.0, 1508.0, 1505.0, 1504.0, 1505.0, 1503.0, 1503.0, 1497.0, 1508.0, 1511.0, 1513.0, 1509.0, 1502.0, 1504.0, 1504.0, 1498.0, 1507.0, 1508.0, 1504.0, 1507.0, 1502.0, 1503.0, 1503.0, 1505.0, 1509.0, 1509.0, 1508.0, 1507.0, 1502.0, 1504.0, 1506.0, 1506.0, 1506.0, 1505.0, 1500.0, 1503.0, 1503.0, 1502.0, 1502.0, 1502.0, 1501.0, 1505.0, 1507.0, 1511.0, 1508.0, 1502.0, 1502.0, 1503.0, 1506.0, 1506.0, 1507.0, 1506.0, 1507.0, 1506.0, 1502.0, 1502.0, 1503.0, 1502.0, 1501.0, 1501.0, 1504.0, 1508.0, 1507.0, 1507.0, 1505.0, 1505.0, 1504.0, 1504.0, 1504.0, 1503.0, 1505.0, 1504.0, 1504.0, 1503.0, 1501.0, 1503.0, 1502.0, 1503.0, 1504.0, 1507.0, 1503.0, 1509.0, 1507.0, 1501.0, 1505.0, 1505.0, 1501.0, 1501.0, 1502.0, 1503.0, 1505.0, 1504.0, 1503.0, 1502.0, 1501.0, 1497.0, 1499.0]
    },
    "slices": {}
  }
}