{
  "AcquisitionMatrixPE": 72,
  "AcquisitionNumber": 1,
  "AcquisitionTime": "17:12:41.830000",
  "BandwidthPerPixelPhaseEncode": 17.943,
  "BaseResolution": 96,
  "BodyPartExamined": "BRAIN",
  "CoilCombinationMethod": "Sum of Squares",
  "ConsistencyInfo": "N4_VE11C_LATEST_20160120",
  "ConversionSoftware": "dcm2niix",
  "ConversionSoftwareVersion": "v1.0.20211006",
  "DerivedVendorReportedEchoSpacing": 0.000552897,
  "DeviceSerialNumber": "166011",
  "EchoTime": 0.03,
  "EchoTrainLength": 58,
  "EffectiveEchoSpacing": 0.000580542,
  "FlipAngle": 62,
  "ImageOrientationPatientDICOM": [0.99765, -0.00897437, -0.0679262, -0.00365656, 0.982998, -0.183578],
  "ImageType": [
    "ORIGINAL",
    "PRIMARY",
    "M",
    "ND",
    "MOSAIC"
],
  "ImagingFrequency": 123.259,
  "InPlanePhaseEncodingDirectionDICOM": "COL",
  "InstitutionAddress": "West 130th Street 610,NY,NYC,US,10025",
  "InstitutionName": "MBBI",
  "MRAcquisitionType": "2D",
  "MagneticFieldStrength": 3,
  "Manufacturer": "Siemens",
  "ManufacturersModelName": "Prisma",
  "Modality": "MR",
  "MultibandAccelerationFactor": 3,
  "PartialFourier": 0.75,
  "PatientPosition": "HFS",
  "PercentPhaseFOV": 100,
  "PercentSampling": 75,
  "PhaseEncodingDirection": "j-",
  "PhaseEncodingSteps": 58,
  "PhaseOversampling": 0.05,
  "PhaseResolution": 0.75,
  "PixelBandwidth": 2265,
  "ProcedureStepDescription": "White^Word_recognition",
  "ProtocolName": "func_vwfate_run9",
  "PulseSequenceDetails": "%SiemensSeq%\\ep2d_bold",
  "ReceiveCoilActiveElements": "HC1-7",
  "ReceiveCoilName": "HeadNeck_64",
  "ReconMatrixPE": 96,
  "RefLinesPE": 40,
  "RepetitionTime": 1.5,
  "SAR": 0.0488657,
  "ScanOptions": "PFP\\FS",
  "ScanningSequence": "EP",
  "SequenceName": "*epfid2d1_72",
  "SequenceVariant": "SK\\OSP",
  "SeriesDescription": "func_vwfate_run9",
  "SeriesNumber": 11,
  "ShimSetting": [-1167, -1325, 670, 657, -88, -35, -14, 47],
  "SliceThickness": 2,
  "SliceTiming": [1.075, 0, 0.74, 0.0675, 0.8075, 0.1325, 0.8725, 0.2, 0.94, 0.2675, 1.0075, 0.4025, 1.1425, 0.47, 1.21, 0.5375, 1.2775, 0.605, 1.345, 0.6725, 1.4125, 0.335, 1.075, 0, 0.74, 0.0675, 0.8075, 0.1325, 0.8725, 0.2, 0.94, 0.2675, 1.0075, 0.4025, 1.1425, 0.47, 1.21, 0.5375, 1.2775, 0.605, 1.345, 0.6725, 1.4125, 0.335, 1.075, 0, 0.74, 0.0675, 0.8075, 0.1325, 0.8725, 0.2, 0.94, 0.2675, 1.0075, 0.4025, 1.1425, 0.47, 1.21, 0.5375, 1.2775, 0.605, 1.345, 0.6725, 1.4125, 0.335],
  "SoftwareVersions": "syngo MR E11",
  "SpacingBetweenSlices": 2,
  "StationName": "AWP166011",
  "TaskName": "vwfate",
  "TotalReadoutTime": 0.0551515,
  "TxRefAmp": 222.783,
  "dcmmeta_affine": [
    [-1.9952999353408813, -0.007313124369829893, -0.13683761656284332, 98.66490936279297],
    [0.017948731780052185, 1.9659966230392456, -0.36679011583328247, -58.384708404541016],
    [-0.13585233688354492, 0.36715617775917053, 1.9613109827041626, -71.38602447509766],
    [0.0, 0.0, 0.0, 1.0]
],
  "dcmmeta_reorient_transform": [
    [0.0, -1.0, 0.0, 95.0],
    [1.0, 0.0, 0.0, 0.0],
    [0.0, 0.0, 1.0, 0.0],
    [0.0, 0.0, 0.0, 1.0]
],
  "dcmmeta_shape": [96, 96, 66, 164],
  "dcmmeta_slice_dim": 2,
  "dcmmeta_version": 0.6,
  "global": {
    "const": {
      "AcquisitionMatrix": [96, 0, 0, 72],
      "AngioFlag": "N",
      "BitsAllocated": 16,
      "BitsStored": 12,
      "BodyPartExamined": "BRAIN",
      "Columns": 864,
      "EchoNumbers": 1,
      "EchoTime": 30.0,
      "EchoTrainLength": 58,
      "FlipAngle": 62.0,
      "HighBit": 11,
      "ImageOrientationPatient": [0.99764998697909, -0.0089743662924, -0.067926167493, -0.0036565620903, 0.98299832853318, -0.1835780914343],
      "ImagePositionPatient": [-861.35711280322, -876.4353769295, 156.64908690919],
      "ImageType": [
        "ORIGINAL",
        "PRIMARY",
        "M",
        "ND",
        "MOSAIC"
],
      "ImagedNucleus": "1H",
      "ImagingFrequency": 123.259484,
      "InPlanePhaseEncodingDirection": "COL",
      "MRAcquisitionType": "2D",
      "MagneticFieldStrength": 3.0,
      "Manufacturer": "SIEMENS",
      "ManufacturerModelName": "Prisma",
      "Modality": "MR",
      "NumberOfAverages": 1.0,
      "NumberOfPhaseEncodingSteps": 58,
      "PercentPhaseFieldOfView": 100.0,
      "PercentSampling": 75.0,
      "PerformedProcedureStepStartTime": "163247.174000",
      "PhotometricInterpretation": "MONOCHROME2",
      "PixelBandwidth": 2265.0,
      "PixelRepresentation": 0,
      "PixelSpacing": [2.0, 2.0],
      "ProtocolName": "func_vwfate_run9",
      "RepetitionTime": 1500.0,
      "Rows": 864,
      "SAR": 0.04886570144596,
      "SamplesPerPixel": 1,
      "ScanOptions": [
        "PFP",
        "FS"
],
      "ScanningSequence": "EP",
      "SequenceName": "*epfid2d1_72",
      "SequenceVariant": [
        "SK",
        "OSP"
],
      "SeriesDescription": "func_vwfate_run9",
      "SeriesNumber": 11,
      "SeriesTime": "171317.493000",
      "SliceLocation": -66.048159542873,
      "SliceThickness": 2.0,
      "SmallestImagePixelValue": 0,
      "SoftwareVersions": "syngo MR E11",
      "SpacingBetweenSlices": 2.0000000189202,
      "SpecificCharacterSet": "ISO_IR 100",
      "StudyID": "2",
      "StudyTime": "163247.124000",
      "TransmitCoilName": "Body",
      "VariableFlipAngleFlag": "N",
      "WindowCenterWidthExplanation": "Algo1",
      "dBdt": 0.0},
    "slices": {}
  },
  "time": {
    "samples": {
      "AcquisitionNumber": [1, 2, 3, 4, 5, 6, 7, 8, 9, 10, 11, 12, 13, 14, 15, 16, 17, 18, 19, 20, 21, 22, 23, 24, 25, 26, 27, 28, 29, 30, 31, 32, 33, 34, 35, 36, 37, 38, 39, 40, 41, 42, 43, 44, 45, 46, 47, 48, 49, 50, 51, 52, 53, 54, 55, 56, 57, 58, 59, 60, 61, 62, 63, 64, 65, 66, 67, 68, 69, 70, 71, 72, 73, 74, 75, 76, 77, 78, 79, 80, 81, 82, 83, 84, 85, 86, 87, 88, 89, 90, 91, 92, 93, 94, 95, 96, 97, 98, 99, 100, 101, 102, 103, 104, 105, 106, 107, 108, 109, 110, 111, 112, 113, 114, 115, 116, 117, 118, 119, 120, 121, 122, 123, 124, 125, 126, 127, 128, 129, 130, 131, 132, 133, 134, 135, 136, 137, 138, 139, 140, 141, 142, 143, 144, 145, 146, 147, 148, 149, 150, 151, 152, 153, 154, 155, 156, 157, 158, 159, 160, 161, 162, 163, 164],
      "AcquisitionTime": ["171241.830000", "171243.330000", "171244.830000", "171246.330000", "171247.830000", "171249.330000", "171250.830000", "171252.330000", "171253.830000", "171255.330000", "171256.830000", "171258.330000", "171259.830000", "171301.330000", "171302.830000", "171304.330000", "171305.830000", "171307.330000", "171308.830000", "171310.330000", "171311.830000", "171313.330000", "171314.830000", "171316.330000", "171317.830000", "171319.330000", "171320.830000", "171322.330000", "171323.830000", "171325.330000", "171326.830000", "171328.330000", "171329.830000", "171331.330000", "171332.830000", "171334.330000", "171335.830000", "171337.330000", "171338.830000", "171340.330000", "171341.830000", "171343.330000", "171344.830000", "171346.330000", "171347.830000", "171349.330000", "171350.830000", "171352.330000", "171353.830000", "171355.330000", "171356.830000", "171358.330000", "171359.830000", "171401.330000", "171402.830000", "171404.330000", "171405.830000", "171407.330000", "171408.830000", "171410.330000", "171411.830000", "171413.330000", "171414.830000", "171416.330000", "171417.830000", "171419.330000", "171420.830000", "171422.330000", "171423.830000", "171425.330000", "171426.830000", "171428.330000", "171429.830000", "171431.330000", "171432.830000", "171434.330000", "171435.830000", "171437.330000", "171438.830000", "171440.330000", "171441.830000", "171443.330000", "171444.830000", "171446.330000", "171447.830000", "171449.330000", "171450.830000", "171452.330000", "171453.830000", "171455.330000", "171456.830000", "171458.330000", "171459.830000", "171501.330000", "171502.830000", "171504.330000", "171505.830000", "171507.330000", "171508.830000", "171510.330000", "171511.830000", "171513.330000", "171514.830000", "171516.330000", "171517.830000", "171519.330000", "171520.830000", "171522.330000", "171523.830000", "171525.330000", "171526.830000", "171528.330000", "171529.830000", "171531.330000", "171532.830000", "171534.330000", "171535.830000", "171537.330000", "171538.830000", "171540.330000", "171541.830000", "171543.330000", "171544.830000", "171546.330000", "171547.830000", "171549.330000", "171550.830000", "171552.330000", "171553.830000", "171555.330000", "171556.830000", "171558.330000", "171559.830000", "171601.330000", "171602.830000", "171604.330000", "171605.830000", "171607.330000", "171608.830000", "171610.330000", "171611.830000", "171613.330000", "171614.830000", "171616.330000", "171617.830000", "171619.330000", "171620.830000", "171622.330000", "171623.830000", "171625.330000", "171626.830000", "171628.330000", "171629.830000", "171631.330000", "171632.830000", "171634.330000", "171635.830000", "171637.330000", "171638.830000", "171640.330000", "171641.830000", "171643.330000", "171644.830000", "171646.330000"],
      "ContentTime": ["171317.497000", "171317.501000", "171317.511000", "171317.517000", "171317.520000", "171317.523000", "171317.526000", "171317.529000", "171317.532000", "171317.535000", "171317.538000", "171317.541000", "171317.544000", "171317.547000", "171317.550000", "171317.553000", "171317.556000", "171317.559000", "171317.562000", "171317.565000", "171317.568000", "171317.571000", "171317.574000", "171317.577000", "171357.493000", "171357.497000", "171357.500000", "171357.503000", "171357.513000", "171357.516000", "171357.519000", "171357.522000", "171357.525000", "171357.528000", "171357.531000", "171357.534000", "171357.537000", "171357.540000", "171357.543000", "171357.546000", "171357.549000", "171357.552000", "171357.555000", "171357.558000", "171357.561000", "171357.564000", "171357.567000", "171357.570000", "171357.573000", "171357.576000", "171437.491000", "171437.494000", "171437.497000", "171437.500000", "171437.503000", "171437.506000", "171437.509000", "171437.512000", "171437.515000", "171437.518000", "171437.521000", "171437.524000", "171437.527000", "171437.530000", "171437.533000", "171437.536000", "171437.539000", "171437.542000", "171437.545000", "171437.548000", "171437.551000", "171437.554000", "171437.562000", "171437.565000", "171437.568000", "171437.571000", "171437.574000", "171517.492000", "171517.495000", "171517.498000", "171517.501000", "171517.504000", "171517.507000", "171517.510000", "171517.513000", "171517.516000", "171517.519000", "171517.534000", "171517.537000", "171517.540000", "171517.543000", "171517.546000", "171517.549000", "171517.552000", "171517.555000", "171517.558000", "171517.561000", "171517.564000", "171517.567000", "171517.570000", "171517.573000", "171517.582000", "171517.585000", "171517.588000", "171557.492000", "171557.496000", "171557.499000", "171557.502000", "171557.505000", "171557.508000", "171557.511000", "171557.514000", "171557.517000", "171557.520000", "171557.523000", "171557.526000", "171557.529000", "171557.532000", "171557.535000", "171557.538000", "171557.541000", "171557.544000", "171557.547000", "171557.550000", "171557.553000", "171557.556000", "171557.559000", "171557.562000", "171557.565000", "171557.568000", "171637.492000", "171637.495000", "171637.498000", "171637.501000", "171637.504000", "171637.507000", "171637.510000", "171637.513000", "171637.516000", "171637.519000", "171637.522000", "171637.525000", "171637.528000", "171637.531000", "171637.534000", "171637.537000", "171637.540000", "171637.543000", "171637.547000", "171637.550000", "171637.553000", "171637.556000", "171637.559000", "171637.562000", "171637.565000", "171637.568000", "171637.571000", "171647.271000", "171647.274000", "171647.277000", "171647.280000", "171647.284000", "171647.287000", "171647.290000"],
      "InstanceCreationTime": ["171317.497000", "171317.501000", "171317.511000", "171317.517000", "171317.520000", "171317.523000", "171317.526000", "171317.529000", "171317.532000", "171317.535000", "171317.538000", "171317.541000", "171317.544000", "171317.547000", "171317.550000", "171317.553000", "171317.556000", "171317.559000", "171317.562000", "171317.565000", "171317.568000", "171317.571000", "171317.574000", "171317.577000", "171357.493000", "171357.497000", "171357.500000", "171357.503000", "171357.513000", "171357.516000", "171357.519000", "171357.522000", "171357.525000", "171357.528000", "171357.531000", "171357.534000", "171357.537000", "171357.540000", "171357.543000", "171357.546000", "171357.549000", "171357.552000", "171357.555000", "171357.558000", "171357.561000", "171357.564000", "171357.567000", "171357.570000", "171357.573000", "171357.576000", "171437.491000", "171437.494000", "171437.497000", "171437.500000", "171437.503000", "171437.506000", "171437.509000", "171437.512000", "171437.515000", "171437.518000", "171437.521000", "171437.524000", "171437.527000", "171437.530000", "171437.533000", "171437.536000", "171437.539000", "171437.542000", "171437.545000", "171437.548000", "171437.551000", "171437.554000", "171437.562000", "171437.565000", "171437.568000", "171437.571000", "171437.574000", "171517.492000", "171517.495000", "171517.498000", "171517.501000", "171517.504000", "171517.507000", "171517.510000", "171517.513000", "171517.516000", "171517.519000", "171517.534000", "171517.537000", "171517.540000", "171517.543000", "171517.546000", "171517.549000", "171517.552000", "171517.555000", "171517.558000", "171517.561000", "171517.564000", "171517.567000", "171517.570000", "171517.573000", "171517.582000", "171517.585000", "171517.588000", "171557.492000", "171557.496000", "171557.499000", "171557.502000", "171557.505000", "171557.508000", "171557.511000", "171557.514000", "171557.517000", "171557.520000", "171557.523000", "171557.526000", "171557.529000", "171557.532000", "171557.535000", "171557.538000", "171557.541000", "171557.544000", "171557.547000", "171557.550000", "171557.553000", "171557.556000", "171557.559000", "171557.562000", "171557.565000", "171557.568000", "171637.492000", "171637.495000", "171637.498000", "171637.501000", "171637.504000", "171637.507000", "171637.510000", "171637.513000", "171637.516000", "171637.519000", "171637.522000", "171637.525000", "171637.528000", "171637.531000", "171637.534000", "171637.537000", "171637.540000", "171637.543000", "171637.547000", "171637.550000", "171637.553000", "171637.556000", "171637.559000", "171637.562000", "171637.565000", "171637.568000", "171637.571000", "171647.271000", "171647.274000", "171647.277000", "171647.280000", "171647.284000", "171647.287000", "171647.290000"],
      "InstanceNumber": [1, 2, 3, 4, 5, 6, 7, 8, 9, 10, 11, 12, 13, 14, 15, 16, 17, 18, 19, 20, 21, 22, 23, 24, 25, 26, 27, 28, 29, 30, 31, 32, 33, 34, 35, 36, 37, 38, 39, 40, 41, 42, 43, 44, 45, 46, 47, 48, 49, 50, 51, 52, 53, 54, 55, 56, 57, 58, 59, 60, 61, 62, 63, 64, 65, 66, 67, 68, 69, 70, 71, 72, 73, 74, 75, 76, 77, 78, 79, 80, 81, 82, 83, 84, 85, 86, 87, 88, 89, 90, 91, 92, 93, 94, 95, 96, 97, 98, 99, 100, 101, 102, 103, 104, 105, 106, 107, 108, 109, 110, 111, 112, 113, 114, 115, 116, 117, 118, 119, 120, 121, 122, 123, 124, 125, 126, 127, 128, 129, 130, 131, 132, 133, 134, 135, 136, 137, 138, 139, 140, 141, 142, 143, 144, 145, 146, 147, 148, 149, 150, 151, 152, 153, 154, 155, 156, 157, 158, 159, 160, 161, 162, 163, 164],
      "LargestImagePixelValue": [3638, 3562, 3488, 3540, 3535, 3441, 3483, 3619, 3493, 3510, 3559, 3515, 3552, 3315, 3448, 3588, 3557, 3557, 3507, 3534, 3550, 3515, 3542, 3493, 3522, 3517, 3509, 3582, 3655, 3601, 3542, 3573, 3497, 3573, 3491, 3577, 3529, 3520, 3545, 3481, 3546, 3540, 3520, 3480, 3625, 3599, 3483, 3491, 3451, 3532, 3425, 3440, 3371, 3401, 3407, 3399, 3453, 3447, 3424, 3286, 3341, 3421, 3412, 3334, 3352, 3283, 3348, 3481, 3313, 3394, 3328, 3418, 3369, 3329, 3523, 3324, 3364, 3354, 3350, 3260, 3344, 3343, 3393, 3496, 3353, 3456, 3321, 3278, 3327, 3277, 3345, 3263, 3368, 3550, 3358, 3251, 3455, 3343, 3322, 3335, 3260, 3659, 3497, 3408, 3381, 3387, 3385, 3358, 3345, 3352, 3336, 3346, 3243, 3449, 3376, 3350, 3375, 3323, 3330, 3366, 3342, 3335, 3315, 3319, 3351, 3320, 3323, 3300, 3367, 3249, 3371, 3392, 3392, 3422, 3383, 3377, 3464, 3499, 3444, 3420, 3395, 3409, 3449, 3471, 3416, 3469, 3399, 3483, 3402, 3429, 3389, 3444, 3421, 3294, 3523, 3421, 3509, 3538, 3441, 3505, 3371, 3441, 3399, 3454],
      "WindowCenter": [699.0, 696.0, 694.0, 694.0, 695.0, 694.0, 694.0, 696.0, 695.0, 695.0, 695.0, 695.0, 695.0, 693.0, 695.0, 695.0, 696.0, 696.0, 696.0, 695.0, 694.0, 693.0, 694.0, 694.0, 695.0, 694.0, 694.0, 694.0, 695.0, 695.0, 695.0, 695.0, 694.0, 693.0, 693.0, 694.0, 693.0, 692.0, 693.0, 692.0, 692.0, 692.0, 692.0, 692.0, 695.0, 694.0, 692.0, 693.0, 693.0, 694.0, 693.0, 689.0, 691.0, 692.0, 693.0, 691.0, 691.0, 691.0, 691.0, 690.0, 690.0, 690.0, 691.0, 691.0, 691.0, 690.0, 690.0, 691.0, 690.0, 690.0, 690.0, 690.0, 690.0, 690.0, 692.0, 691.0, 691.0, 690.0, 690.0, 689.0, 690.0, 690.0, 691.0, 692.0, 692.0, 691.0, 691.0, 690.0, 690.0, 689.0, 689.0, 689.0, 690.0, 691.0, 691.0, 689.0, 691.0, 689.0, 687.0, 690.0, 689.0, 689.0, 689.0, 688.0, 688.0, 688.0, 688.0, 688.0, 688.0, 688.0, 688.0, 688.0, 688.0, 689.0, 688.0, 688.0, 688.0, 688.0, 687.0, 688.0, 688.0, 688.0, 688.0, 688.0, 688.0, 687.0, 687.0, 687.0, 686.0, 686.0, 688.0, 687.0, 689.0, 688.0, 687.0, 686.0, 686.0, 686.0, 686.0, 687.0, 687.0, 686.0, 686.0, 687.0, 687.0, 688.0, 688.0, 687.0, 688.0, 687.0, 685.0, 685.0, 687.0, 687.0, 689.0, 687.0, 685.0, 685.0, 685.0, 687.0, 687.0, 687.0, 686.0, 685.0],
      "WindowWidth": [1525.0, 1516.0, 1512.0, 1512.0, 1513.0, 1510.0, 1512.0, 1515.0, 1514.0, 1515.0, 1514.0, 1513.0, 1513.0, 1509.0, 1512.0, 1514.0, 1515.0, 1516.0, 1516.0, 1514.0, 1510.0, 1509.0, 1512.0, 1512.0, 1513.0, 1512.0, 1510.0, 1511.0, 1513.0, 1513.0, 1512.0, 1514.0, 1510.0, 1509.0, 1508.0, 1510.0, 1507.0, 1506.0, 1507.0, 1506.0, 1506.0, 1506.0, 1506.0, 1506.0, 1513.0, 1511.0, 1506.0, 1507.0, 1508.0, 1511.0, 1509.0, 1498.0, 1505.0, 1506.0, 1507.0, 1503.0, 1503.0, 1503.0, 1502.0, 1499.0, 1499.0, 1501.0, 1503.0, 1505.0, 1504.0, 1501.0, 1500.0, 1503.0, 1500.0, 1501.0, 1500.0, 1500.0, 1501.0, 1502.0, 1505.0, 1504.0, 1503.0, 1501.0, 1502.0, 1498.0, 1502.0, 1501.0, 1504.0, 1506.0, 1505.0, 1503.0, 1503.0, 1500.0, 1500.0, 1498.0, 1497.0, 1497.0, 1499.0, 1503.0, 1502.0, 1497.0, 1503.0, 1499.0, 1493.0, 1502.0, 1499.0, 1499.0, 1499.0, 1495.0, 1495.0, 1495.0, 1494.0, 1495.0, 1496.0, 1494.0, 1495.0, 1496.0, 1496.0, 1497.0, 1496.0, 1495.0, 1496.0, 1495.0, 1492.0, 1494.0, 1495.0, 1494.0, 1496.0, 1494.0, 1494.0, 1493.0, 1493.0, 1492.0, 1491.0, 1491.0, 1494.0, 1494.0, 1497.0, 1495.0, 1492.0, 1488.0, 1489.0, 1489.0, 1491.0, 1492.0, 1492.0, 1491.0, 1491.0, 1492.0, 1491.0, 1496.0, 1496.0, 1491.0, 1494.0, 1492.0, 1487.0, 1488.0, 1493.0, 1492.0, 1497.0, 1493.0, 1488.0, 1487.0, 1488.0, 1493.0, 1493.0, 1493.0, 1490.0, 1488.0]
    },
    "slices": {}
  }
}