{
  "AcquisitionMatrixPE": 72,
  "AcquisitionNumber": 1,
  "AcquisitionTime": "10:30:56.715000",
  "BandwidthPerPixelPhaseEncode": 17.943,
  "BaseResolution": 96,
  "BodyPartExamined": "BRAIN",
  "CoilCombinationMethod": "Sum of Squares",
  "ConsistencyInfo": "N4_VE11C_LATEST_20160120",
  "ConversionSoftware": "dcm2niix",
  "ConversionSoftwareVersion": "v1.0.20211006",
  "DerivedVendorReportedEchoSpacing": 0.000552897,
  "DeviceSerialNumber": "166011",
  "EchoTime": 0.03,
  "EchoTrainLength": 58,
  "EffectiveEchoSpacing": 0.000580542,
  "FlipAngle": 62,
  "ImageOrientationPatientDICOM": [0.99959, -0.0234206, 0.0164559, 0.0251278, 0.99332, -0.112626],
  "ImageType": [
    "ORIGINAL",
    "PRIMARY",
    "M",
    "ND",
    "MOSAIC"
],
  "ImagingFrequency": 123.26,
  "InPlanePhaseEncodingDirectionDICOM": "COL",
  "InstitutionAddress": "West 130th Street 610,NY,NYC,US,10025",
  "InstitutionName": "MBBI",
  "MRAcquisitionType": "2D",
  "MagneticFieldStrength": 3,
  "Manufacturer": "Siemens",
  "ManufacturersModelName": "Prisma",
  "Modality": "MR",
  "MultibandAccelerationFactor": 3,
  "PartialFourier": 0.75,
  "PatientPosition": "HFS",
  "PercentPhaseFOV": 100,
  "PercentSampling": 75,
  "PhaseEncodingDirection": "j-",
  "PhaseEncodingSteps": 58,
  "PhaseOversampling": 0.05,
  "PhaseResolution": 0.75,
  "PixelBandwidth": 2265,
  "ProcedureStepDescription": "White^Word_recognition",
  "ProtocolName": "func_vwfate_run2",
  "PulseSequenceDetails": "%SiemensSeq%\\ep2d_bold",
  "ReceiveCoilActiveElements": "HC1-6",
  "ReceiveCoilName": "HeadNeck_64",
  "ReconMatrixPE": 96,
  "RefLinesPE": 40,
  "RepetitionTime": 1.5,
  "SAR": 0.0463317,
  "ScanOptions": "PFP\\FS",
  "ScanningSequence": "EP",
  "SequenceName": "*epfid2d1_72",
  "SequenceVariant": "SK\\OSP",
  "SeriesDescription": "func_vwfate_run2",
  "SeriesNumber": 9,
  "ShimSetting": [-1143, -1360, 652, 538, -47, -117, -24, 20],
  "SliceThickness": 2,
  "SliceTiming": [1.0775, 0, 0.74, 0.0675, 0.8075, 0.135, 0.875, 0.2025, 0.9425, 0.27, 1.01, 0.405, 1.145, 0.4725, 1.2125, 0.54, 1.28, 0.605, 1.345, 0.6725, 1.4125, 0.3375, 1.0775, 0, 0.74, 0.0675, 0.8075, 0.135, 0.875, 0.2025, 0.9425, 0.27, 1.01, 0.405, 1.145, 0.4725, 1.2125, 0.54, 1.28, 0.605, 1.345, 0.6725, 1.4125, 0.3375, 1.0775, 0, 0.74, 0.0675, 0.8075, 0.135, 0.875, 0.2025, 0.9425, 0.27, 1.01, 0.405, 1.145, 0.4725, 1.2125, 0.54, 1.28, 0.605, 1.345, 0.6725, 1.4125, 0.3375],
  "SoftwareVersions": "syngo MR E11",
  "SpacingBetweenSlices": 2,
  "StationName": "AWP166011",
  "TaskName": "vwfate",
  "TotalReadoutTime": 0.0551515,
  "TxRefAmp": 217.339,
  "dcmmeta_affine": [
    [-1.999180555343628, 0.050255581736564636, 0.027416354045271873, 97.20365142822266],
    [0.04684118181467056, 1.986639380455017, -0.22598682343959808, -77.7950668334961],
    [0.0329117551445961, 0.22525212168693542, 1.9870022535324097, -74.20406341552734],
    [0.0, 0.0, 0.0, 1.0]
],
  "dcmmeta_reorient_transform": [
    [0.0, -1.0, 0.0, 95.0],
    [1.0, 0.0, 0.0, 0.0],
    [0.0, 0.0, 1.0, 0.0],
    [0.0, 0.0, 0.0, 1.0]
],
  "dcmmeta_shape": [96, 96, 66, 164],
  "dcmmeta_slice_dim": 2,
  "dcmmeta_version": 0.6,
  "global": {
    "const": {
      "AcquisitionMatrix": [96, 0, 0, 72],
      "AngioFlag": "N",
      "BitsAllocated": 16,
      "BitsStored": 12,
      "BodyPartExamined": "BRAIN",
      "Columns": 864,
      "EchoNumbers": 1,
      "EchoTime": 30.0,
      "EchoTrainLength": 58,
      "FlipAngle": 62.0,
      "HighBit": 11,
      "ImageOrientationPatient": [0.99959025606695, -0.0234205908023, 0.01645587744476, 0.02512779013937, 0.99331966867557, -0.1126260626364],
      "ImagePositionPatient": [-888.96139313342, -855.81816262695, 21.053591122486],
      "ImageType": [
        "ORIGINAL",
        "PRIMARY",
        "M",
        "ND",
        "MOSAIC"
],
      "ImagedNucleus": "1H",
      "ImagingFrequency": 123.259531,
      "InPlanePhaseEncodingDirection": "COL",
      "MRAcquisitionType": "2D",
      "MagneticFieldStrength": 3.0,
      "Manufacturer": "SIEMENS",
      "ManufacturerModelName": "Prisma",
      "Modality": "MR",
      "NumberOfAverages": 1.0,
      "NumberOfPhaseEncodingSteps": 58,
      "PercentPhaseFieldOfView": 100.0,
      "PercentSampling": 75.0,
      "PerformedProcedureStepStartTime": "100137.435000",
      "PhotometricInterpretation": "MONOCHROME2",
      "PixelBandwidth": 2265.0,
      "PixelRepresentation": 0,
      "PixelSpacing": [2.0, 2.0],
      "ProtocolName": "func_vwfate_run2",
      "RepetitionTime": 1500.0,
      "Rows": 864,
      "SAR": 0.04633170319587,
      "SamplesPerPixel": 1,
      "ScanOptions": [
        "PFP",
        "FS"
],
      "ScanningSequence": "EP",
      "SequenceName": "*epfid2d1_72",
      "SequenceVariant": [
        "SK",
        "OSP"
],
      "SeriesDescription": "func_vwfate_run2",
      "SeriesNumber": 9,
      "SeriesTime": "103143.287000",
      "SliceLocation": -63.599008249609,
      "SliceThickness": 2.0,
      "SmallestImagePixelValue": 0,
      "SoftwareVersions": "syngo MR E11",
      "SpacingBetweenSlices": 1.9999999321199,
      "SpecificCharacterSet": "ISO_IR 100",
      "StudyID": "1",
      "StudyTime": "100137.340000",
      "TransmitCoilName": "Body",
      "VariableFlipAngleFlag": "N",
      "WindowCenterWidthExplanation": "Algo1",
      "dBdt": 0.0},
    "slices": {}
  },
  "time": {
    "samples": {
      "AcquisitionNumber": [1, 2, 3, 4, 5, 6, 7, 8, 9, 10, 11, 12, 13, 14, 15, 16, 17, 18, 19, 20, 21, 22, 23, 24, 25, 26, 27, 28, 29, 30, 31, 32, 33, 34, 35, 36, 37, 38, 39, 40, 41, 42, 43, 44, 45, 46, 47, 48, 49, 50, 51, 52, 53, 54, 55, 56, 57, 58, 59, 60, 61, 62, 63, 64, 65, 66, 67, 68, 69, 70, 71, 72, 73, 74, 75, 76, 77, 78, 79, 80, 81, 82, 83, 84, 85, 86, 87, 88, 89, 90, 91, 92, 93, 94, 95, 96, 97, 98, 99, 100, 101, 102, 103, 104, 105, 106, 107, 108, 109, 110, 111, 112, 113, 114, 115, 116, 117, 118, 119, 120, 121, 122, 123, 124, 125, 126, 127, 128, 129, 130, 131, 132, 133, 134, 135, 136, 137, 138, 139, 140, 141, 142, 143, 144, 145, 146, 147, 148, 149, 150, 151, 152, 153, 154, 155, 156, 157, 158, 159, 160, 161, 162, 163, 164],
      "AcquisitionTime": ["103056.715000", "103058.215000", "103059.715000", "103101.215000", "103102.715000", "103104.215000", "103105.715000", "103107.215000", "103108.715000", "103110.215000", "103111.715000", "103113.215000", "103114.715000", "103116.215000", "103117.715000", "103119.215000", "103120.715000", "103122.215000", "103123.715000", "103125.215000", "103126.715000", "103128.215000", "103129.715000", "103131.215000", "103132.715000", "103134.215000", "103135.715000", "103137.215000", "103138.715000", "103140.215000", "103141.715000", "103143.215000", "103144.715000", "103146.215000", "103147.715000", "103149.215000", "103150.715000", "103152.215000", "103153.715000", "103155.215000", "103156.715000", "103158.215000", "103159.715000", "103201.215000", "103202.715000", "103204.215000", "103205.715000", "103207.215000", "103208.715000", "103210.215000", "103211.715000", "103213.215000", "103214.715000", "103216.215000", "103217.715000", "103219.215000", "103220.715000", "103222.215000", "103223.715000", "103225.215000", "103226.715000", "103228.215000", "103229.715000", "103231.215000", "103232.715000", "103234.215000", "103235.715000", "103237.215000", "103238.715000", "103240.215000", "103241.715000", "103243.215000", "103244.715000", "103246.215000", "103247.715000", "103249.215000", "103250.715000", "103252.215000", "103253.715000", "103255.215000", "103256.715000", "103258.215000", "103259.715000", "103301.215000", "103302.715000", "103304.215000", "103305.715000", "103307.215000", "103308.715000", "103310.215000", "103311.715000", "103313.215000", "103314.715000", "103316.215000", "103317.715000", "103319.215000", "103320.715000", "103322.215000", "103323.715000", "103325.215000", "103326.715000", "103328.215000", "103329.715000", "103331.215000", "103332.715000", "103334.215000", "103335.715000", "103337.215000", "103338.715000", "103340.215000", "103341.715000", "103343.215000", "103344.715000", "103346.215000", "103347.715000", "103349.215000", "103350.715000", "103352.215000", "103353.715000", "103355.215000", "103356.715000", "103358.215000", "103359.715000", "103401.215000", "103402.715000", "103404.215000", "103405.715000", "103407.215000", "103408.715000", "103410.215000", "103411.715000", "103413.215000", "103414.715000", "103416.215000", "103417.715000", "103419.215000", "103420.715000", "103422.215000", "103423.715000", "103425.215000", "103426.715000", "103428.215000", "103429.715000", "103431.215000", "103432.715000", "103434.215000", "103435.715000", "103437.215000", "103438.715000", "103440.215000", "103441.715000", "103443.215000", "103444.715000", "103446.215000", "103447.715000", "103449.215000", "103450.715000", "103452.215000", "103453.715000", "103455.215000", "103456.715000", "103458.215000", "103459.715000", "103501.215000"],
      "ContentTime": ["103143.291000", "103143.295000", "103143.305000", "103143.308000", "103143.311000", "103143.314000", "103143.317000", "103143.321000", "103143.324000", "103143.327000", "103143.330000", "103143.333000", "103143.336000", "103143.339000", "103143.342000", "103143.345000", "103143.348000", "103143.351000", "103143.354000", "103143.357000", "103143.360000", "103143.363000", "103143.366000", "103143.370000", "103143.373000", "103143.377000", "103143.380000", "103143.383000", "103143.386000", "103143.389000", "103143.392000", "103203.286000", "103203.290000", "103203.293000", "103203.296000", "103203.299000", "103203.302000", "103203.305000", "103203.308000", "103203.320000", "103203.323000", "103203.326000", "103203.329000", "103203.332000", "103243.285000", "103243.288000", "103243.291000", "103243.294000", "103243.297000", "103243.308000", "103243.312000", "103243.315000", "103243.318000", "103243.321000", "103243.324000", "103243.327000", "103243.330000", "103243.333000", "103243.336000", "103243.339000", "103243.342000", "103243.345000", "103243.348000", "103243.351000", "103243.354000", "103243.357000", "103243.360000", "103243.363000", "103243.366000", "103243.369000", "103243.372000", "103323.285000", "103323.288000", "103323.291000", "103323.294000", "103323.297000", "103323.300000", "103323.303000", "103323.310000", "103323.313000", "103323.316000", "103323.319000", "103323.322000", "103323.325000", "103323.328000", "103323.331000", "103323.334000", "103323.338000", "103323.340000", "103323.343000", "103323.346000", "103323.349000", "103323.353000", "103323.356000", "103323.359000", "103323.362000", "103323.365000", "103323.368000", "103403.286000", "103403.289000", "103403.292000", "103403.295000", "103403.298000", "103403.301000", "103403.304000", "103403.307000", "103403.311000", "103403.314000", "103403.317000", "103403.320000", "103403.323000", "103403.326000", "103403.329000", "103403.332000", "103403.335000", "103403.338000", "103403.341000", "103403.344000", "103403.347000", "103403.350000", "103403.353000", "103403.356000", "103403.359000", "103403.362000", "103443.299000", "103443.302000", "103443.305000", "103443.309000", "103443.312000", "103443.315000", "103443.318000", "103443.321000", "103443.324000", "103443.327000", "103443.330000", "103443.333000", "103443.336000", "103443.339000", "103443.342000", "103443.345000", "103443.348000", "103443.351000", "103443.354000", "103443.357000", "103443.360000", "103443.363000", "103443.366000", "103443.369000", "103443.372000", "103443.375000", "103443.378000", "103501.997000", "103502.001000", "103502.004000", "103502.008000", "103502.011000", "103502.014000", "103502.017000", "103502.020000", "103502.023000", "103502.026000", "103502.029000", "103502.032000", "103502.035000"],
      "InstanceCreationTime": ["103143.291000", "103143.295000", "103143.305000", "103143.308000", "103143.311000", "103143.314000", "103143.317000", "103143.321000", "103143.324000", "103143.327000", "103143.330000", "103143.333000", "103143.336000", "103143.339000", "103143.342000", "103143.345000", "103143.348000", "103143.351000", "103143.354000", "103143.357000", "103143.360000", "103143.363000", "103143.366000", "103143.370000", "103143.373000", "103143.377000", "103143.380000", "103143.383000", "103143.386000", "103143.389000", "103143.392000", "103203.286000", "103203.290000", "103203.293000", "103203.296000", "103203.299000", "103203.302000", "103203.305000", "103203.308000", "103203.320000", "103203.323000", "103203.326000", "103203.329000", "103203.332000", "103243.285000", "103243.288000", "103243.291000", "103243.294000", "103243.297000", "103243.308000", "103243.312000", "103243.315000", "103243.318000", "103243.321000", "103243.324000", "103243.327000", "103243.330000", "103243.333000", "103243.336000", "103243.339000", "103243.342000", "103243.345000", "103243.348000", "103243.351000", "103243.354000", "103243.357000", "103243.360000", "103243.363000", "103243.366000", "103243.369000", "103243.372000", "103323.285000", "103323.288000", "103323.291000", "103323.294000", "103323.297000", "103323.300000", "103323.303000", "103323.310000", "103323.313000", "103323.316000", "103323.319000", "103323.322000", "103323.325000", "103323.328000", "103323.331000", "103323.334000", "103323.338000", "103323.340000", "103323.343000", "103323.346000", "103323.349000", "103323.353000", "103323.356000", "103323.359000", "103323.362000", "103323.365000", "103323.368000", "103403.286000", "103403.289000", "103403.292000", "103403.295000", "103403.298000", "103403.301000", "103403.304000", "103403.307000", "103403.311000", "103403.314000", "103403.317000", "103403.320000", "103403.323000", "103403.326000", "103403.329000", "103403.332000", "103403.335000", "103403.338000", "103403.341000", "103403.344000", "103403.347000", "103403.350000", "103403.353000", "103403.356000", "103403.359000", "103403.362000", "103443.299000", "103443.302000", "103443.305000", "103443.309000", "103443.312000", "103443.315000", "103443.318000", "103443.321000", "103443.324000", "103443.327000", "103443.330000", "103443.333000", "103443.336000", "103443.339000", "103443.342000", "103443.345000", "103443.348000", "103443.351000", "103443.354000", "103443.357000", "103443.360000", "103443.363000", "103443.366000", "103443.369000", "103443.372000", "103443.375000", "103443.378000", "103501.997000", "103502.001000", "103502.004000", "103502.008000", "103502.011000", "103502.014000", "103502.017000", "103502.020000", "103502.023000", "103502.026000", "103502.029000", "103502.032000", "103502.035000"],
      "InstanceNumber": [1, 2, 3, 4, 5, 6, 7, 8, 9, 10, 11, 12, 13, 14, 15, 16, 17, 18, 19, 20, 21, 22, 23, 24, 25, 26, 27, 28, 29, 30, 31, 32, 33, 34, 35, 36, 37, 38, 39, 40, 41, 42, 43, 44, 45, 46, 47, 48, 49, 50, 51, 52, 53, 54, 55, 56, 57, 58, 59, 60, 61, 62, 63, 64, 65, 66, 67, 68, 69, 70, 71, 72, 73, 74, 75, 76, 77, 78, 79, 80, 81, 82, 83, 84, 85, 86, 87, 88, 89, 90, 91, 92, 93, 94, 95, 96, 97, 98, 99, 100, 101, 102, 103, 104, 105, 106, 107, 108, 109, 110, 111, 112, 113, 114, 115, 116, 117, 118, 119, 120, 121, 122, 123, 124, 125, 126, 127, 128, 129, 130, 131, 132, 133, 134, 135, 136, 137, 138, 139, 140, 141, 142, 143, 144, 145, 146, 147, 148, 149, 150, 151, 152, 153, 154, 155, 156, 157, 158, 159, 160, 161, 162, 163, 164],
      "LargestImagePixelValue": [2572, 2572, 2506, 2468, 2492, 2468, 2534, 2438, 2481, 2432, 2475, 2477, 2480, 2454, 2470, 2482, 2490, 2497, 2494, 2484, 2466, 2477, 2467, 2477, 2484, 2464, 2486, 2462, 2465, 2492, 2486, 2487, 2449, 2459, 2465, 2472, 2469, 2470, 2538, 2431, 2504, 2436, 2431, 2464, 2454, 2450, 2441, 2461, 2449, 2460, 2441, 2441, 2444, 2466, 2441, 2469, 2446, 2436, 2463, 2445, 2463, 2425, 2433, 2430, 2469, 2444, 2443, 2446, 2444, 2442, 2429, 2422, 2442, 2420, 2444, 2424, 2429, 2424, 2435, 2424, 2423, 2456, 2419, 2437, 2424, 2437, 2448, 2410, 2445, 2419, 2451, 2418, 2448, 2410, 2547, 2409, 2391, 2427, 2402, 2424, 2400, 2423, 2424, 2442, 2414, 2437, 2443, 2449, 2399, 2445, 2447, 2446, 2411, 2417, 2439, 2427, 2441, 2428, 2444, 2432, 2450, 2436, 2457, 2451, 2445, 2469, 2430, 2457, 2453, 2429, 2437, 2440, 2439, 2408, 2457, 2430, 2422, 2415, 2423, 2426, 2419, 2423, 2415, 2414, 2438, 2435, 2427, 2435, 2418, 2461, 2418, 2408, 2428, 2429, 2437, 2436, 2426, 2416, 2429, 2414, 2428, 2418, 2405, 2426],
      "WindowCenter": [711.0, 709.0, 710.0, 710.0, 708.0, 707.0, 708.0, 708.0, 708.0, 709.0, 709.0, 709.0, 709.0, 708.0, 709.0, 709.0, 709.0, 710.0, 709.0, 708.0, 708.0, 708.0, 709.0, 709.0, 710.0, 710.0, 710.0, 709.0, 709.0, 708.0, 708.0, 708.0, 708.0, 709.0, 708.0, 708.0, 708.0, 708.0, 709.0, 709.0, 709.0, 708.0, 708.0, 708.0, 708.0, 707.0, 708.0, 708.0, 708.0, 708.0, 708.0, 708.0, 708.0, 708.0, 708.0, 708.0, 708.0, 708.0, 709.0, 707.0, 707.0, 707.0, 707.0, 707.0, 708.0, 708.0, 708.0, 708.0, 708.0, 708.0, 707.0, 706.0, 707.0, 707.0, 707.0, 707.0, 707.0, 707.0, 707.0, 707.0, 707.0, 707.0, 708.0, 707.0, 707.0, 707.0, 707.0, 707.0, 707.0, 706.0, 706.0, 707.0, 707.0, 706.0, 707.0, 709.0, 707.0, 707.0, 706.0, 706.0, 707.0, 707.0, 707.0, 707.0, 706.0, 706.0, 706.0, 706.0, 706.0, 706.0, 706.0, 707.0, 706.0, 705.0, 705.0, 705.0, 705.0, 705.0, 705.0, 705.0, 704.0, 704.0, 703.0, 704.0, 704.0, 704.0, 706.0, 706.0, 706.0, 706.0, 705.0, 706.0, 706.0, 707.0, 707.0, 707.0, 707.0, 707.0, 707.0, 707.0, 707.0, 707.0, 707.0, 707.0, 707.0, 707.0, 707.0, 707.0, 707.0, 708.0, 707.0, 709.0, 709.0, 708.0, 707.0, 706.0, 706.0, 706.0, 706.0, 707.0, 708.0, 707.0, 707.0, 707.0],
      "WindowWidth": [1539.0, 1534.0, 1536.0, 1535.0, 1530.0, 1528.0, 1532.0, 1530.0, 1531.0, 1533.0, 1534.0, 1534.0, 1535.0, 1532.0, 1533.0, 1534.0, 1534.0, 1536.0, 1535.0, 1532.0, 1530.0, 1532.0, 1533.0, 1534.0, 1536.0, 1536.0, 1535.0, 1535.0, 1534.0, 1532.0, 1531.0, 1531.0, 1531.0, 1532.0, 1532.0, 1531.0, 1530.0, 1531.0, 1535.0, 1534.0, 1534.0, 1531.0, 1530.0, 1530.0, 1531.0, 1529.0, 1530.0, 1530.0, 1530.0, 1531.0, 1530.0, 1530.0, 1531.0, 1530.0, 1531.0, 1531.0, 1531.0, 1532.0, 1533.0, 1528.0, 1528.0, 1527.0, 1529.0, 1530.0, 1531.0, 1530.0, 1532.0, 1531.0, 1532.0, 1530.0, 1528.0, 1527.0, 1527.0, 1528.0, 1530.0, 1528.0, 1529.0, 1529.0, 1528.0, 1527.0, 1529.0, 1529.0, 1530.0, 1529.0, 1527.0, 1527.0, 1527.0, 1528.0, 1529.0, 1527.0, 1527.0, 1528.0, 1528.0, 1527.0, 1529.0, 1534.0, 1529.0, 1528.0, 1526.0, 1527.0, 1528.0, 1529.0, 1529.0, 1528.0, 1527.0, 1525.0, 1525.0, 1526.0, 1526.0, 1526.0, 1526.0, 1527.0, 1525.0, 1524.0, 1524.0, 1523.0, 1524.0, 1523.0, 1523.0, 1523.0, 1521.0, 1520.0, 1519.0, 1519.0, 1520.0, 1521.0, 1525.0, 1526.0, 1525.0, 1525.0, 1524.0, 1525.0, 1527.0, 1528.0, 1528.0, 1528.0, 1528.0, 1529.0, 1529.0, 1529.0, 1529.0, 1528.0, 1529.0, 1529.0, 1528.0, 1529.0, 1529.0, 1529.0, 1530.0, 1530.0, 1529.0, 1534.0, 1533.0, 1530.0, 1528.0, 1526.0, 1526.0, 1526.0, 1527.0, 1529.0, 1531.0, 1529.0, 1529.0, 1528.0]
    },
    "slices": {}
  }
}