{
  "AcquisitionMatrixPE": 72,
  "AcquisitionNumber": 1,
  "AcquisitionTime": "10:50:30.935000",
  "BandwidthPerPixelPhaseEncode": 17.943,
  "BaseResolution": 96,
  "BodyPartExamined": "BRAIN",
  "CoilCombinationMethod": "Sum of Squares",
  "ConsistencyInfo": "N4_VE11C_LATEST_20160120",
  "ConversionSoftware": "dcm2niix",
  "ConversionSoftwareVersion": "v1.0.20211006",
  "DerivedVendorReportedEchoSpacing": 0.000552897,
  "DeviceSerialNumber": "166011",
  "EchoTime": 0.03,
  "EchoTrainLength": 58,
  "EffectiveEchoSpacing": 0.000580542,
  "FlipAngle": 62,
  "ImageOrientationPatientDICOM": [0.99959, -0.0234206, 0.0164559, 0.0251278, 0.99332, -0.112626],
  "ImageType": [
    "ORIGINAL",
    "PRIMARY",
    "M",
    "ND",
    "MOSAIC"
],
  "ImagingFrequency": 123.26,
  "InPlanePhaseEncodingDirectionDICOM": "COL",
  "InstitutionAddress": "West 130th Street 610,NY,NYC,US,10025",
  "InstitutionName": "MBBI",
  "MRAcquisitionType": "2D",
  "MagneticFieldStrength": 3,
  "Manufacturer": "Siemens",
  "ManufacturersModelName": "Prisma",
  "Modality": "MR",
  "MultibandAccelerationFactor": 3,
  "PartialFourier": 0.75,
  "PatientPosition": "HFS",
  "PercentPhaseFOV": 100,
  "PercentSampling": 75,
  "PhaseEncodingDirection": "j-",
  "PhaseEncodingSteps": 58,
  "PhaseOversampling": 0.05,
  "PhaseResolution": 0.75,
  "PixelBandwidth": 2265,
  "ProcedureStepDescription": "White^Word_recognition",
  "ProtocolName": "func_vwfate_run4",
  "PulseSequenceDetails": "%SiemensSeq%\\ep2d_bold",
  "ReceiveCoilActiveElements": "HC1-6",
  "ReceiveCoilName": "HeadNeck_64",
  "ReconMatrixPE": 96,
  "RefLinesPE": 40,
  "RepetitionTime": 1.5,
  "SAR": 0.0463317,
  "ScanOptions": "PFP\\FS",
  "ScanningSequence": "EP",
  "SequenceName": "*epfid2d1_72",
  "SequenceVariant": "SK\\OSP",
  "SeriesDescription": "func_vwfate_run4",
  "SeriesNumber": 12,
  "ShimSetting": [-1143, -1360, 652, 538, -47, -117, -24, 20],
  "SliceThickness": 2,
  "SliceTiming": [1.0775, 0, 0.74, 0.0675, 0.8075, 0.135, 0.875, 0.2025, 0.9425, 0.27, 1.01, 0.405, 1.145, 0.4725, 1.2125, 0.54, 1.28, 0.6075, 1.3475, 0.675, 1.415, 0.3375, 1.0775, 0, 0.74, 0.0675, 0.8075, 0.135, 0.875, 0.2025, 0.9425, 0.27, 1.01, 0.405, 1.145, 0.4725, 1.2125, 0.54, 1.28, 0.6075, 1.3475, 0.675, 1.415, 0.3375, 1.0775, 0, 0.74, 0.0675, 0.8075, 0.135, 0.875, 0.2025, 0.9425, 0.27, 1.01, 0.405, 1.145, 0.4725, 1.2125, 0.54, 1.28, 0.6075, 1.3475, 0.675, 1.415, 0.3375],
  "SoftwareVersions": "syngo MR E11",
  "SpacingBetweenSlices": 2,
  "StationName": "AWP166011",
  "TaskName": "vwfate",
  "TotalReadoutTime": 0.0551515,
  "TxRefAmp": 217.339,
  "dcmmeta_affine": [
    [-1.999180555343628, 0.050255581736564636, 0.027416354045271873, 97.20365142822266],
    [0.04684118181467056, 1.986639380455017, -0.22598682343959808, -77.7950668334961],
    [0.0329117551445961, 0.22525212168693542, 1.9870022535324097, -74.20406341552734],
    [0.0, 0.0, 0.0, 1.0]
],
  "dcmmeta_reorient_transform": [
    [0.0, -1.0, 0.0, 95.0],
    [1.0, 0.0, 0.0, 0.0],
    [0.0, 0.0, 1.0, 0.0],
    [0.0, 0.0, 0.0, 1.0]
],
  "dcmmeta_shape": [96, 96, 66, 164],
  "dcmmeta_slice_dim": 2,
  "dcmmeta_version": 0.6,
  "global": {
    "const": {
      "AcquisitionMatrix": [96, 0, 0, 72],
      "AngioFlag": "N",
      "BitsAllocated": 16,
      "BitsStored": 12,
      "BodyPartExamined": "BRAIN",
      "Columns": 864,
      "EchoNumbers": 1,
      "EchoTime": 30.0,
      "EchoTrainLength": 58,
      "FlipAngle": 62.0,
      "HighBit": 11,
      "ImageOrientationPatient": [0.99959025606695, -0.0234205908023, 0.01645587744476, 0.02512779013937, 0.99331966867557, -0.1126260626364],
      "ImagePositionPatient": [-888.96139313342, -855.81816262695, 21.053591122486],
      "ImageType": [
        "ORIGINAL",
        "PRIMARY",
        "M",
        "ND",
        "MOSAIC"
],
      "ImagedNucleus": "1H",
      "ImagingFrequency": 123.259537,
      "InPlanePhaseEncodingDirection": "COL",
      "MRAcquisitionType": "2D",
      "MagneticFieldStrength": 3.0,
      "Manufacturer": "SIEMENS",
      "ManufacturerModelName": "Prisma",
      "Modality": "MR",
      "NumberOfAverages": 1.0,
      "NumberOfPhaseEncodingSteps": 58,
      "PercentPhaseFieldOfView": 100.0,
      "PercentSampling": 75.0,
      "PerformedProcedureStepStartTime": "100137.435000",
      "PhotometricInterpretation": "MONOCHROME2",
      "PixelBandwidth": 2265.0,
      "PixelRepresentation": 0,
      "PixelSpacing": [2.0, 2.0],
      "ProtocolName": "func_vwfate_run4",
      "RepetitionTime": 1500.0,
      "Rows": 864,
      "SAR": 0.04633170319587,
      "SamplesPerPixel": 1,
      "ScanOptions": [
        "PFP",
        "FS"
],
      "ScanningSequence": "EP",
      "SequenceName": "*epfid2d1_72",
      "SequenceVariant": [
        "SK",
        "OSP"
],
      "SeriesDescription": "func_vwfate_run4",
      "SeriesNumber": 12,
      "SeriesTime": "105103.287000",
      "SliceLocation": -63.599008249609,
      "SliceThickness": 2.0,
      "SmallestImagePixelValue": 0,
      "SoftwareVersions": "syngo MR E11",
      "SpacingBetweenSlices": 1.9999999321199,
      "SpecificCharacterSet": "ISO_IR 100",
      "StudyID": "1",
      "StudyTime": "100137.340000",
      "TransmitCoilName": "Body",
      "VariableFlipAngleFlag": "N",
      "WindowCenterWidthExplanation": "Algo1",
      "dBdt": 0.0},
    "slices": {}
  },
  "time": {
    "samples": {
      "AcquisitionNumber": [1, 2, 3, 4, 5, 6, 7, 8, 9, 10, 11, 12, 13, 14, 15, 16, 17, 18, 19, 20, 21, 22, 23, 24, 25, 26, 27, 28, 29, 30, 31, 32, 33, 34, 35, 36, 37, 38, 39, 40, 41, 42, 43, 44, 45, 46, 47, 48, 49, 50, 51, 52, 53, 54, 55, 56, 57, 58, 59, 60, 61, 62, 63, 64, 65, 66, 67, 68, 69, 70, 71, 72, 73, 74, 75, 76, 77, 78, 79, 80, 81, 82, 83, 84, 85, 86, 87, 88, 89, 90, 91, 92, 93, 94, 95, 96, 97, 98, 99, 100, 101, 102, 103, 104, 105, 106, 107, 108, 109, 110, 111, 112, 113, 114, 115, 116, 117, 118, 119, 120, 121, 122, 123, 124, 125, 126, 127, 128, 129, 130, 131, 132, 133, 134, 135, 136, 137, 138, 139, 140, 141, 142, 143, 144, 145, 146, 147, 148, 149, 150, 151, 152, 153, 154, 155, 156, 157, 158, 159, 160, 161, 162, 163, 164],
      "AcquisitionTime": ["105030.935000", "105032.435000", "105033.935000", "105035.435000", "105036.935000", "105038.435000", "105039.935000", "105041.435000", "105042.935000", "105044.435000", "105045.935000", "105047.435000", "105048.935000", "105050.435000", "105051.935000", "105053.435000", "105054.935000", "105056.435000", "105057.935000", "105059.435000", "105100.935000", "105102.435000", "105103.935000", "105105.435000", "105106.935000", "105108.435000", "105109.935000", "105111.435000", "105112.935000", "105114.435000", "105115.935000", "105117.435000", "105118.935000", "105120.435000", "105121.935000", "105123.435000", "105124.935000", "105126.435000", "105127.935000", "105129.435000", "105130.935000", "105132.435000", "105133.935000", "105135.435000", "105136.935000", "105138.435000", "105139.935000", "105141.435000", "105142.935000", "105144.435000", "105145.935000", "105147.435000", "105148.935000", "105150.435000", "105151.935000", "105153.435000", "105154.935000", "105156.435000", "105157.935000", "105159.435000", "105200.935000", "105202.435000", "105203.935000", "105205.435000", "105206.935000", "105208.435000", "105209.935000", "105211.435000", "105212.935000", "105214.435000", "105215.935000", "105217.435000", "105218.935000", "105220.435000", "105221.935000", "105223.435000", "105224.935000", "105226.435000", "105227.935000", "105229.435000", "105230.935000", "105232.435000", "105233.935000", "105235.435000", "105236.935000", "105238.435000", "105239.935000", "105241.435000", "105242.935000", "105244.435000", "105245.935000", "105247.435000", "105248.935000", "105250.435000", "105251.935000", "105253.435000", "105254.935000", "105256.435000", "105257.935000", "105259.435000", "105300.935000", "105302.435000", "105303.935000", "105305.435000", "105306.935000", "105308.435000", "105309.935000", "105311.435000", "105312.935000", "105314.435000", "105315.935000", "105317.435000", "105318.935000", "105320.435000", "105321.935000", "105323.435000", "105324.935000", "105326.435000", "105327.935000", "105329.435000", "105330.935000", "105332.435000", "105333.935000", "105335.435000", "105336.935000", "105338.435000", "105339.935000", "105341.435000", "105342.935000", "105344.435000", "105345.935000", "105347.435000", "105348.935000", "105350.435000", "105351.935000", "105353.435000", "105354.935000", "105356.435000", "105357.935000", "105359.435000", "105400.935000", "105402.435000", "105403.935000", "105405.435000", "105406.935000", "105408.435000", "105409.935000", "105411.435000", "105412.935000", "105414.435000", "105415.935000", "105417.435000", "105418.935000", "105420.435000", "105421.935000", "105423.435000", "105424.935000", "105426.435000", "105427.935000", "105429.435000", "105430.935000", "105432.435000", "105433.935000", "105435.435000"],
      "ContentTime": ["105103.291000", "105103.295000", "105103.298000", "105103.301000", "105103.304000", "105103.307000", "105103.310000", "105103.318000", "105103.321000", "105103.324000", "105103.327000", "105103.331000", "105103.334000", "105103.337000", "105103.340000", "105103.343000", "105103.351000", "105103.354000", "105103.357000", "105103.360000", "105103.363000", "105143.285000", "105143.288000", "105143.303000", "105143.306000", "105143.309000", "105143.312000", "105143.315000", "105143.318000", "105143.321000", "105143.325000", "105143.327000", "105143.330000", "105143.333000", "105143.336000", "105143.339000", "105143.342000", "105143.346000", "105143.349000", "105143.352000", "105143.355000", "105143.357000", "105143.361000", "105143.364000", "105143.367000", "105143.370000", "105143.373000", "105143.376000", "105203.285000", "105203.288000", "105203.291000", "105203.294000", "105203.297000", "105203.300000", "105203.303000", "105203.306000", "105203.309000", "105203.312000", "105203.315000", "105203.318000", "105203.321000", "105243.286000", "105243.289000", "105243.292000", "105243.295000", "105243.298000", "105243.301000", "105243.304000", "105243.307000", "105243.310000", "105243.313000", "105243.316000", "105243.319000", "105243.322000", "105243.325000", "105243.328000", "105243.331000", "105243.334000", "105243.337000", "105243.340000", "105243.343000", "105243.346000", "105243.349000", "105243.352000", "105243.355000", "105243.358000", "105243.361000", "105243.377000", "105323.286000", "105323.289000", "105323.292000", "105323.295000", "105323.298000", "105323.301000", "105323.304000", "105323.307000", "105323.310000", "105323.313000", "105323.316000", "105323.319000", "105323.322000", "105323.325000", "105323.328000", "105323.331000", "105323.334000", "105323.337000", "105323.340000", "105323.343000", "105323.346000", "105323.349000", "105323.352000", "105323.355000", "105323.358000", "105323.361000", "105323.364000", "105403.285000", "105403.288000", "105403.291000", "105403.294000", "105403.297000", "105403.300000", "105403.303000", "105403.306000", "105403.309000", "105403.312000", "105403.315000", "105403.318000", "105403.321000", "105403.325000", "105403.329000", "105403.332000", "105403.335000", "105403.338000", "105403.341000", "105403.344000", "105403.347000", "105403.350000", "105403.353000", "105403.356000", "105403.359000", "105403.362000", "105436.579000", "105436.583000", "105436.586000", "105436.589000", "105436.592000", "105436.595000", "105436.598000", "105436.601000", "105436.604000", "105436.607000", "105436.610000", "105436.614000", "105436.617000", "105436.620000", "105436.623000", "105436.626000", "105436.630000", "105436.633000", "105436.636000", "105436.639000", "105436.642000", "105436.645000", "105436.648000"],
      "InstanceCreationTime": ["105103.291000", "105103.295000", "105103.298000", "105103.301000", "105103.304000", "105103.307000", "105103.310000", "105103.318000", "105103.321000", "105103.324000", "105103.327000", "105103.331000", "105103.334000", "105103.337000", "105103.340000", "105103.343000", "105103.351000", "105103.354000", "105103.357000", "105103.360000", "105103.363000", "105143.285000", "105143.288000", "105143.303000", "105143.306000", "105143.309000", "105143.312000", "105143.315000", "105143.318000", "105143.321000", "105143.325000", "105143.327000", "105143.330000", "105143.333000", "105143.336000", "105143.339000", "105143.342000", "105143.346000", "105143.349000", "105143.352000", "105143.355000", "105143.357000", "105143.361000", "105143.364000", "105143.367000", "105143.370000", "105143.373000", "105143.376000", "105203.285000", "105203.288000", "105203.291000", "105203.294000", "105203.297000", "105203.300000", "105203.303000", "105203.306000", "105203.309000", "105203.312000", "105203.315000", "105203.318000", "105203.321000", "105243.286000", "105243.289000", "105243.292000", "105243.295000", "105243.298000", "105243.301000", "105243.304000", "105243.307000", "105243.310000", "105243.313000", "105243.316000", "105243.319000", "105243.322000", "105243.325000", "105243.328000", "105243.331000", "105243.334000", "105243.337000", "105243.340000", "105243.343000", "105243.346000", "105243.349000", "105243.352000", "105243.355000", "105243.358000", "105243.361000", "105243.377000", "105323.286000", "105323.289000", "105323.292000", "105323.295000", "105323.298000", "105323.301000", "105323.304000", "105323.307000", "105323.310000", "105323.313000", "105323.316000", "105323.319000", "105323.322000", "105323.325000", "105323.328000", "105323.331000", "105323.334000", "105323.337000", "105323.340000", "105323.343000", "105323.346000", "105323.349000", "105323.352000", "105323.355000", "105323.358000", "105323.361000", "105323.364000", "105403.285000", "105403.288000", "105403.291000", "105403.294000", "105403.297000", "105403.300000", "105403.303000", "105403.306000", "105403.309000", "105403.312000", "105403.315000", "105403.318000", "105403.321000", "105403.325000", "105403.329000", "105403.332000", "105403.335000", "105403.338000", "105403.341000", "105403.344000", "105403.347000", "105403.350000", "105403.353000", "105403.356000", "105403.359000", "105403.362000", "105436.579000", "105436.583000", "105436.586000", "105436.589000", "105436.592000", "105436.595000", "105436.598000", "105436.601000", "105436.604000", "105436.607000", "105436.610000", "105436.614000", "105436.617000", "105436.620000", "105436.623000", "105436.626000", "105436.630000", "105436.633000", "105436.636000", "105436.639000", "105436.642000", "105436.645000", "105436.648000"],
      "InstanceNumber": [1, 2, 3, 4, 5, 6, 7, 8, 9, 10, 11, 12, 13, 14, 15, 16, 17, 18, 19, 20, 21, 22, 23, 24, 25, 26, 27, 28, 29, 30, 31, 32, 33, 34, 35, 36, 37, 38, 39, 40, 41, 42, 43, 44, 45, 46, 47, 48, 49, 50, 51, 52, 53, 54, 55, 56, 57, 58, 59, 60, 61, 62, 63, 64, 65, 66, 67, 68, 69, 70, 71, 72, 73, 74, 75, 76, 77, 78, 79, 80, 81, 82, 83, 84, 85, 86, 87, 88, 89, 90, 91, 92, 93, 94, 95, 96, 97, 98, 99, 100, 101, 102, 103, 104, 105, 106, 107, 108, 109, 110, 111, 112, 113, 114, 115, 116, 117, 118, 119, 120, 121, 122, 123, 124, 125, 126, 127, 128, 129, 130, 131, 132, 133, 134, 135, 136, 137, 138, 139, 140, 141, 142, 143, 144, 145, 146, 147, 148, 149, 150, 151, 152, 153, 154, 155, 156, 157, 158, 159, 160, 161, 162, 163, 164],
      "LargestImagePixelValue": [2661, 2572, 2599, 2557, 2561, 2536, 2574, 2562, 2592, 2611, 2620, 2596, 2605, 2595, 2602, 2546, 2596, 2585, 2617, 2599, 2599, 2524, 2592, 2581, 2633, 2591, 2611, 2575, 2572, 2587, 2598, 2602, 2564, 2602, 2597, 2555, 2553, 2566, 2534, 2564, 2565, 2600, 2564, 2551, 2550, 2511, 2532, 2529, 2562, 2565, 2568, 2549, 2559, 2534, 2534, 2497, 2510, 2794, 2624, 2572, 2543, 2489, 2497, 2484, 2475, 2500, 2470, 2479, 2474, 2481, 2476, 2508, 2475, 2501, 2482, 2502, 2513, 2497, 2505, 2507, 2518, 2504, 2483, 2491, 2500, 2499, 2493, 2484, 2482, 2510, 2504, 2508, 2492, 2533, 2493, 2524, 2497, 2482, 2526, 2529, 2554, 2499, 2462, 2499, 2479, 2496, 2491, 2505, 2513, 2499, 2503, 2503, 2501, 2489, 2477, 2481, 2512, 2475, 2495, 2458, 2516, 2464, 2531, 2461, 2508, 2467, 2471, 2479, 2464, 2484, 2462, 2498, 2503, 2515, 2486, 2543, 2531, 2535, 2463, 2473, 2484, 2506, 2498, 2502, 2472, 2474, 2525, 2752, 2636, 2551, 2529, 2536, 2534, 2541, 2504, 2528, 2547, 2604, 2608, 2560, 2594, 2524, 2552, 2563],
      "WindowCenter": [710.0, 709.0, 708.0, 708.0, 708.0, 708.0, 709.0, 710.0, 711.0, 710.0, 711.0, 710.0, 710.0, 710.0, 710.0, 709.0, 710.0, 710.0, 710.0, 709.0, 709.0, 709.0, 710.0, 710.0, 710.0, 710.0, 710.0, 709.0, 709.0, 708.0, 709.0, 709.0, 708.0, 709.0, 709.0, 709.0, 708.0, 708.0, 709.0, 709.0, 711.0, 712.0, 710.0, 709.0, 708.0, 708.0, 709.0, 709.0, 709.0, 709.0, 710.0, 709.0, 709.0, 709.0, 709.0, 709.0, 709.0, 705.0, 710.0, 708.0, 707.0, 706.0, 706.0, 705.0, 704.0, 704.0, 704.0, 704.0, 704.0, 704.0, 705.0, 705.0, 706.0, 707.0, 707.0, 706.0, 707.0, 707.0, 707.0, 707.0, 707.0, 707.0, 707.0, 707.0, 707.0, 708.0, 708.0, 708.0, 707.0, 708.0, 707.0, 707.0, 707.0, 707.0, 707.0, 707.0, 707.0, 707.0, 709.0, 708.0, 707.0, 706.0, 706.0, 706.0, 706.0, 706.0, 706.0, 707.0, 706.0, 707.0, 706.0, 707.0, 706.0, 706.0, 706.0, 706.0, 707.0, 706.0, 706.0, 706.0, 706.0, 706.0, 707.0, 706.0, 706.0, 705.0, 706.0, 706.0, 706.0, 706.0, 706.0, 706.0, 707.0, 707.0, 706.0, 706.0, 706.0, 706.0, 706.0, 706.0, 706.0, 707.0, 707.0, 707.0, 706.0, 707.0, 708.0, 707.0, 708.0, 707.0, 704.0, 704.0, 704.0, 703.0, 704.0, 704.0, 701.0, 701.0, 702.0, 702.0, 704.0, 705.0, 706.0, 706.0],
      "WindowWidth": [1539.0, 1534.0, 1533.0, 1531.0, 1531.0, 1532.0, 1534.0, 1537.0, 1539.0, 1538.0, 1539.0, 1538.0, 1537.0, 1536.0, 1537.0, 1535.0, 1536.0, 1536.0, 1536.0, 1535.0, 1534.0, 1535.0, 1537.0, 1537.0, 1538.0, 1537.0, 1536.0, 1535.0, 1534.0, 1532.0, 1534.0, 1534.0, 1532.0, 1533.0, 1535.0, 1533.0, 1532.0, 1533.0, 1535.0, 1536.0, 1539.0, 1542.0, 1535.0, 1534.0, 1533.0, 1531.0, 1533.0, 1534.0, 1535.0, 1535.0, 1536.0, 1536.0, 1535.0, 1534.0, 1534.0, 1534.0, 1534.0, 1523.0, 1536.0, 1530.0, 1529.0, 1527.0, 1525.0, 1522.0, 1521.0, 1520.0, 1522.0, 1521.0, 1522.0, 1521.0, 1522.0, 1525.0, 1526.0, 1528.0, 1527.0, 1527.0, 1529.0, 1528.0, 1530.0, 1530.0, 1529.0, 1528.0, 1528.0, 1529.0, 1529.0, 1530.0, 1531.0, 1531.0, 1529.0, 1531.0, 1530.0, 1529.0, 1529.0, 1529.0, 1529.0, 1529.0, 1529.0, 1529.0, 1535.0, 1530.0, 1528.0, 1526.0, 1526.0, 1527.0, 1525.0, 1526.0, 1527.0, 1528.0, 1526.0, 1527.0, 1527.0, 1527.0, 1527.0, 1526.0, 1527.0, 1527.0, 1527.0, 1526.0, 1527.0, 1525.0, 1527.0, 1526.0, 1528.0, 1526.0, 1526.0, 1524.0, 1525.0, 1525.0, 1525.0, 1527.0, 1527.0, 1527.0, 1528.0, 1529.0, 1527.0, 1527.0, 1527.0, 1527.0, 1525.0, 1526.0, 1527.0, 1528.0, 1527.0, 1528.0, 1527.0, 1528.0, 1531.0, 1528.0, 1530.0, 1527.0, 1521.0, 1520.0, 1520.0, 1517.0, 1519.0, 1519.0, 1513.0, 1513.0, 1515.0, 1516.0, 1519.0, 1522.0, 1525.0, 1525.0]
    },
    "slices": {}
  }
}