{
  "AcquisitionMatrixPE": 72,
  "AcquisitionNumber": 1,
  "AcquisitionTime": "11:46:15.547500",
  "BandwidthPerPixelPhaseEncode": 17.943,
  "BaseResolution": 96,
  "BodyPartExamined": "BRAIN",
  "CoilCombinationMethod": "Sum of Squares",
  "ConsistencyInfo": "N4_VE11C_LATEST_20160120",
  "ConversionSoftware": "dcm2niix",
  "ConversionSoftwareVersion": "v1.0.20211006",
  "DerivedVendorReportedEchoSpacing": 0.000552897,
  "DeviceSerialNumber": "166011",
  "EchoTime": 0.03,
  "EchoTrainLength": 58,
  "EffectiveEchoSpacing": 0.000580542,
  "FlipAngle": 62,
  "ImageOrientationPatientDICOM": [0.9959, -0.0498754, 0.0754694, 0.053936, 0.99715, -0.0527585],
  "ImageType": [
    "ORIGINAL",
    "PRIMARY",
    "M",
    "ND",
    "MOSAIC"
],
  "ImagingFrequency": 123.26,
  "InPlanePhaseEncodingDirectionDICOM": "COL",
  "InstitutionAddress": "West 130th Street 610,NY,NYC,US,10025",
  "InstitutionName": "MBBI",
  "MRAcquisitionType": "2D",
  "MagneticFieldStrength": 3,
  "Manufacturer": "Siemens",
  "ManufacturersModelName": "Prisma",
  "Modality": "MR",
  "MultibandAccelerationFactor": 3,
  "PartialFourier": 0.75,
  "PatientPosition": "HFS",
  "PercentPhaseFOV": 100,
  "PercentSampling": 75,
  "PhaseEncodingDirection": "j-",
  "PhaseEncodingSteps": 58,
  "PhaseOversampling": 0.05,
  "PhaseResolution": 0.75,
  "PixelBandwidth": 2265,
  "ProcedureStepDescription": "White^Word_recognition",
  "ProtocolName": "func_language_run2",
  "PulseSequenceDetails": "%SiemensSeq%\\ep2d_bold",
  "ReceiveCoilActiveElements": "HC1-7",
  "ReceiveCoilName": "HeadNeck_64",
  "ReconMatrixPE": 96,
  "RefLinesPE": 40,
  "RepetitionTime": 1.5,
  "SAR": 0.050035,
  "ScanOptions": "PFP\\FS",
  "ScanningSequence": "EP",
  "SequenceName": "*epfid2d1_72",
  "SequenceVariant": "SK\\OSP",
  "SeriesDescription": "func_language_run2",
  "SeriesNumber": 12,
  "ShimSetting": [-1127, -1339, 617, 497, -102, -97, -96, 8],
  "SliceThickness": 2,
  "SliceTiming": [1.075, 0, 0.74, 0.0675, 0.8075, 0.135, 0.875, 0.2, 0.94, 0.2675, 1.0075, 0.4025, 1.1425, 0.47, 1.21, 0.5375, 1.2775, 0.605, 1.345, 0.6725, 1.4125, 0.335, 1.075, 0, 0.74, 0.0675, 0.8075, 0.135, 0.875, 0.2, 0.94, 0.2675, 1.0075, 0.4025, 1.1425, 0.47, 1.21, 0.5375, 1.2775, 0.605, 1.345, 0.6725, 1.4125, 0.335, 1.075, 0, 0.74, 0.0675, 0.8075, 0.135, 0.875, 0.2, 0.94, 0.2675, 1.0075, 0.4025, 1.1425, 0.47, 1.21, 0.5375, 1.2775, 0.605, 1.345, 0.6725, 1.4125, 0.335],
  "SoftwareVersions": "syngo MR E11",
  "SpacingBetweenSlices": 2,
  "StationName": "AWP166011",
  "TaskName": "langLoc",
  "TotalReadoutTime": 0.0551515,
  "TxRefAmp": 228.922,
  "dcmmeta_affine": [
    [-1.99180006980896, 0.10787205398082733, 0.1452457755804062, 90.1200942993164],
    [0.09975080192089081, 1.994299292564392, -0.11322541534900665, -70.49951171875],
    [0.1509387046098709, 0.10551699995994568, 1.9915028810501099, -80.04084014892578],
    [0.0, 0.0, 0.0, 1.0]
],
  "dcmmeta_reorient_transform": [
    [0.0, -1.0, 0.0, 95.0],
    [1.0, 0.0, 0.0, 0.0],
    [0.0, 0.0, 1.0, 0.0],
    [0.0, 0.0, 0.0, 1.0]
],
  "dcmmeta_shape": [96, 96, 66, 239],
  "dcmmeta_slice_dim": 2,
  "dcmmeta_version": 0.6,
  "global": {
    "const": {
      "AcquisitionMatrix": [96, 0, 0, 72],
      "AngioFlag": "N",
      "BitsAllocated": 16,
      "BitsStored": 12,
      "BodyPartExamined": "BRAIN",
      "Columns": 864,
      "EchoNumbers": 1,
      "EchoTime": 30.0,
      "EchoTrainLength": 58,
      "FlipAngle": 62.0,
      "HighBit": 11,
      "ImageOrientationPatient": [0.99590000584782, -0.0498754000093, 0.0754693502439, 0.05393602520569, 0.99714966078287, -0.0527584987051],
      "ImagePositionPatient": [-906.6420107149, -846.46555304424, -87.458662545955],
      "ImageType": [
        "ORIGINAL",
        "PRIMARY",
        "M",
        "ND",
        "MOSAIC"
],
      "ImagedNucleus": "1H",
      "ImagingFrequency": 123.259568,
      "InPlanePhaseEncodingDirection": "COL",
      "MRAcquisitionType": "2D",
      "MagneticFieldStrength": 3.0,
      "Manufacturer": "SIEMENS",
      "ManufacturerModelName": "Prisma",
      "Modality": "MR",
      "NumberOfAverages": 1.0,
      "NumberOfPhaseEncodingSteps": 58,
      "PercentPhaseFieldOfView": 100.0,
      "PercentSampling": 75.0,
      "PerformedProcedureStepStartTime": "105023.238000",
      "PhotometricInterpretation": "MONOCHROME2",
      "PixelBandwidth": 2265.0,
      "PixelRepresentation": 0,
      "PixelSpacing": [2.0, 2.0],
      "ProtocolName": "func_language_run2",
      "RepetitionTime": 1500.0,
      "Rows": 864,
      "SAR": 0.05003498657506,
      "SamplesPerPixel": 1,
      "ScanOptions": [
        "PFP",
        "FS"
],
      "ScanningSequence": "EP",
      "SequenceName": "*epfid2d1_72",
      "SequenceVariant": [
        "SK",
        "OSP"
],
      "SeriesDescription": "func_language_run2",
      "SeriesNumber": 12,
      "SeriesTime": "114704.731000",
      "SliceLocation": -69.164834902441,
      "SliceThickness": 2.0,
      "SmallestImagePixelValue": 0,
      "SoftwareVersions": "syngo MR E11",
      "SpacingBetweenSlices": 2.0000000408755,
      "SpecificCharacterSet": "ISO_IR 100",
      "StudyID": "3",
      "StudyTime": "105023.082000",
      "TransmitCoilName": "Body",
      "VariableFlipAngleFlag": "N",
      "WindowCenterWidthExplanation": "Algo1",
      "dBdt": 0.0},
    "slices": {}
  },
  "time": {
    "samples": {
      "AcquisitionNumber": [1, 2, 3, 4, 5, 6, 7, 8, 9, 10, 11, 12, 13, 14, 15, 16, 17, 18, 19, 20, 21, 22, 23, 24, 25, 26, 27, 28, 29, 30, 31, 32, 33, 34, 35, 36, 37, 38, 39, 40, 41, 42, 43, 44, 45, 46, 47, 48, 49, 50, 51, 52, 53, 54, 55, 56, 57, 58, 59, 60, 61, 62, 63, 64, 65, 66, 67, 68, 69, 70, 71, 72, 73, 74, 75, 76, 77, 78, 79, 80, 81, 82, 83, 84, 85, 86, 87, 88, 89, 90, 91, 92, 93, 94, 95, 96, 97, 98, 99, 100, 101, 102, 103, 104, 105, 106, 107, 108, 109, 110, 111, 112, 113, 114, 115, 116, 117, 118, 119, 120, 121, 122, 123, 124, 125, 126, 127, 128, 129, 130, 131, 132, 133, 134, 135, 136, 137, 138, 139, 140, 141, 142, 143, 144, 145, 146, 147, 148, 149, 150, 151, 152, 153, 154, 155, 156, 157, 158, 159, 160, 161, 162, 163, 164, 165, 166, 167, 168, 169, 170, 171, 172, 173, 174, 175, 176, 177, 178, 179, 180, 181, 182, 183, 184, 185, 186, 187, 188, 189, 190, 191, 192, 193, 194, 195, 196, 197, 198, 199, 200, 201, 202, 203, 204, 205, 206, 207, 208, 209, 210, 211, 212, 213, 214, 215, 216, 217, 218, 219, 220, 221, 222, 223, 224, 225, 226, 227, 228, 229, 230, 231, 232, 233, 234, 235, 236, 237, 238, 239],
      "AcquisitionTime": ["114615.547500", "114617.047500", "114618.547500", "114620.047500", "114621.547500", "114623.047500", "114624.547500", "114626.047500", "114627.547500", "114629.047500", "114630.547500", "114632.047500", "114633.547500", "114635.047500", "114636.547500", "114638.047500", "114639.547500", "114641.047500", "114642.547500", "114644.047500", "114645.547500", "114647.047500", "114648.547500", "114650.047500", "114651.547500", "114653.047500", "114654.547500", "114656.047500", "114657.547500", "114659.047500", "114700.547500", "114702.047500", "114703.547500", "114705.047500", "114706.547500", "114708.047500", "114709.547500", "114711.047500", "114712.547500", "114714.047500", "114715.547500", "114717.047500", "114718.547500", "114720.047500", "114721.547500", "114723.047500", "114724.547500", "114726.047500", "114727.547500", "114729.047500", "114730.547500", "114732.047500", "114733.547500", "114735.047500", "114736.547500", "114738.047500", "114739.547500", "114741.047500", "114742.547500", "114744.047500", "114745.547500", "114747.047500", "114748.547500", "114750.047500", "114751.547500", "114753.047500", "114754.547500", "114756.047500", "114757.547500", "114759.047500", "114800.547500", "114802.047500", "114803.547500", "114805.047500", "114806.547500", "114808.047500", "114809.547500", "114811.047500", "114812.547500", "114814.047500", "114815.547500", "114817.047500", "114818.547500", "114820.047500", "114821.547500", "114823.047500", "114824.547500", "114826.047500", "114827.547500", "114829.047500", "114830.547500", "114832.047500", "114833.547500", "114835.047500", "114836.547500", "114838.047500", "114839.547500", "114841.047500", "114842.547500", "114844.047500", "114845.547500", "114847.047500", "114848.547500", "114850.047500", "114851.547500", "114853.047500", "114854.547500", "114856.047500", "114857.547500", "114859.047500", "114900.547500", "114902.047500", "114903.547500", "114905.047500", "114906.547500", "114908.047500", "114909.547500", "114911.047500", "114912.547500", "114914.047500", "114915.547500", "114917.047500", "114918.547500", "114920.047500", "114921.547500", "114923.047500", "114924.547500", "114926.047500", "114927.547500", "114929.047500", "114930.547500", "114932.047500", "114933.547500", "114935.047500", "114936.547500", "114938.047500", "114939.547500", "114941.047500", "114942.547500", "114944.047500", "114945.547500", "114947.047500", "114948.547500", "114950.047500", "114951.547500", "114953.047500", "114954.547500", "114956.047500", "114957.547500", "114959.047500", "115000.547500", "115002.047500", "115003.547500", "115005.047500", "115006.547500", "115008.047500", "115009.547500", "115011.047500", "115012.547500", "115014.047500", "115015.547500", "115017.047500", "115018.547500", "115020.047500", "115021.547500", "115023.047500", "115024.547500", "115026.047500", "115027.547500", "115029.047500", "115030.547500", "115032.047500", "115033.547500", "115035.047500", "115036.547500", "115038.047500", "115039.547500", "115041.047500", "115042.547500", "115044.047500", "115045.547500", "115047.047500", "115048.547500", "115050.047500", "115051.547500", "115053.047500", "115054.547500", "115056.047500", "115057.547500", "115059.047500", "115100.547500", "115102.047500", "115103.547500", "115105.047500", "115106.547500", "115108.047500", "115109.547500", "115111.047500", "115112.547500", "115114.047500", "115115.547500", "115117.047500", "115118.547500", "115120.047500", "115121.547500", "115123.047500", "115124.547500", "115126.047500", "115127.547500", "115129.047500", "115130.547500", "115132.047500", "115133.547500", "115135.047500", "115136.547500", "115138.047500", "115139.547500", "115141.047500", "115142.547500", "115144.047500", "115145.547500", "115147.047500", "115148.547500", "115150.047500", "115151.547500", "115153.047500", "115154.547500", "115156.047500", "115157.547500", "115159.047500", "115200.547500", "115202.047500", "115203.547500", "115205.047500", "115206.547500", "115208.047500", "115209.547500", "115211.047500", "115212.547500"],
      "ContentTime": ["114704.735000", "114704.739000", "114704.742000", "114704.745000", "114704.748000", "114704.763000", "114704.766000", "114704.769000", "114704.772000", "114704.775000", "114704.778000", "114704.781000", "114704.784000", "114704.786000", "114704.790000", "114704.793000", "114704.796000", "114704.799000", "114704.804000", "114704.807000", "114704.810000", "114704.813000", "114704.816000", "114704.819000", "114704.822000", "114704.825000", "114704.828000", "114704.831000", "114704.834000", "114704.837000", "114704.840000", "114704.843000", "114744.728000", "114744.731000", "114744.734000", "114744.737000", "114744.740000", "114744.743000", "114744.746000", "114744.749000", "114744.752000", "114744.755000", "114744.758000", "114744.773000", "114744.776000", "114744.779000", "114744.782000", "114744.785000", "114744.788000", "114744.791000", "114744.794000", "114744.797000", "114744.800000", "114744.803000", "114744.805000", "114744.808000", "114744.811000", "114744.814000", "114744.817000", "114824.728000", "114824.731000", "114824.734000", "114824.737000", "114824.740000", "114824.743000", "114824.746000", "114824.749000", "114824.752000", "114824.755000", "114824.758000", "114824.761000", "114824.764000", "114824.766000", "114824.769000", "114824.772000", "114824.775000", "114824.778000", "114824.781000", "114824.784000", "114824.787000", "114824.790000", "114824.793000", "114824.796000", "114824.799000", "114824.802000", "114824.805000", "114904.729000", "114904.732000", "114904.735000", "114904.738000", "114904.741000", "114904.744000", "114904.747000", "114904.750000", "114904.753000", "114904.756000", "114904.759000", "114904.762000", "114904.765000", "114904.768000", "114904.771000", "114904.774000", "114904.777000", "114904.780000", "114904.783000", "114904.785000", "114904.788000", "114904.791000", "114904.794000", "114904.797000", "114904.800000", "114904.803000", "114944.737000", "114944.740000", "114944.743000", "114944.746000", "114944.749000", "114944.752000", "114944.755000", "114944.758000", "114944.761000", "114944.764000", "114944.767000", "114944.770000", "114944.773000", "114944.776000", "114944.779000", "114944.782000", "114944.784000", "114944.787000", "114944.790000", "114944.793000", "114944.796000", "114944.799000", "114944.802000", "114944.805000", "114944.821000", "114944.824000", "114944.827000", "115024.728000", "115024.731000", "115024.734000", "115024.737000", "115024.740000", "115024.743000", "115024.746000", "115024.749000", "115024.753000", "115024.756000", "115024.759000", "115024.762000", "115024.765000", "115024.768000", "115024.770000", "115024.774000", "115024.777000", "115024.780000", "115024.782000", "115024.786000", "115024.789000", "115024.791000", "115024.794000", "115024.797000", "115024.800000", "115024.803000", "115024.806000", "115104.728000", "115104.731000", "115104.734000", "115104.737000", "115104.740000", "115104.743000", "115104.746000", "115104.749000", "115104.752000", "115104.755000", "115104.758000", "115104.761000", "115104.764000", "115104.767000", "115104.770000", "115104.773000", "115104.776000", "115104.779000", "115104.782000", "115104.785000", "115104.787000", "115104.790000", "115104.793000", "115104.796000", "115104.799000", "115104.802000", "115124.729000", "115124.732000", "115124.735000", "115124.738000", "115124.741000", "115124.744000", "115124.747000", "115124.750000", "115124.753000", "115124.756000", "115124.759000", "115124.762000", "115124.765000", "115124.768000", "115204.729000", "115204.732000", "115204.735000", "115204.738000", "115204.741000", "115204.744000", "115204.747000", "115204.750000", "115204.753000", "115204.756000", "115204.759000", "115204.762000", "115204.765000", "115204.768000", "115204.771000", "115204.774000", "115204.777000", "115204.780000", "115204.783000", "115204.786000", "115204.789000", "115204.792000", "115204.795000", "115204.798000", "115204.801000", "115204.804000", "115213.933000", "115213.936000", "115213.940000", "115213.943000", "115213.946000", "115213.950000", "115213.953000"],
      "InstanceCreationTime": ["114704.735000", "114704.739000", "114704.742000", "114704.745000", "114704.748000", "114704.763000", "114704.766000", "114704.769000", "114704.772000", "114704.775000", "114704.778000", "114704.781000", "114704.784000", "114704.786000", "114704.790000", "114704.793000", "114704.796000", "114704.799000", "114704.804000", "114704.807000", "114704.810000", "114704.813000", "114704.816000", "114704.819000", "114704.822000", "114704.825000", "114704.828000", "114704.831000", "114704.834000", "114704.837000", "114704.840000", "114704.843000", "114744.728000", "114744.731000", "114744.734000", "114744.737000", "114744.740000", "114744.743000", "114744.746000", "114744.749000", "114744.752000", "114744.755000", "114744.758000", "114744.773000", "114744.776000", "114744.779000", "114744.782000", "114744.785000", "114744.788000", "114744.791000", "114744.794000", "114744.797000", "114744.800000", "114744.803000", "114744.805000", "114744.808000", "114744.811000", "114744.814000", "114744.817000", "114824.728000", "114824.731000", "114824.734000", "114824.737000", "114824.740000", "114824.743000", "114824.746000", "114824.749000", "114824.752000", "114824.755000", "114824.758000", "114824.761000", "114824.764000", "114824.766000", "114824.769000", "114824.772000", "114824.775000", "114824.778000", "114824.781000", "114824.784000", "114824.787000", "114824.790000", "114824.793000", "114824.796000", "114824.799000", "114824.802000", "114824.805000", "114904.729000", "114904.732000", "114904.735000", "114904.738000", "114904.741000", "114904.744000", "114904.747000", "114904.750000", "114904.753000", "114904.756000", "114904.759000", "114904.762000", "114904.765000", "114904.768000", "114904.771000", "114904.774000", "114904.777000", "114904.780000", "114904.783000", "114904.785000", "114904.788000", "114904.791000", "114904.794000", "114904.797000", "114904.800000", "114904.803000", "114944.737000", "114944.740000", "114944.743000", "114944.746000", "114944.749000", "114944.752000", "114944.755000", "114944.758000", "114944.761000", "114944.764000", "114944.767000", "114944.770000", "114944.773000", "114944.776000", "114944.779000", "114944.782000", "114944.784000", "114944.787000", "114944.790000", "114944.793000", "114944.796000", "114944.799000", "114944.802000", "114944.805000", "114944.821000", "114944.824000", "114944.827000", "115024.728000", "115024.731000", "115024.734000", "115024.737000", "115024.740000", "115024.743000", "115024.746000", "115024.749000", "115024.753000", "115024.756000", "115024.759000", "115024.762000", "115024.765000", "115024.768000", "115024.770000", "115024.774000", "115024.777000", "115024.780000", "115024.782000", "115024.786000", "115024.789000", "115024.791000", "115024.794000", "115024.797000", "115024.800000", "115024.803000", "115024.806000", "115104.728000", "115104.731000", "115104.734000", "115104.737000", "115104.740000", "115104.743000", "115104.746000", "115104.749000", "115104.752000", "115104.755000", "115104.758000", "115104.761000", "115104.764000", "115104.767000", "115104.770000", "115104.773000", "115104.776000", "115104.779000", "115104.782000", "115104.785000", "115104.787000", "115104.790000", "115104.793000", "115104.796000", "115104.799000", "115104.802000", "115124.729000", "115124.732000", "115124.735000", "115124.738000", "115124.741000", "115124.744000", "115124.747000", "115124.750000", "115124.753000", "115124.756000", "115124.759000", "115124.762000", "115124.765000", "115124.768000", "115204.729000", "115204.732000", "115204.735000", "115204.738000", "115204.741000", "115204.744000", "115204.747000", "115204.750000", "115204.753000", "115204.756000", "115204.759000", "115204.762000", "115204.765000", "115204.768000", "115204.771000", "115204.774000", "115204.777000", "115204.780000", "115204.783000", "115204.786000", "115204.789000", "115204.792000", "115204.795000", "115204.798000", "115204.801000", "115204.804000", "115213.933000", "115213.936000", "115213.940000", "115213.943000", "115213.946000", "115213.950000", "115213.953000"],
      "InstanceNumber": [1, 2, 3, 4, 5, 6, 7, 8, 9, 10, 11, 12, 13, 14, 15, 16, 17, 18, 19, 20, 21, 22, 23, 24, 25, 26, 27, 28, 29, 30, 31, 32, 33, 34, 35, 36, 37, 38, 39, 40, 41, 42, 43, 44, 45, 46, 47, 48, 49, 50, 51, 52, 53, 54, 55, 56, 57, 58, 59, 60, 61, 62, 63, 64, 65, 66, 67, 68, 69, 70, 71, 72, 73, 74, 75, 76, 77, 78, 79, 80, 81, 82, 83, 84, 85, 86, 87, 88, 89, 90, 91, 92, 93, 94, 95, 96, 97, 98, 99, 100, 101, 102, 103, 104, 105, 106, 107, 108, 109, 110, 111, 112, 113, 114, 115, 116, 117, 118, 119, 120, 121, 122, 123, 124, 125, 126, 127, 128, 129, 130, 131, 132, 133, 134, 135, 136, 137, 138, 139, 140, 141, 142, 143, 144, 145, 146, 147, 148, 149, 150, 151, 152, 153, 154, 155, 156, 157, 158, 159, 160, 161, 162, 163, 164, 165, 166, 167, 168, 169, 170, 171, 172, 173, 174, 175, 176, 177, 178, 179, 180, 181, 182, 183, 184, 185, 186, 187, 188, 189, 190, 191, 192, 193, 194, 195, 196, 197, 198, 199, 200, 201, 202, 203, 204, 205, 206, 207, 208, 209, 210, 211, 212, 213, 214, 215, 216, 217, 218, 219, 220, 221, 222, 223, 224, 225, 226, 227, 228, 229, 230, 231, 232, 233, 234, 235, 236, 237, 238, 239],
      "LargestImagePixelValue": [3498, 3441, 3392, 3343, 3333, 3316, 3332, 3325, 3306, 3319, 3277, 3284, 3317, 3321, 3294, 3282, 3314, 3260, 3258, 3325, 3261, 3309, 3358, 3356, 3312, 3353, 3357, 3331, 3350, 3398, 3399, 3369, 3342, 3331, 3324, 3308, 3306, 3347, 3370, 3310, 3291, 3311, 3306, 3325, 3314, 3321, 3303, 3268, 3316, 3281, 3329, 3295, 3292, 3268, 3287, 3291, 3283, 3282, 3304, 3313, 3338, 3325, 3318, 3300, 3306, 3288, 3336, 3296, 3310, 3303, 3312, 3313, 3333, 3347, 3352, 3368, 3347, 3343, 3332, 3319, 3312, 3305, 3335, 3320, 3301, 3320, 3309, 3345, 3347, 3303, 3346, 3354, 3304, 3318, 3311, 3331, 3294, 3282, 3305, 3334, 3300, 3314, 3313, 3310, 3355, 3334, 3338, 3353, 3341, 3314, 3336, 3333, 3343, 3299, 3325, 3298, 3325, 3336, 3358, 3341, 3315, 3323, 3332, 3325, 3321, 3348, 3321, 3302, 3305, 3324, 3308, 3311, 3308, 3297, 3311, 3318, 3312, 3328, 3312, 3334, 3314, 3322, 3334, 3327, 3329, 3304, 3294, 3311, 3324, 3307, 3317, 3316, 3347, 3314, 3323, 3301, 3315, 3309, 3320, 3346, 3349, 3322, 3326, 3318, 3309, 3317, 3342, 3345, 3337, 3309, 3315, 3333, 3326, 3331, 3317, 3318, 3326, 3326, 3327, 3343, 3308, 3310, 3347, 3332, 3306, 3329, 3324, 3314, 3330, 3328, 3364, 3369, 3382, 3347, 3363, 3339, 3320, 3372, 3329, 3359, 3312, 3352, 3342, 3329, 3356, 3328, 3336, 3369, 3327, 3340, 3330, 3313, 3349, 3338, 3354, 3333, 3338, 3331, 3304, 3316, 3316, 3322, 3323, 3322, 3347, 3326, 3353, 3339, 3298, 3323, 3336, 3344, 3323, 3343, 3350, 3353, 3435, 3384, 3343],
      "WindowCenter": [810.0, 809.0, 808.0, 807.0, 806.0, 805.0, 807.0, 808.0, 809.0, 810.0, 810.0, 810.0, 810.0, 811.0, 811.0, 813.0, 814.0, 815.0, 814.0, 813.0, 811.0, 813.0, 814.0, 814.0, 814.0, 813.0, 814.0, 813.0, 814.0, 814.0, 815.0, 817.0, 817.0, 817.0, 817.0, 818.0, 817.0, 817.0, 819.0, 819.0, 819.0, 818.0, 816.0, 816.0, 817.0, 816.0, 815.0, 814.0, 813.0, 811.0, 811.0, 813.0, 814.0, 813.0, 812.0, 812.0, 813.0, 812.0, 813.0, 814.0, 814.0, 813.0, 813.0, 812.0, 810.0, 810.0, 811.0, 811.0, 811.0, 810.0, 810.0, 810.0, 811.0, 813.0, 815.0, 814.0, 814.0, 813.0, 812.0, 811.0, 811.0, 811.0, 811.0, 812.0, 812.0, 813.0, 813.0, 814.0, 816.0, 815.0, 814.0, 814.0, 812.0, 811.0, 810.0, 810.0, 810.0, 811.0, 813.0, 814.0, 814.0, 814.0, 814.0, 814.0, 813.0, 812.0, 811.0, 811.0, 810.0, 809.0, 809.0, 810.0, 810.0, 812.0, 814.0, 814.0, 813.0, 814.0, 814.0, 814.0, 812.0, 811.0, 810.0, 810.0, 811.0, 812.0, 811.0, 811.0, 810.0, 810.0, 810.0, 810.0, 810.0, 811.0, 813.0, 815.0, 816.0, 817.0, 817.0, 818.0, 816.0, 816.0, 815.0, 813.0, 812.0, 811.0, 811.0, 812.0, 812.0, 813.0, 813.0, 813.0, 815.0, 817.0, 816.0, 813.0, 812.0, 811.0, 810.0, 809.0, 809.0, 809.0, 809.0, 809.0, 810.0, 811.0, 813.0, 816.0, 816.0, 815.0, 813.0, 811.0, 810.0, 809.0, 809.0, 809.0, 809.0, 809.0, 811.0, 814.0, 814.0, 814.0, 813.0, 813.0, 812.0, 812.0, 812.0, 811.0, 813.0, 815.0, 817.0, 817.0, 816.0, 814.0, 813.0, 812.0, 811.0, 809.0, 809.0, 810.0, 811.0, 811.0, 811.0, 810.0, 810.0, 811.0, 811.0, 812.0, 815.0, 816.0, 817.0, 815.0, 813.0, 812.0, 811.0, 810.0, 811.0, 811.0, 811.0, 811.0, 813.0, 813.0, 814.0, 815.0, 816.0, 816.0, 816.0, 817.0, 818.0, 818.0, 816.0, 814.0, 812.0, 812.0, 810.0, 809.0, 810.0, 810.0, 809.0],
      "WindowWidth": [1792.0, 1788.0, 1784.0, 1780.0, 1777.0, 1778.0, 1781.0, 1784.0, 1787.0, 1789.0, 1789.0, 1789.0, 1791.0, 1792.0, 1795.0, 1800.0, 1803.0, 1803.0, 1801.0, 1799.0, 1795.0, 1801.0, 1803.0, 1802.0, 1801.0, 1800.0, 1801.0, 1800.0, 1801.0, 1803.0, 1805.0, 1811.0, 1811.0, 1812.0, 1812.0, 1812.0, 1809.0, 1810.0, 1816.0, 1817.0, 1817.0, 1813.0, 1808.0, 1808.0, 1810.0, 1809.0, 1806.0, 1800.0, 1798.0, 1794.0, 1795.0, 1799.0, 1801.0, 1800.0, 1797.0, 1798.0, 1799.0, 1798.0, 1801.0, 1803.0, 1801.0, 1800.0, 1798.0, 1795.0, 1791.0, 1790.0, 1794.0, 1794.0, 1792.0, 1789.0, 1790.0, 1791.0, 1795.0, 1800.0, 1805.0, 1803.0, 1801.0, 1798.0, 1796.0, 1794.0, 1793.0, 1792.0, 1793.0, 1795.0, 1795.0, 1797.0, 1799.0, 1803.0, 1808.0, 1806.0, 1802.0, 1800.0, 1796.0, 1791.0, 1789.0, 1789.0, 1789.0, 1792.0, 1798.0, 1801.0, 1800.0, 1801.0, 1803.0, 1803.0, 1800.0, 1796.0, 1793.0, 1791.0, 1789.0, 1787.0, 1788.0, 1789.0, 1791.0, 1797.0, 1801.0, 1799.0, 1799.0, 1800.0, 1802.0, 1800.0, 1796.0, 1792.0, 1791.0, 1791.0, 1793.0, 1795.0, 1794.0, 1792.0, 1790.0, 1790.0, 1789.0, 1790.0, 1791.0, 1793.0, 1798.0, 1805.0, 1808.0, 1809.0, 1810.0, 1812.0, 1808.0, 1806.0, 1803.0, 1798.0, 1794.0, 1792.0, 1792.0, 1794.0, 1795.0, 1797.0, 1798.0, 1799.0, 1806.0, 1809.0, 1806.0, 1799.0, 1795.0, 1792.0, 1789.0, 1787.0, 1787.0, 1786.0, 1786.0, 1787.0, 1789.0, 1792.0, 1798.0, 1806.0, 1809.0, 1803.0, 1798.0, 1792.0, 1788.0, 1786.0, 1785.0, 1786.0, 1786.0, 1786.0, 1791.0, 1801.0, 1801.0, 1799.0, 1798.0, 1797.0, 1795.0, 1794.0, 1794.0, 1794.0, 1798.0, 1804.0, 1810.0, 1811.0, 1807.0, 1801.0, 1797.0, 1794.0, 1791.0, 1787.0, 1786.0, 1790.0, 1792.0, 1793.0, 1791.0, 1790.0, 1791.0, 1791.0, 1793.0, 1796.0, 1803.0, 1807.0, 1808.0, 1802.0, 1797.0, 1794.0, 1792.0, 1790.0, 1791.0, 1791.0, 1792.0, 1793.0, 1796.0, 1798.0, 1801.0, 1803.0, 1806.0, 1805.0, 1807.0, 1811.0, 1814.0, 1813.0, 1806.0, 1800.0, 1796.0, 1793.0, 1789.0, 1787.0, 1789.0, 1789.0, 1788.0]
    },
    "slices": {}
  }
}