{
  "AcquisitionMatrixPE": 70,
  "AcquisitionNumber": 1,
  "AcquisitionTime": "16:02:58.800000",
  "BaseResolution": 70,
  "BodyPartExamined": "BRAIN",
  "CoilCombinationMethod": "Sum of Squares",
  "ConsistencyInfo": "N4_VE11C_LATEST_20160120",
  "ConversionSoftware": "dcm2niix",
  "ConversionSoftwareVersion": "v1.0.20211006",
  "DeviceSerialNumber": "166011",
  "DwellTime": 1.2e-05,
  "EchoNumber": 2,
  "EchoTime": 0.00738,
  "EchoTime1": 0.00492,
  "EchoTime2": 0.00738,
  "FlipAngle": 60,
  "ImageOrientationPatientDICOM": [
    0.997868,
    -0.0407488,
    -0.0509812,
    0.046011,
    0.993225,
    0.106709
  ],
  "ImageOrientationText": "Tra>Cor(6.3)>Sag(-2.7)",
  "ImageType": [
    "ORIGINAL",
    "PRIMARY",
    "P",
    "ND",
    "PHASE"
  ],
  "ImagingFrequency": 123.259,
  "InPlanePhaseEncodingDirectionDICOM": "ROW",
  "InstitutionAddress": "West 130th Street 610,NY,NYC,US,10025",
  "InstitutionName": "MBBI",
  "InstitutionalDepartmentName": "Department",
  "IntendedFor": [
    "ses-2/func/sub-150_ses-2_task-catLoc_run-01_bold.nii.gz",
    "ses-2/func/sub-150_ses-2_task-catLoc_run-02_bold.nii.gz",
    "ses-2/func/sub-150_ses-2_task-vwfate_run-01_bold.nii.gz",
    "ses-2/func/sub-150_ses-2_task-vwfate_run-02_bold.nii.gz",
    "ses-2/func/sub-150_ses-2_task-vwfate_run-03_bold.nii.gz",
    "ses-2/func/sub-150_ses-2_task-vwfate_run-04_bold.nii.gz",
    "ses-2/func/sub-150_ses-2_task-vwfate_run-05_bold.nii.gz",
    "ses-2/func/sub-150_ses-2_task-vwfate_run-06_bold.nii.gz"
  ],
  "MRAcquisitionType": "2D",
  "MagneticFieldStrength": 3,
  "Manufacturer": "Siemens",
  "ManufacturersModelName": "Prisma",
  "MatrixCoilMode": "SENSE",
  "Modality": "MR",
  "PartialFourier": 1,
  "PatientPosition": "HFS",
  "PercentPhaseFOV": 100,
  "PercentSampling": 100,
  "PhaseEncodingDirection": "i",
  "PhaseEncodingSteps": 70,
  "PhaseResolution": 1,
  "PixelBandwidth": 595,
  "ProcedureStepDescription": "White^Word_recognition",
  "ProtocolName": "fmap_gre_field_mapping",
  "PulseSequenceDetails": "%SiemensSeq%\\gre_field_mapping",
  "ReceiveCoilActiveElements": "HC1-7",
  "ReceiveCoilName": "HeadNeck_64",
  "ReconMatrixPE": 70,
  "RepetitionTime": 0.52,
  "SAR": 0.0949803,
  "ScanningSequence": "GR",
  "SequenceName": "*fm2d2r",
  "SequenceVariant": "SP",
  "SeriesDescription": "fmap_gre_field_mapping",
  "SeriesNumber": 17,
  "ShimSetting": [
    -1157,
    -1354,
    687,
    701,
    -217,
    -94,
    -62,
    73
  ],
  "SliceThickness": 3,
  "SliceTiming": [
    0.25,
    0,
    0.26562,
    0,
    0.28125,
    0.01562,
    0.29688,
    0.03125,
    0.29688,
    0.04688,
    0.3125,
    0.0625,
    0.32812,
    0.0625,
    0.34375,
    0.07812,
    0.35938,
    0.09375,
    0.35938,
    0.10938,
    0.375,
    0.125,
    0.39062,
    0.125,
    0.40625,
    0.14062,
    0.42188,
    0.15625,
    0.42188,
    0.17188,
    0.4375,
    0.1875,
    0.45312,
    0.1875,
    0.46875,
    0.20312,
    0.46875,
    0.21875,
    0.48438,
    0.23438,
    0.5,
    0.23438
  ],
  "SoftwareVersions": "syngo MR E11",
  "SpacingBetweenSlices": 3,
  "StationName": "AWP166011",
  "TxRefAmp": 219.385,
  "dcmmeta_affine": [
    [
      -2.9936039447784424,
      0.13803306221961975,
      -0.138862743973732,
      105.73382568359375
    ],
    [
      0.12224645912647247,
      2.97967529296875,
      0.3264808654785156,
      -87.53866577148438
    ],
    [
      -0.15294374525547028,
      -0.32012778520584106,
      2.9789505004882812,
      -32.56980514526367
    ],
    [
      0.0,
      0.0,
      0.0,
      1.0
    ]
  ],
  "dcmmeta_reorient_transform": [
    [
      0.0,
      -1.0,
      0.0,
      69.0
    ],
    [
      1.0,
      0.0,
      0.0,
      0.0
    ],
    [
      0.0,
      0.0,
      -1.0,
      41.0
    ],
    [
      0.0,
      0.0,
      0.0,
      1.0
    ]
  ],
  "dcmmeta_shape": [
    70,
    70,
    42
  ],
  "dcmmeta_slice_dim": 2,
  "dcmmeta_version": 0.6,
  "global": {
    "const": {
      "AcquisitionMatrix": [
        0,
        70,
        70,
        0
      ],
      "AcquisitionNumber": 1,
      "AngioFlag": "N",
      "BitsAllocated": 16,
      "BitsStored": 12,
      "BodyPartExamined": "BRAIN",
      "Columns": 70,
      "EchoNumbers": 2,
      "EchoTime": 7.38,
      "EchoTrainLength": 0,
      "FlipAngle": 60.0,
      "HighBit": 11,
      "ImageOrientationPatient": [
        0.99786795009971,
        -0.0407488198576,
        -0.050981249926,
        0.04601102040078,
        0.99322511022181,
        0.10670926120331
      ],
      "ImageType": [
        "ORIGINAL",
        "PRIMARY",
        "P",
        "ND"
      ],
      "ImagedNucleus": "1H",
      "ImagingFrequency": 123.259492,
      "InPlanePhaseEncodingDirection": "ROW",
      "MRAcquisitionType": "2D",
      "MagneticFieldStrength": 3.0,
      "Manufacturer": "SIEMENS",
      "ManufacturerModelName": "Prisma",
      "Modality": "MR",
      "NumberOfAverages": 1.0,
      "NumberOfPhaseEncodingSteps": 70,
      "PercentPhaseFieldOfView": 100.0,
      "PercentSampling": 100.0,
      "PerformedProcedureStepStartTime": "145541.351000",
      "PhotometricInterpretation": "MONOCHROME2",
      "PixelBandwidth": 595.0,
      "PixelRepresentation": 0,
      "PixelSpacing": [
        3.0,
        3.0
      ],
      "ProtocolName": "fmap_gre_field_mapping",
      "RepetitionTime": 520.0,
      "RescaleIntercept": -4096.0,
      "RescaleSlope": 2.0,
      "RescaleType": "US",
      "Rows": 70,
      "SAR": 0.0949803468274,
      "SamplesPerPixel": 1,
      "ScanningSequence": "GR",
      "SequenceName": "*fm2d2r",
      "SequenceVariant": "SP",
      "SeriesDescription": "fmap_gre_field_mapping",
      "SeriesNumber": 17,
      "SeriesTime": "160411.799000",
      "SliceThickness": 3.0,
      "SoftwareVersions": "syngo MR E11",
      "SpacingBetweenSlices": 3.0,
      "SpecificCharacterSet": "ISO_IR 100",
      "StudyID": "2",
      "StudyTime": "145541.232000",
      "TransmitCoilName": "Body",
      "VariableFlipAngleFlag": "N",
      "WindowCenterWidthExplanation": "Algo1",
      "dBdt": 0.0
    },
    "slices": {
      "AcquisitionTime": [
        "160258.800000",
        "160258.540000",
        "160258.812500",
        "160258.552500",
        "160258.825000",
        "160258.565000",
        "160258.837500",
        "160258.577500",
        "160258.850000",
        "160258.590000",
        "160258.862500",
        "160258.602500",
        "160258.875000",
        "160258.615000",
        "160258.887500",
        "160258.627500",
        "160258.900000",
        "160258.640000",
        "160258.912500",
        "160258.652500",
        "160258.925000",
        "160258.665000",
        "160258.937500",
        "160258.677500",
        "160258.950000",
        "160258.690000",
        "160258.962500",
        "160258.702500",
        "160258.975000",
        "160258.715000",
        "160258.987500",
        "160258.727500",
        "160258.997500",
        "160258.737500",
        "160259.010000",
        "160258.750000",
        "160259.022500",
        "160258.762500",
        "160259.035000",
        "160258.775000",
        "160259.047500",
        "160258.787500"
      ],
      "ContentTime": [
        "160411.852000",
        "160411.802000",
        "160411.854000",
        "160411.804000",
        "160411.856000",
        "160411.806000",
        "160411.858000",
        "160411.813000",
        "160411.860000",
        "160411.815000",
        "160411.863000",
        "160411.817000",
        "160411.865000",
        "160411.820000",
        "160411.867000",
        "160411.822000",
        "160411.869000",
        "160411.824000",
        "160411.871000",
        "160411.826000",
        "160411.874000",
        "160411.828000",
        "160411.876000",
        "160411.830000",
        "160411.878000",
        "160411.833000",
        "160411.880000",
        "160411.835000",
        "160411.882000",
        "160411.837000",
        "160411.884000",
        "160411.839000",
        "160411.886000",
        "160411.841000",
        "160411.888000",
        "160411.843000",
        "160411.891000",
        "160411.845000",
        "160411.893000",
        "160411.847000",
        "160411.895000",
        "160411.850000"
      ],
      "CsaImage.ICE_Dims": [
        "X_2_1_1_1_1_1_22_1_1_1_1_281",
        "X_2_1_1_1_1_1_1_1_1_2_1_281",
        "X_2_1_1_1_1_1_23_1_1_3_1_281",
        "X_2_1_1_1_1_1_2_1_1_4_1_281",
        "X_2_1_1_1_1_1_24_1_1_5_1_281",
        "X_2_1_1_1_1_1_3_1_1_6_1_281",
        "X_2_1_1_1_1_1_25_1_1_7_1_281",
        "X_2_1_1_1_1_1_4_1_1_8_1_281",
        "X_2_1_1_1_1_1_26_1_1_9_1_281",
        "X_2_1_1_1_1_1_5_1_1_10_1_281",
        "X_2_1_1_1_1_1_27_1_1_11_1_281",
        "X_2_1_1_1_1_1_6_1_1_12_1_281",
        "X_2_1_1_1_1_1_28_1_1_13_1_281",
        "X_2_1_1_1_1_1_7_1_1_14_1_281",
        "X_2_1_1_1_1_1_29_1_1_15_1_281",
        "X_2_1_1_1_1_1_8_1_1_16_1_281",
        "X_2_1_1_1_1_1_30_1_1_17_1_281",
        "X_2_1_1_1_1_1_9_1_1_18_1_281",
        "X_2_1_1_1_1_1_31_1_1_19_1_281",
        "X_2_1_1_1_1_1_10_1_1_20_1_281",
        "X_2_1_1_1_1_1_32_1_1_21_1_281",
        "X_2_1_1_1_1_1_11_1_1_22_1_281",
        "X_2_1_1_1_1_1_33_1_1_23_1_281",
        "X_2_1_1_1_1_1_12_1_1_24_1_281",
        "X_2_1_1_1_1_1_34_1_1_25_1_281",
        "X_2_1_1_1_1_1_13_1_1_26_1_281",
        "X_2_1_1_1_1_1_35_1_1_27_1_281",
        "X_2_1_1_1_1_1_14_1_1_28_1_281",
        "X_2_1_1_1_1_1_36_1_1_29_1_281",
        "X_2_1_1_1_1_1_15_1_1_30_1_281",
        "X_2_1_1_1_1_1_37_1_1_31_1_281",
        "X_2_1_1_1_1_1_16_1_1_32_1_281",
        "X_2_1_1_1_1_1_38_1_1_33_1_281",
        "X_2_1_1_1_1_1_17_1_1_34_1_281",
        "X_2_1_1_1_1_1_39_1_1_35_1_281",
        "X_2_1_1_1_1_1_18_1_1_36_1_281",
        "X_2_1_1_1_1_1_40_1_1_37_1_281",
        "X_2_1_1_1_1_1_19_1_1_38_1_281",
        "X_2_1_1_1_1_1_41_1_1_39_1_281",
        "X_2_1_1_1_1_1_20_1_1_40_1_281",
        "X_2_1_1_1_1_1_42_1_1_41_1_281",
        "X_2_1_1_1_1_1_21_1_1_42_1_281"
      ],
      "CsaImage.ProtocolSliceNumber": [
        0,
        1,
        2,
        3,
        4,
        5,
        6,
        7,
        8,
        9,
        10,
        11,
        12,
        13,
        14,
        15,
        16,
        17,
        18,
        19,
        20,
        21,
        22,
        23,
        24,
        25,
        26,
        27,
        28,
        29,
        30,
        31,
        32,
        33,
        34,
        35,
        36,
        37,
        38,
        39,
        40,
        41
      ],
      "CsaImage.SlicePosition_PCS": [
        [
          -115.25810787,
          -118.05886913,
          -54.65848998
        ],
        [
          -115.11924478,
          -118.3853519,
          -51.6795433
        ],
        [
          -114.98038217,
          -118.71183468,
          -48.70059661
        ],
        [
          -114.84151956,
          -119.03831745,
          -45.72164992
        ],
        [
          -114.70265647,
          -119.36480022,
          -42.74269942
        ],
        [
          -114.56379386,
          -119.69128109,
          -39.76375274
        ],
        [
          -114.42493125,
          -120.01776386,
          -36.78480605
        ],
        [
          -114.28606864,
          -120.34424663,
          -33.80585937
        ],
        [
          -114.14720556,
          -120.67072941,
          -30.82691268
        ],
        [
          -114.00834295,
          -120.99721027,
          -27.84796409
        ],
        [
          -113.86948034,
          -121.32369304,
          -24.8690174
        ],
        [
          -113.73061725,
          -121.65017582,
          -21.89007072
        ],
        [
          -113.59175464,
          -121.97665859,
          -18.91112308
        ],
        [
          -113.45289203,
          -122.30314136,
          -15.93217639
        ],
        [
          -113.31402918,
          -122.62962223,
          -12.95322923
        ],
        [
          -113.17516633,
          -122.956105,
          -9.97428159
        ],
        [
          -113.03630372,
          -123.28258777,
          -6.99533466
        ],
        [
          -112.89744088,
          -123.60907055,
          -4.01638738
        ],
        [
          -112.75857827,
          -123.93555141,
          -1.0374401
        ],
        [
          -112.61971542,
          -124.26203419,
          1.94150706
        ],
        [
          -112.48085281,
          -124.58851696,
          4.92045422
        ],
        [
          -112.34198996,
          -124.91499973,
          7.89940091
        ],
        [
          -112.20312711,
          -125.2414825,
          10.87834855
        ],
        [
          -112.0642645,
          -125.56796337,
          13.85729524
        ],
        [
          -111.92540165,
          -125.89444614,
          16.83624383
        ],
        [
          -111.78653904,
          -126.22092891,
          19.81519051
        ],
        [
          -111.6476762,
          -126.54741169,
          22.7941372
        ],
        [
          -111.50881347,
          -126.87389446,
          25.77308389
        ],
        [
          -111.36995074,
          -127.20037533,
          28.75203248
        ],
        [
          -111.23108801,
          -127.5268581,
          31.73097917
        ],
        [
          -111.09222528,
          -127.85334087,
          34.70992585
        ],
        [
          -110.95336255,
          -128.17982364,
          37.68887254
        ],
        [
          -110.81449982,
          -128.50630451,
          40.66781922
        ],
        [
          -110.67563697,
          -128.83278728,
          43.64676591
        ],
        [
          -110.5367743,
          -129.15927006,
          46.62571641
        ],
        [
          -110.39791151,
          -129.48575283,
          49.60466309
        ],
        [
          -110.25904879,
          -129.8122356,
          52.58360978
        ],
        [
          -110.12018606,
          -130.13871647,
          55.56255647
        ],
        [
          -109.9813233,
          -130.46519924,
          58.54150315
        ],
        [
          -109.84246055,
          -130.79168201,
          61.52045365
        ],
        [
          -109.7035978,
          -131.11816479,
          64.49939652
        ],
        [
          -109.56473506,
          -131.44464565,
          67.47834702
        ]
      ],
      "CsaImage.TimeAfterStart": [
        0.7825,
        0.5225,
        0.795,
        0.535,
        0.8075,
        0.5475,
        0.82,
        0.56,
        0.8325,
        0.5725,
        0.845,
        0.585,
        0.8575,
        0.5975,
        0.87,
        0.61,
        0.8825,
        0.6225,
        0.895,
        0.635,
        0.9075,
        0.6475,
        0.92,
        0.66,
        0.9325,
        0.6725,
        0.945,
        0.685,
        0.9575,
        0.6975,
        0.97,
        0.71,
        0.98,
        0.72,
        0.9925,
        0.7325,
        1.005,
        0.745,
        1.0175,
        0.7575,
        1.03,
        0.77
      ],
      "ImagePositionPatient": [
        [
          -115.2581078663,
          -118.05886913082,
          -54.65848998172
        ],
        [
          -115.1192447796,
          -118.38535190365,
          -51.679543295929
        ],
        [
          -114.98038216973,
          -118.71183467647,
          -48.700596610138
        ],
        [
          -114.84151955987,
          -119.0383174493,
          -45.721649924347
        ],
        [
          -114.70265647317,
          -119.36480022213,
          -42.742699423859
        ],
        [
          -114.56379386331,
          -119.69128108761,
          -39.763752738068
        ],
        [
          -114.42493125344,
          -120.01776386043,
          -36.784806052277
        ],
        [
          -114.28606864358,
          -120.34424663326,
          -33.805859366486
        ],
        [
          -114.14720555688,
          -120.67072940609,
          -30.826912680695
        ],
        [
          -114.00834294702,
          -120.99721027157,
          -27.847964087555
        ],
        [
          -113.86948033715,
          -121.32369304439,
          -24.869017401764
        ],
        [
          -113.73061725045,
          -121.65017581722,
          -21.890070715973
        ],
        [
          -113.59175464059,
          -121.97665859005,
          -18.911123076508
        ],
        [
          -113.45289203073,
          -122.30314136287,
          -15.932176390717
        ],
        [
          -113.31402918244,
          -122.62962222835,
          -12.953229228089
        ],
        [
          -113.17516633416,
          -122.95610500118,
          -9.9742815886233
        ],
        [
          -113.0363037243,
          -123.28258777401,
          -6.9953346644137
        ],
        [
          -112.89744087602,
          -123.60907054683,
          -4.0163873825763
        ],
        [
          -112.75857826615,
          -123.93555141231,
          -1.0374401007388
        ],
        [
          -112.61971541787,
          -124.26203418514,
          1.9415070618894
        ],
        [
          -112.48085280801,
          -124.58851695797,
          4.9204542245175
        ],
        [
          -112.34198995973,
          -124.91499973079,
          7.8994009103086
        ],
        [
          -112.20312711144,
          -125.24148250362,
          10.878348549774
        ],
        [
          -112.06426450158,
          -125.5679633691,
          13.857295235565
        ],
        [
          -111.9254016533,
          -125.89444614193,
          16.836243828705
        ],
        [
          -111.78653904344,
          -126.22092891475,
          19.815190514496
        ],
        [
          -111.64767619515,
          -126.54741168758,
          22.794137200287
        ],
        [
          -111.50881346608,
          -126.87389446041,
          25.773083886078
        ],
        [
          -111.36995073701,
          -127.20037532589,
          28.752032479217
        ],
        [
          -111.23108800794,
          -127.52685809871,
          31.730979165008
        ],
        [
          -111.09222527886,
          -127.85334087154,
          34.709925850799
        ],
        [
          -110.95336254979,
          -128.17982364437,
          37.68887253659
        ],
        [
          -110.81449982072,
          -128.50630450985,
          40.667819222381
        ],
        [
          -110.67563697244,
          -128.83278728267,
          43.646765908172
        ],
        [
          -110.53677430297,
          -129.1592700555,
          46.625716408661
        ],
        [
          -110.39791151429,
          -129.48575282833,
          49.604663094452
        ],
        [
          -110.25904878522,
          -129.81223560115,
          52.583609780243
        ],
        [
          -110.12018605615,
          -130.13871646663,
          55.562556466034
        ],
        [
          -109.98132329727,
          -130.46519923946,
          58.541503151825
        ],
        [
          -109.8424605533,
          -130.79168201229,
          61.520453652313
        ],
        [
          -109.70359780187,
          -131.11816478511,
          64.499396523407
        ],
        [
          -109.5647350579,
          -131.44464565059,
          67.478347023895
        ]
      ],
      "InstanceCreationTime": [
        "160411.852000",
        "160411.802000",
        "160411.854000",
        "160411.804000",
        "160411.856000",
        "160411.806000",
        "160411.858000",
        "160411.813000",
        "160411.860000",
        "160411.815000",
        "160411.863000",
        "160411.817000",
        "160411.865000",
        "160411.820000",
        "160411.867000",
        "160411.822000",
        "160411.869000",
        "160411.824000",
        "160411.871000",
        "160411.826000",
        "160411.874000",
        "160411.828000",
        "160411.876000",
        "160411.830000",
        "160411.878000",
        "160411.833000",
        "160411.880000",
        "160411.835000",
        "160411.882000",
        "160411.837000",
        "160411.884000",
        "160411.839000",
        "160411.886000",
        "160411.841000",
        "160411.888000",
        "160411.843000",
        "160411.891000",
        "160411.845000",
        "160411.893000",
        "160411.847000",
        "160411.895000",
        "160411.850000"
      ],
      "InstanceNumber": [
        1,
        2,
        3,
        4,
        5,
        6,
        7,
        8,
        9,
        10,
        11,
        12,
        13,
        14,
        15,
        16,
        17,
        18,
        19,
        20,
        21,
        22,
        23,
        24,
        25,
        26,
        27,
        28,
        29,
        30,
        31,
        32,
        33,
        34,
        35,
        36,
        37,
        38,
        39,
        40,
        41,
        42
      ],
      "LargestImagePixelValue": [
        4089,
        4094,
        4089,
        4080,
        4093,
        4092,
        4087,
        4094,
        4093,
        4090,
        4093,
        4091,
        4086,
        4065,
        4090,
        4086,
        4094,
        4082,
        4091,
        4082,
        4084,
        4078,
        4089,
        4094,
        4091,
        4083,
        4078,
        4093,
        4082,
        4094,
        4088,
        4093,
        4094,
        4086,
        4092,
        4094,
        4093,
        4092,
        4086,
        4095,
        4094,
        4092
      ],
      "SliceLocation": [
        -46.761891749475,
        -43.761892197044,
        -40.761892666684,
        -37.761893136325,
        -34.761889795967,
        -31.76189047318,
        -28.76189094282,
        -25.761891412461,
        -22.76189186003,
        -19.761890643279,
        -16.76189111292,
        -13.761891560489,
        -10.761891083148,
        -7.7618915527884,
        -4.7618917454742,
        -1.7618912570973,
        1.2381085100074,
        4.2381086432662,
        7.2381085579172,
        10.238108572803,
        13.238108576653,
        16.238108118049,
        19.238108606425,
        22.238107929213,
        25.238109364572,
        28.238108894931,
        31.238108436326,
        34.238107972203,
        37.238109194472,
        40.238108730349,
        43.238108266227,
        46.238107802104,
        49.238107130409,
        52.238106671804,
        55.23810999285,
        58.238109531486,
        61.238109067363,
        64.238108395668,
        67.238107932925,
        70.238111257419,
        73.238107006404,
        76.238110123326
      ],
      "SmallestImagePixelValue": [
        2,
        3,
        0,
        3,
        3,
        0,
        0,
        0,
        0,
        0,
        5,
        3,
        0,
        10,
        1,
        0,
        3,
        0,
        6,
        9,
        12,
        15,
        29,
        10,
        3,
        8,
        21,
        7,
        17,
        1,
        0,
        0,
        18,
        4,
        2,
        5,
        2,
        0,
        3,
        1,
        0,
        0
      ],
      "WindowCenter": [
        -262.0,
        -268.0,
        -268.0,
        -258.0,
        -250.0,
        -262.0,
        -214.0,
        -218.0,
        -202.0,
        -200.0,
        -134.0,
        -168.0,
        -132.0,
        -308.0,
        -200.0,
        -6.0,
        -52.0,
        -244.0,
        -236.0,
        -272.0,
        -250.0,
        -228.0,
        -206.0,
        -228.0,
        -210.0,
        -206.0,
        -184.0,
        -208.0,
        -188.0,
        -216.0,
        -222.0,
        -226.0,
        -200.0,
        -214.0,
        -164.0,
        -192.0,
        -212.0,
        -246.0,
        -324.0,
        -402.0,
        -472.0,
        -460.0
      ],
      "WindowWidth": [
        5940.0,
        6040.0,
        6058.0,
        6080.0,
        6004.0,
        5962.0,
        5994.0,
        5908.0,
        5886.0,
        5700.0,
        5582.0,
        5448.0,
        5488.0,
        4666.0,
        4620.0,
        5490.0,
        5238.0,
        4564.0,
        4530.0,
        4508.0,
        4502.0,
        4480.0,
        4480.0,
        4498.0,
        4472.0,
        4438.0,
        4404.0,
        4398.0,
        4398.0,
        4404.0,
        4418.0,
        4430.0,
        4424.0,
        4462.0,
        4436.0,
        4492.0,
        4542.0,
        4592.0,
        4654.0,
        4714.0,
        4810.0,
        4834.0
      ]
    }
  }
}