{
  "AcquisitionMatrixPE": 70,
  "AcquisitionNumber": 1,
  "AcquisitionTime": "09:03:18.812500",
  "BaseResolution": 70,
  "BodyPartExamined": "BRAIN",
  "CoilCombinationMethod": "Sum of Squares",
  "ConsistencyInfo": "N4_VE11C_LATEST_20160120",
  "ConversionSoftware": "dcm2niix",
  "ConversionSoftwareVersion": "v1.0.20211006",
  "DeviceSerialNumber": "166011",
  "EchoNumber": 2,
  "EchoTime": 0.00738,
  "EchoTime1": 0.00492,
  "EchoTime2": 0.00738,
  "FlipAngle": 60,
  "ImageOrientationPatientDICOM": [0.999877, -0.013377, -0.00813847, 0.01274, 0.997189, -0.0738415],
  "ImageType": [
    "ORIGINAL",
    "PRIMARY",
    "P",
    "ND",
    "PHASE"
],
  "ImagingFrequency": 123.26,
  "InPlanePhaseEncodingDirectionDICOM": "ROW",
  "InstitutionAddress": "West 130th Street 610,NY,NYC,US,10025",
  "InstitutionName": "MBBI",
  "MRAcquisitionType": "2D",
  "MagneticFieldStrength": 3,
  "Manufacturer": "Siemens",
  "ManufacturersModelName": "Prisma",
  "MatrixCoilMode": "SENSE",
  "Modality": "MR",
  "PartialFourier": 1,
  "PatientPosition": "HFS",
  "PercentPhaseFOV": 100,
  "PercentSampling": 100,
  "PhaseEncodingDirection": "i",
  "PhaseEncodingSteps": 70,
  "PhaseResolution": 1,
  "PixelBandwidth": 595,
  "ProcedureStepDescription": "White^Word_recognition",
  "ProtocolName": "fmap_gre_field_mapping",
  "PulseSequenceDetails": "%SiemensSeq%\\gre_field_mapping",
  "ReceiveCoilActiveElements": "HC1-7",
  "ReceiveCoilName": "HeadNeck_64",
  "ReconMatrixPE": 70,
  "RepetitionTime": 0.52,
  "SAR": 0.0992508,
  "ScanningSequence": "GR",
  "SequenceName": "*fm2d2r",
  "SequenceVariant": "SP",
  "SeriesDescription": "fmap_gre_field_mapping",
  "SeriesNumber": 15,
  "ShimSetting": [-1156, -1367, 686, 532, -53, 149, -20, -31],
  "SliceThickness": 3,
  "SliceTiming": [0.25781, 0, 0.27344, 0.00781, 0.28125, 0.02344, 0.29688, 0.03906, 0.30469, 0.04688, 0.32031, 0.0625, 0.32812, 0.07031, 0.34375, 0.08594, 0.35156, 0.09375, 0.36719, 0.10938, 0.38281, 0.11719, 0.39062, 0.13281, 0.40625, 0.14844, 0.41406, 0.15625, 0.42969, 0.17188, 0.44531, 0.17969, 0.45312, 0.19531, 0.46875, 0.21094, 0.47656, 0.21875, 0.49219, 0.23438, 0.50781, 0.24219],
  "SoftwareVersions": "syngo MR E11",
  "SpacingBetweenSlices": 3,
  "StationName": "AWP166011",
  "TxRefAmp": 230.04,
  "dcmmeta_affine": [
    [-2.9996321201324463, 0.03822009265422821, -0.02731013298034668, 107.65888977050781],
    [0.0401311032474041, 2.9915659427642822, -0.22118568420410156, -75.63240814208984],
    [-0.02441542223095894, 0.2215244323015213, 2.9917144775390625, -58.872718811035156],
    [0.0, 0.0, 0.0, 1.0]
],
  "dcmmeta_reorient_transform": [
    [0.0, -1.0, 0.0, 69.0],
    [1.0, 0.0, 0.0, 0.0],
    [0.0, 0.0, -1.0, 41.0],
    [0.0, 0.0, 0.0, 1.0]
],
  "dcmmeta_shape": [70, 70, 42],
  "dcmmeta_slice_dim": 2,
  "dcmmeta_version": 0.6,
  "global": {
    "const": {
      "AcquisitionMatrix": [0, 70, 70, 0],
      "AcquisitionNumber": 1,
      "AngioFlag": "N",
      "BitsAllocated": 16,
      "BitsStored": 12,
      "BodyPartExamined": "BRAIN",
      "Columns": 70,
      "EchoNumbers": 2,
      "EchoTime": 7.38,
      "EchoTrainLength": 0,
      "FlipAngle": 60.0,
      "HighBit": 11,
      "ImageOrientationPatient": [0.99987740257963, -0.0133770343097, -0.0081384742857, 0.01274003119963, 0.99718861191261, -0.0738414780244],
      "ImageType": [
        "ORIGINAL",
        "PRIMARY",
        "P",
        "ND"
],
      "ImagedNucleus": "1H",
      "ImagingFrequency": 123.259558,
      "InPlanePhaseEncodingDirection": "ROW",
      "MRAcquisitionType": "2D",
      "MagneticFieldStrength": 3.0,
      "Manufacturer": "SIEMENS",
      "ManufacturerModelName": "Prisma",
      "Modality": "MR",
      "NumberOfAverages": 1.0,
      "NumberOfPhaseEncodingSteps": 70,
      "PercentPhaseFieldOfView": 100.0,
      "PercentSampling": 100.0,
      "PerformedProcedureStepStartTime": "080209.993000",
      "PhotometricInterpretation": "MONOCHROME2",
      "PixelBandwidth": 595.0,
      "PixelRepresentation": 0,
      "PixelSpacing": [3.0, 3.0],
      "ProtocolName": "fmap_gre_field_mapping",
      "RepetitionTime": 520.0,
      "RescaleIntercept": -4096.0,
      "RescaleSlope": 2.0,
      "RescaleType": "US",
      "Rows": 70,
      "SAR": 0.09925078153933,
      "SamplesPerPixel": 1,
      "ScanningSequence": "GR",
      "SequenceName": "*fm2d2r",
      "SequenceVariant": "SP",
      "SeriesDescription": "fmap_gre_field_mapping",
      "SeriesNumber": 15,
      "SeriesTime": "090431.690000",
      "SliceThickness": 3.0,
      "SoftwareVersions": "syngo MR E11",
      "SpacingBetweenSlices": 3.0,
      "SpecificCharacterSet": "ISO_IR 100",
      "StudyID": "3",
      "StudyTime": "080209.926000",
      "TransmitCoilName": "Body",
      "VariableFlipAngleFlag": "N",
      "WindowCenterWidthExplanation": "Algo1",
      "dBdt": 0.0},
    "slices": {
      "AcquisitionTime": ["090318.812500", "090318.552500", "090318.825000", "090318.565000", "090318.837500", "090318.577500", "090318.850000", "090318.590000", "090318.862500", "090318.602500", "090318.875000", "090318.615000", "090318.885000", "090318.625000", "090318.897500", "090318.637500", "090318.910000", "090318.650000", "090318.922500", "090318.662500", "090318.935000", "090318.675000", "090318.947500", "090318.687500", "090318.960000", "090318.700000", "090318.972500", "090318.712500", "090318.985000", "090318.725000", "090318.997500", "090318.737500", "090319.010000", "090318.750000", "090319.022500", "090318.762500", "090319.035000", "090318.775000", "090319.047500", "090318.787500", "090319.060000", "090318.800000"],
      "ContentTime": ["090431.742000", "090431.696000", "090431.744000", "090431.699000", "090431.746000", "090431.701000", "090431.748000", "090431.703000", "090431.751000", "090431.705000", "090431.753000", "090431.707000", "090431.755000", "090431.710000", "090431.757000", "090431.712000", "090431.759000", "090431.714000", "090431.761000", "090431.716000", "090431.763000", "090431.718000", "090431.766000", "090431.720000", "090431.768000", "090431.723000", "090431.770000", "090431.725000", "090431.772000", "090431.727000", "090431.774000", "090431.729000", "090431.776000", "090431.731000", "090431.778000", "090431.733000", "090431.781000", "090431.735000", "090431.783000", "090431.737000", "090431.785000", "090431.740000"],
      "CsaImage.ICE_Dims": [
        "X_2_1_1_1_1_1_22_1_1_1_1_120",
        "X_2_1_1_1_1_1_1_1_1_2_1_120",
        "X_2_1_1_1_1_1_23_1_1_3_1_120",
        "X_2_1_1_1_1_1_2_1_1_4_1_120",
        "X_2_1_1_1_1_1_24_1_1_5_1_120",
        "X_2_1_1_1_1_1_3_1_1_6_1_120",
        "X_2_1_1_1_1_1_25_1_1_7_1_120",
        "X_2_1_1_1_1_1_4_1_1_8_1_120",
        "X_2_1_1_1_1_1_26_1_1_9_1_120",
        "X_2_1_1_1_1_1_5_1_1_10_1_120",
        "X_2_1_1_1_1_1_27_1_1_11_1_120",
        "X_2_1_1_1_1_1_6_1_1_12_1_120",
        "X_2_1_1_1_1_1_28_1_1_13_1_120",
        "X_2_1_1_1_1_1_7_1_1_14_1_120",
        "X_2_1_1_1_1_1_29_1_1_15_1_120",
        "X_2_1_1_1_1_1_8_1_1_16_1_120",
        "X_2_1_1_1_1_1_30_1_1_17_1_120",
        "X_2_1_1_1_1_1_9_1_1_18_1_120",
        "X_2_1_1_1_1_1_31_1_1_19_1_120",
        "X_2_1_1_1_1_1_10_1_1_20_1_120",
        "X_2_1_1_1_1_1_32_1_1_21_1_120",
        "X_2_1_1_1_1_1_11_1_1_22_1_120",
        "X_2_1_1_1_1_1_33_1_1_23_1_120",
        "X_2_1_1_1_1_1_12_1_1_24_1_120",
        "X_2_1_1_1_1_1_34_1_1_25_1_120",
        "X_2_1_1_1_1_1_13_1_1_26_1_120",
        "X_2_1_1_1_1_1_35_1_1_27_1_120",
        "X_2_1_1_1_1_1_14_1_1_28_1_120",
        "X_2_1_1_1_1_1_36_1_1_29_1_120",
        "X_2_1_1_1_1_1_15_1_1_30_1_120",
        "X_2_1_1_1_1_1_37_1_1_31_1_120",
        "X_2_1_1_1_1_1_16_1_1_32_1_120",
        "X_2_1_1_1_1_1_38_1_1_33_1_120",
        "X_2_1_1_1_1_1_17_1_1_34_1_120",
        "X_2_1_1_1_1_1_39_1_1_35_1_120",
        "X_2_1_1_1_1_1_18_1_1_36_1_120",
        "X_2_1_1_1_1_1_40_1_1_37_1_120",
        "X_2_1_1_1_1_1_19_1_1_38_1_120",
        "X_2_1_1_1_1_1_41_1_1_39_1_120",
        "X_2_1_1_1_1_1_20_1_1_40_1_120",
        "X_2_1_1_1_1_1_42_1_1_41_1_120",
        "X_2_1_1_1_1_1_21_1_1_42_1_120"
],
      "CsaImage.ProtocolSliceNumber": [0, 1, 2, 3, 4, 5, 6, 7, 8, 9, 10, 11, 12, 13, 14, 15, 16, 17, 18, 19, 20, 21, 22, 23, 24, 25, 26, 27, 28, 29, 30, 31, 32, 33, 34, 35, 36, 37, 38, 39, 40, 41],
      "CsaImage.SlicePosition_PCS": [
        [-110.29607703, -130.78565876, -43.5873641],
        [-110.26876689, -130.56447117, -40.59565344],
        [-110.24145676, -130.34328549, -37.60394278],
        [-110.21414687, -130.1220998, -34.61223593],
        [-110.18683673, -129.90091221, -31.62052527],
        [-110.1595266, -129.67972653, -28.6288146],
        [-110.13221647, -129.45854084, -25.63710394],
        [-110.10490634, -129.23735516, -22.64539328],
        [-110.0775962, -129.01616757, -19.65368261],
        [-110.05028607, -128.79498188, -16.66197195],
        [-110.02297594, -128.5737962, -13.67026129],
        [-109.9956658, -128.35260861, -10.67855063],
        [-109.96835567, -128.13142292, -7.68684187],
        [-109.94104554, -127.91023724, -4.69513025],
        [-109.9137354, -127.68905156, -1.70342054],
        [-109.88642527, -127.46786396, 1.28829012],
        [-109.85911514, -127.24667828, 4.2800003],
        [-109.83180501, -127.0254926, 7.27171061],
        [-109.80449487, -126.804305, 10.26342103],
        [-109.77718474, -126.58311932, 13.25513134],
        [-109.74987461, -126.36193364, 16.24684153],
        [-109.72256447, -126.14074795, 19.23855219],
        [-109.69525434, -125.91956036, 22.23026285],
        [-109.66794445, -125.69837468, 25.22197351],
        [-109.64063431, -125.47718899, 28.21368227],
        [-109.61332418, -125.2560014, 31.20539293],
        [-109.58601405, -125.03481572, 34.1971036],
        [-109.55870391, -124.81363003, 37.18881426],
        [-109.53139378, -124.59244435, 40.18052492],
        [-109.50408365, -124.37125676, 43.17223368],
        [-109.47677352, -124.15007107, 46.16394434],
        [-109.44946338, -123.92888539, 49.155655],
        [-109.42215325, -123.7076978, 52.14736567],
        [-109.39484312, -123.48651211, 55.13907633],
        [-109.36753298, -123.26532643, 58.13078699],
        [-109.34022285, -123.04414074, 61.12249765],
        [-109.31291272, -122.82295315, 64.11420832],
        [-109.28560258, -122.60176747, 67.10591898],
        [-109.25829245, -122.38058178, 70.09762964],
        [-109.23098232, -122.15939419, 73.08934031],
        [-109.20367219, -121.93820851, 76.08104715],
        [-109.17636205, -121.71702282, 79.07276163]
],
      "CsaImage.TimeAfterStart": [0.7825, 0.5225, 0.795, 0.535, 0.8075, 0.5475, 0.82, 0.56, 0.8325, 0.5725, 0.845, 0.585, 0.855, 0.595, 0.8675, 0.6075, 0.88, 0.62, 0.8925, 0.6325, 0.905, 0.645, 0.9175, 0.6575, 0.93, 0.67, 0.9425, 0.6825, 0.955, 0.695, 0.9675, 0.7075, 0.98, 0.72, 0.9925, 0.7325, 1.005, 0.745, 1.0175, 0.7575, 1.03, 0.77],
      "ImagePositionPatient": [
        [-110.29607702776, -130.78565876354, -43.587364101674],
        [-110.26876689478, -130.56447117199, -40.595653438832],
        [-110.2414567618, -130.34328548778, -37.603942775991],
        [-110.21414686724, -130.12209980358, -34.612235927846],
        [-110.18683673426, -129.90091221203, -31.620525265004],
        [-110.15952660128, -129.67972652782, -28.628814602162],
        [-110.1322164683, -129.45854084362, -25.637103939321],
        [-110.10490633532, -129.23735515942, -22.645393276479],
        [-110.07759620234, -129.01616756786, -19.653682613637],
        [-110.05028606936, -128.79498188366, -16.661971950795],
        [-110.02297593638, -128.57379619945, -13.670261287954],
        [-109.9956658034, -128.3526086079, -10.678550625112],
        [-109.96835567042, -128.1314229237, -7.6868418696185],
        [-109.94104553744, -127.91023723949, -4.6951302531024],
        [-109.91373540446, -127.68905155529, -1.703420543935],
        [-109.88642527148, -127.46786396374, 1.2882901189068],
        [-109.8591151385, -127.24667827953, 4.2800003049115],
        [-109.83180500552, -127.02549259533, 7.2717106101254],
        [-109.80449487254, -126.80430500378, 10.263421034549],
        [-109.77718473956, -126.58311931957, 13.255131339763],
        [-109.74987460658, -126.36193363537, 16.246841525767],
        [-109.72256447359, -126.14074795116, 19.238552188609],
        [-109.69525434061, -125.91956035961, 22.230262851451],
        [-109.66794444605, -125.69837467541, 25.221973514293],
        [-109.64063431307, -125.4771889912, 28.213682269786],
        [-109.61332418009, -125.25600139965, 31.205392932628],
        [-109.58601404711, -125.03481571545, 34.197103595469],
        [-109.55870391413, -124.81363003124, 37.188814258311],
        [-109.53139378115, -124.59244434704, 40.180524921153],
        [-109.50408364817, -124.37125675548, 43.172233676646],
        [-109.47677351519, -124.15007107128, 46.163944339488],
        [-109.44946338221, -123.92888538708, 49.15565500233],
        [-109.42215324923, -123.70769779552, 52.147365665171],
        [-109.39484311625, -123.48651211132, 55.139076328013],
        [-109.36753298327, -123.26532642712, 58.130786990855],
        [-109.34022285029, -123.04414074291, 61.122497653697],
        [-109.31291271731, -122.82295315136, 64.114208316539],
        [-109.28560258433, -122.60176746715, 67.10591897938],
        [-109.25829245135, -122.38058178295, 70.097629642222],
        [-109.23098231837, -122.1593941914, 73.089340305064],
        [-109.20367218539, -121.93820850719, 76.081047153209],
        [-109.17636205241, -121.71702282299, 79.072761630748]
],
      "InstanceCreationTime": ["090431.742000", "090431.696000", "090431.744000", "090431.699000", "090431.746000", "090431.701000", "090431.748000", "090431.703000", "090431.751000", "090431.705000", "090431.753000", "090431.707000", "090431.755000", "090431.710000", "090431.757000", "090431.712000", "090431.759000", "090431.714000", "090431.761000", "090431.716000", "090431.763000", "090431.718000", "090431.766000", "090431.720000", "090431.768000", "090431.723000", "090431.770000", "090431.725000", "090431.772000", "090431.727000", "090431.774000", "090431.729000", "090431.776000", "090431.731000", "090431.778000", "090431.733000", "090431.781000", "090431.735000", "090431.783000", "090431.737000", "090431.785000", "090431.740000"],
      "InstanceNumber": [1, 2, 3, 4, 5, 6, 7, 8, 9, 10, 11, 12, 13, 14, 15, 16, 17, 18, 19, 20, 21, 22, 23, 24, 25, 26, 27, 28, 29, 30, 31, 32, 33, 34, 35, 36, 37, 38, 39, 40, 41, 42],
      "LargestImagePixelValue": [4093, 4093, 4086, 4091, 4092, 4092, 4091, 4093, 4080, 4090, 4093, 4089, 4088, 4093, 4072, 4083, 4090, 4090, 4062, 4094, 4091, 4095, 4088, 4092, 4092, 4091, 4090, 4093, 4081, 4093, 4094, 4091, 4092, 4086, 4093, 4094, 4093, 4092, 4090, 4093, 4092, 4090],
      "SliceLocation": [-54.113651120306, -51.113650706276, -48.113650432872, -45.113653965796, -42.113653551766, -39.113653278362, -36.113653004959, -33.113652731555, -30.113652317525, -27.113652044122, -24.113651770718, -21.113651356688, -18.113652985363, -15.11365176092, -12.113652438556, -9.1136520245261, -6.1136522266421, -3.1136523098782, -0.1136521336081, 2.8863477831558, 5.8863475810398, 8.8863478544433, 11.886348268473, 14.886348539706, 17.886346911032, 20.886347325062, 23.886347598465, 26.886347871869, 29.886348145272, 32.886346657224, 35.886346930627, 38.886347204031, 41.886347618061, 44.886347891464, 47.886348164868, 50.886348438271, 53.886348852301, 56.886349125705, 59.886349399108, 62.886349813138, 65.886346282386, 68.886350359945],
      "SmallestImagePixelValue": [5, 1, 1, 1, 2, 5, 1, 19, 4, 0, 2, 0, 2, 21, 3, 8, 24, 23, 10, 2, 12, 7, 3, 23, 5, 0, 0, 0, 0, 8, 3, 2, 10, 7, 4, 1, 0, 9, 3, 1, 4, 1],
      "WindowCenter": [-246.0, -260.0, -210.0, -272.0, -162.0, -134.0, -224.0, -262.0, -170.0, -328.0, -278.0, -126.0, -106.0, -8.0, -16.0, -182.0, -38.0, -96.0, -214.0, -112.0, -30.0, -68.0, -40.0, -20.0, -102.0, -160.0, -190.0, -200.0, -212.0, -270.0, -290.0, -308.0, -316.0, -328.0, -356.0, -412.0, -448.0, -420.0, -366.0, -278.0, -294.0, -300.0],
      "WindowWidth": [5824.0, 5840.0, 5964.0, 5878.0, 5880.0, 5802.0, 5612.0, 5426.0, 5424.0, 4582.0, 4556.0, 5124.0, 4986.0, 5368.0, 5264.0, 4528.0, 5190.0, 4984.0, 4520.0, 4928.0, 5186.0, 4960.0, 5040.0, 4966.0, 4464.0, 4492.0, 4500.0, 4532.0, 4532.0, 4576.0, 4614.0, 4652.0, 4664.0, 4708.0, 4746.0, 4810.0, 4846.0, 4898.0, 5474.0, 6034.0, 6112.0, 6320.0]
    }
  }
}